************************************************************
  HS Scan of (1) Internal mercury lamp
************************************************************
Integration time is 0.2294 seconds per sample
dh071118Manchester 53.47 2.23 2.804185pr1000
************************************************************
Dead Time -------------------------  3E-08 
Number of Cycles Used -------------  4 
Starting Wavelength (Angstroms) ---  2950 
Final Wavelength (Angstoms) -------  2984 
Wavelength Increment (Angstroms) --  .25 
Filter Wheel #1 Position ---------- (1) Ground quartz diffuser (ND=2.32)
Filter Wheel #2 Position ---------- (1) Neutral Density 0.494



************************************************************
HS scan start time = 04:30:42
Dark Count =  6 


Time (GMT)  Wavelength (Ang)  Step Number  Raw Counts  Counts/Second

  271.07        2950.00           1222          50.00       191.81
  271.13        2950.25           1226          49.00       187.45
  271.16        2950.50           1229          48.00       183.09
  271.19        2950.75           1232          46.00       174.37
  271.23        2951.00           1236          47.00       178.73
  271.26        2951.25           1239          50.00       191.81
  271.29        2951.50           1242          43.00       161.29
  271.32        2951.75           1246          53.00       204.88
  271.35        2952.00           1249          51.00       196.17
  271.38        2952.25           1252          46.00       174.37
  271.41        2952.50           1256          43.00       161.29
  271.44        2952.75           1259          55.00       213.60
  271.47        2953.00           1262          57.00       222.32
  271.50        2953.25           1266          52.00       200.52
  271.53        2953.50           1269          46.00       174.37
  271.56        2953.75           1272          47.00       178.73
  271.60        2954.00           1276          45.00       170.01
  271.63        2954.25           1279          53.00       204.88
  271.66        2954.50           1282          54.00       209.24
  271.69        2954.75           1286          44.00       165.65
  271.72        2955.00           1289          48.00       183.09
  271.75        2955.25           1292          49.00       187.45
  271.78        2955.50           1296          46.00       174.37
  271.81        2955.75           1299          50.00       191.81
  271.84        2956.00           1302          47.00       178.73
  271.88        2956.25           1306          47.00       178.73
  271.91        2956.50           1309          55.00       213.60
  271.94        2956.75           1312          46.00       174.37
  271.97        2957.00           1316          54.00       209.24
  272.00        2957.25           1319          52.00       200.52
  272.03        2957.50           1322          51.00       196.17
  272.06        2957.75           1326          67.00       265.91
  272.09        2958.00           1329          50.00       191.81
  272.12        2958.25           1332          47.00       178.73
  272.15        2958.50           1336          51.00       196.17
  272.18        2958.75           1339          47.00       178.73
  272.21        2959.00           1342          44.00       165.65
  272.24        2959.25           1346          49.00       187.45
  272.28        2959.50           1349          54.00       209.24
  272.31        2959.75           1352          66.00       261.55
  272.34        2960.00           1356          77.00       309.51
  272.37        2960.25           1359         119.00       492.60
  272.40        2960.50           1362         144.00       601.58
  272.43        2960.75           1366         174.00       732.36
  272.46        2961.00           1369         204.00       863.14
  272.49        2961.25           1372         230.00       976.49
  272.52        2961.50           1376         297.00      1268.57
  272.55        2961.75           1379         471.00      2027.15
  272.59        2962.00           1382        1075.00      4660.64
  272.62        2962.25           1386        2436.00     10596.22
  272.65        2962.50           1389        3464.00     15080.93
  272.68        2962.75           1392        4685.00     20409.18
  272.71        2963.00           1396        6189.00     26974.74
  272.74        2963.25           1399        7293.00     31795.79
  272.77        2963.50           1402        8511.00     37116.29
  272.80        2963.75           1406       10003.00     43635.99
  272.83        2964.00           1409       11174.00     48754.79
  272.86        2964.25           1412       12209.00     53280.39
  272.89        2964.50           1416       13908.00     60712.05
  272.93        2964.75           1419       15006.00     65516.62
  272.96        2965.00           1422       16208.00     70777.85
  272.99        2965.25           1426       17615.00     76938.50
  273.02        2965.50           1429       18925.00     82676.47
  273.05        2965.75           1432       20205.00     88284.96
  273.08        2966.00           1436       21609.00     94438.94
  273.11        2966.25           1439       22790.00     99617.24
  273.14        2966.50           1442       23654.00    103406.60
  273.17        2966.75           1446       24549.00    107332.90
  273.20        2967.00           1449       24687.00    107938.30
  273.24        2967.25           1452       24677.00    107894.50
  273.27        2967.50           1456       24927.00    108991.40
  273.30        2967.75           1459       24798.00    108425.40
  273.33        2968.00           1462       24407.00    106709.90
  273.36        2968.25           1466       23668.00    103468.00
  273.39        2968.50           1469       22414.00     97968.42
  273.42        2968.75           1472       21369.00     93386.82
  273.45        2969.00           1476       19744.00     86264.81
  273.48        2969.25           1479       18584.00     81182.66
  273.51        2969.50           1482       17557.00     76684.50
  273.55        2969.75           1486       16149.00     70519.56
  273.58        2970.00           1489       15039.00     65661.03
  273.61        2970.25           1492       13942.00     60860.81
  273.64        2970.50           1496       12507.00     54583.65
  273.67        2970.75           1499       11372.00     49620.46
  273.70        2971.00           1502       10041.00     43802.07
  273.73        2971.25           1506        8529.00     37194.93
  273.76        2971.50           1509        7451.00     32485.87
  273.79        2971.75           1513        6106.00     26612.35
  273.83        2972.00           1516        4790.00     20867.46
  273.86        2972.25           1519        3715.00     16176.11
  273.89        2972.50           1523        2183.00      9492.68
  273.92        2972.75           1526        1146.00      4970.23
  273.95        2973.00           1529         520.00      2240.78
  273.98        2973.25           1533         268.00      1142.15
  274.01        2973.50           1536         237.00      1007.01
  274.04        2973.75           1539         195.00       823.91
  274.07        2974.00           1543         169.00       710.56
  274.10        2974.25           1546         118.00       488.24
  274.14        2974.50           1549         104.00       427.21
  274.17        2974.75           1553          69.00       274.63
  274.20        2975.00           1556          61.00       239.76
  274.23        2975.25           1559          49.00       187.45
  274.26        2975.50           1563          48.00       183.09
  274.29        2975.75           1566          46.00       174.37
  274.32        2976.00           1569          49.00       187.45
  274.35        2976.25           1573          44.00       165.65
  274.38        2976.50           1576          58.00       226.68
  274.41        2976.75           1579          41.00       152.57
  274.44        2977.00           1583          54.00       209.24
  274.47        2977.25           1586          48.00       183.09
  274.50        2977.50           1590          46.00       174.37
  274.53        2977.75           1593          49.00       187.45
  274.57        2978.00           1596          51.00       196.17
  274.60        2978.25           1600          53.00       204.88
  274.63        2978.50           1603          46.00       174.37
  274.66        2978.75           1606          52.00       200.52
  274.69        2979.00           1610          42.00       156.93
  274.72        2979.25           1613          38.00       139.49
  274.75        2979.50           1616          47.00       178.73
  274.78        2979.75           1620          42.00       156.93
  274.81        2980.00           1623          43.00       161.29
  274.84        2980.25           1626          44.00       165.65
  274.87        2980.50           1630          44.00       165.65
  274.90        2980.75           1633          49.00       187.45
  274.94        2981.00           1637          50.00       191.81
  274.97        2981.25           1640          46.00       174.37
  275.00        2981.50           1643          47.00       178.73
  275.03        2981.75           1647          42.00       156.93
  275.06        2982.00           1650          41.00       152.57
  275.09        2982.25           1653          49.00       187.45
  275.12        2982.50           1657          39.00       143.85
  275.15        2982.75           1660          50.00       191.81
  275.18        2983.00           1663          45.00       170.01
  275.21        2983.25           1667          53.00       204.88
  275.24        2983.50           1670          46.00       174.37
  275.27        2983.75           1673          39.00       143.85
  275.30        2984.00           1677          43.00       161.29
HS scan finished at 04:35:31
end
************************************************************
  HS Scan of (1) Internal mercury lamp
************************************************************
Integration time is 0.2294 seconds per sample
dh071118Manchester 53.47 2.23 2.804185pr1000
************************************************************
Dead Time -------------------------  3E-08 
Number of Cycles Used -------------  4 
Starting Wavelength (Angstroms) ---  2950 
Final Wavelength (Angstoms) -------  2984 
Wavelength Increment (Angstroms) --  .25 
Filter Wheel #1 Position ---------- (1) Ground quartz diffuser (ND=2.32)
Filter Wheel #2 Position ---------- (1) Neutral Density 0.494



************************************************************
HS scan start time = 17:11:59
Dark Count =  7.3 


Time (GMT)  Wavelength (Ang)  Step Number  Raw Counts  Counts/Second

 1032.36        2950.00           1222          52.00       194.86
 1032.42        2950.25           1226          53.00       199.22
 1032.45        2950.50           1229          44.00       159.98
 1032.48        2950.75           1232          56.00       212.29
 1032.52        2951.00           1236          45.00       164.34
 1032.55        2951.25           1239          60.00       229.73
 1032.58        2951.50           1242          48.00       177.42
 1032.61        2951.75           1246          48.00       177.42
 1032.64        2952.00           1249          52.00       194.86
 1032.67        2952.25           1252          51.00       190.50
 1032.70        2952.50           1256          50.00       186.14
 1032.73        2952.75           1259          46.00       168.70
 1032.76        2953.00           1262          57.00       216.65
 1032.79        2953.25           1266          50.00       186.14
 1032.82        2953.50           1269          45.00       164.34
 1032.85        2953.75           1272          44.00       159.98
 1032.89        2954.00           1276          52.00       194.86
 1032.92        2954.25           1279          49.00       181.78
 1032.95        2954.50           1282          48.00       177.42
 1032.98        2954.75           1286          49.00       181.78
 1033.01        2955.00           1289          44.00       159.98
 1033.04        2955.25           1292          49.00       181.78
 1033.07        2955.50           1296          53.00       199.22
 1033.10        2955.75           1299          48.00       177.42
 1033.13        2956.00           1302          50.00       186.14
 1033.16        2956.25           1306          55.00       207.94
 1033.19        2956.50           1309          45.00       164.34
 1033.22        2956.75           1312          52.00       194.86
 1033.25        2957.00           1316          56.00       212.29
 1033.28        2957.25           1319          44.00       159.98
 1033.31        2957.50           1322          48.00       177.42
 1033.34        2957.75           1326          43.00       155.62
 1033.37        2958.00           1329          50.00       186.14
 1033.41        2958.25           1332          48.00       177.42
 1033.44        2958.50           1336          47.00       173.06
 1033.47        2958.75           1339          47.00       173.06
 1033.50        2959.00           1342          56.00       212.29
 1033.53        2959.25           1346          44.00       159.98
 1033.56        2959.50           1349          56.00       212.29
 1033.59        2959.75           1352          59.00       225.37
 1033.62        2960.00           1356          89.00       356.15
 1033.65        2960.25           1359         115.00       469.49
 1033.68        2960.50           1362         133.00       547.96
 1033.71        2960.75           1366         163.00       678.74
 1033.74        2961.00           1369         188.00       787.73
 1033.77        2961.25           1372         238.00      1005.70
 1033.80        2961.50           1376         305.00      1297.78
 1033.83        2961.75           1379         527.00      2265.63
 1033.87        2962.00           1382        1201.00      5204.39
 1033.90        2962.25           1386        2571.00     11179.43
 1033.93        2962.50           1389        3720.00     16192.26
 1033.96        2962.75           1392        4722.00     20565.00
 1033.99        2963.00           1396        6114.00     26641.60
 1034.02        2963.25           1399        7222.00     31480.02
 1034.05        2963.50           1402        8306.00     36215.00
 1034.08        2963.75           1406        9941.00     43359.33
 1034.11        2964.00           1409       11093.00     48394.98
 1034.14        2964.25           1412       12172.00     53112.90
 1034.17        2964.50           1416       13777.00     60133.24
 1034.21        2964.75           1419       14896.00     65029.53
 1034.24        2965.00           1422       16121.00     70391.30
 1034.27        2965.25           1426       17767.00     77598.49
 1034.30        2965.50           1429       18665.00     81531.79
 1034.33        2965.75           1432       19947.00     87148.64
 1034.36        2966.00           1436       21229.00     92767.40
 1034.39        2966.25           1439       22403.00     97914.49
 1034.42        2966.50           1442       23438.00    102453.50
 1034.45        2966.75           1446       24236.00    105954.00
 1034.48        2967.00           1449       24547.00    107318.40
 1034.51        2967.25           1452       24544.00    107305.20
 1034.54        2967.50           1456       24674.00    107875.60
 1034.57        2967.75           1459       24783.00    108353.80
 1034.61        2968.00           1462       24265.00    106081.20
 1034.64        2968.25           1466       23263.00    101685.90
 1034.67        2968.50           1469       22594.00     98752.03
 1034.70        2968.75           1472       21303.00     93091.79
 1034.73        2969.00           1476       19924.00     87047.86
 1034.76        2969.25           1479       18986.00     82938.01
 1034.79        2969.50           1482       17723.00     77405.78
 1034.82        2969.75           1486       16344.00     71367.55
 1034.85        2970.00           1489       15202.00     66368.72
 1034.88        2970.25           1492       14134.00     61695.16
 1034.91        2970.50           1496       12534.00     54696.05
 1034.95        2970.75           1499       11342.00     49483.61
 1034.98        2971.00           1502       10210.00     44535.05
 1035.01        2971.25           1506        8631.00     37634.88
 1035.04        2971.50           1509        7499.00     32689.85
 1035.07        2971.75           1513        6036.00     26301.04
 1035.10        2972.00           1516        4939.00     21512.14
 1035.13        2972.25           1519        3898.00     16968.97
 1035.16        2972.50           1523        2409.00     10472.78
 1035.19        2972.75           1526        1341.00      5814.88
 1035.22        2973.00           1529         641.00      2762.65
 1035.25        2973.25           1533         327.00      1393.69
 1035.28        2973.50           1536         258.00      1092.89
 1035.31        2973.75           1539         213.00       896.71
 1035.34        2974.00           1543         181.00       757.21
 1035.38        2974.25           1546         138.00       569.76
 1035.41        2974.50           1549         110.00       447.70
 1035.44        2974.75           1553          80.00       316.92
 1035.47        2975.00           1556          67.00       260.25
 1035.50        2975.25           1559          65.00       251.53
 1035.53        2975.50           1563          49.00       181.78
 1035.56        2975.75           1566          43.00       155.62
 1035.59        2976.00           1569          46.00       168.70
 1035.62        2976.25           1573          42.00       151.26
 1035.65        2976.50           1576          46.00       168.70
 1035.68        2976.75           1579          47.00       173.06
 1035.71        2977.00           1583          43.00       155.62
 1035.74        2977.25           1586          49.00       181.78
 1035.77        2977.50           1590          44.00       159.98
 1035.81        2977.75           1593          43.00       155.62
 1035.84        2978.00           1596          47.00       173.06
 1035.87        2978.25           1600          41.00       146.91
 1035.90        2978.50           1603          48.00       177.42
 1035.93        2978.75           1606          48.00       177.42
 1035.96        2979.00           1610          48.00       177.42
 1035.99        2979.25           1613          46.00       168.70
 1036.02        2979.50           1616          41.00       146.91
 1036.05        2979.75           1620          48.00       177.42
 1036.08        2980.00           1623          45.00       164.34
 1036.11        2980.25           1626          39.00       138.19
 1036.14        2980.50           1630          42.00       151.26
 1036.17        2980.75           1633          46.00       168.70
 1036.20        2981.00           1637          48.00       177.42
 1036.23        2981.25           1640          41.00       146.91
 1036.26        2981.50           1643          44.00       159.98
 1036.29        2981.75           1647          42.00       151.26
 1036.32        2982.00           1650          47.00       173.06
 1036.36        2982.25           1653          46.00       168.70
 1036.39        2982.50           1657          45.00       164.34
 1036.42        2982.75           1660          39.00       138.19
 1036.45        2983.00           1663          49.00       181.78
 1036.48        2983.25           1667          44.00       159.98
 1036.51        2983.50           1670          44.00       159.98
 1036.54        2983.75           1673          39.00       138.19
 1036.57        2984.00           1677          43.00       155.62
HS scan finished at 17:16:47
end
