************************************************************
HS Scan of 
************************************************************
Integration time is 0.2294 seconds per sample
dh111118Manchester 53.47  2.23  2.81pr1000
************************************************************
Dead Time -------------------------  3E-8
Number of Cycles Used -------------  4
Starting Wavelength (Angstroms) ---  2950
Final Wavelength (Angstoms) -------  2984
Wavelength Increment (Angstroms) --  0.25
Filter Wheel #1 Position ---------- (1) Ground quartz diffuser (ND = 2.32)
Filter Wheel #2 Position ---------- (1) Neutral density 0.494
 
 
 
************************************************************
HS scan start time = 17:37:57
Dark Count =  2.35
 
 
Time (GMT)  Wavelength (Ang)  Step Number  Raw Counts  Counts/Second
 
1048.97        2950.00        1222           58.00          252.84         
1049.05        2950.25        1226           57.00          248.48         
1049.11        2950.50        1229           49.00          213.60         
1049.17        2950.75        1232           50.00          217.96         
1049.24        2951.00        1236           47.00          204.88         
1049.30        2951.25        1239           50.00          217.96         
1049.37        2951.50        1242           49.00          213.60         
1049.43        2951.75        1246           52.00          226.68         
1049.50        2952.00        1249           47.00          204.88         
1049.57        2952.25        1252           42.00          183.09         
1049.63        2952.50        1256           50.00          217.96         
1049.70        2952.75        1259           51.00          222.32         
1049.76        2953.00        1262           51.00          222.32         
1049.83        2953.25        1266           46.00          200.52         
1049.89        2953.50        1269           44.00          191.81         
1049.96        2953.75        1272           54.00          235.40         
1050.03        2954.00        1276           53.00          231.04         
1050.09        2954.25        1279           44.00          191.81         
1050.16        2954.50        1282           48.00          209.24         
1050.23        2954.75        1286           43.00          187.45         
1050.29        2955.00        1289           49.00          213.60         
1050.36        2955.25        1292           49.00          213.60         
1050.42        2955.50        1296           57.00          248.48         
1050.49        2955.75        1299           47.00          204.88         
1050.55        2956.00        1302           54.00          235.40         
1050.62        2956.25        1306           47.00          204.88         
1050.69        2956.50        1309           48.00          209.24         
1050.75        2956.75        1312           61.00          265.91         
1050.82        2957.00        1316           51.00          222.32         
1050.88        2957.25        1319           50.00          217.96         
1050.95        2957.50        1322           50.00          217.96         
1051.02        2957.75        1326           50.00          217.96         
1051.08        2958.00        1329           44.00          191.81         
1051.15        2958.25        1332           52.00          226.68         
1051.21        2958.50        1336           43.00          187.45         
1051.28        2958.75        1339           62.00          270.27         
1051.34        2959.00        1342           56.00          244.12         
1051.41        2959.25        1346           62.00          270.27         
1051.48        2959.50        1349           56.00          244.12         
1051.54        2959.75        1352           65.00          283.35         
1051.61        2960.00        1356           76.00          331.30         
1051.67        2960.25        1359           106.00         462.08         
1051.74        2960.50        1362           119.00         518.75         
1051.80        2960.75        1366           174.00         758.52         
1051.87        2961.00        1369           210.00         915.46         
1051.94        2961.25        1372           216.00         941.61         
1052.00        2961.50        1376           265.00         1155.23        
1052.07        2961.75        1379           421.00         1835.32        
1052.13        2962.00        1382           939.00         4093.79        
1052.20        2962.25        1386           2380.00        10378.12       
1052.27        2962.50        1389           3369.00        14692.61       
1052.33        2962.75        1392           4449.00        19405.37       
1052.40        2963.00        1396           5882.00        25660.55       
1052.47        2963.25        1399           7009.00        30581.66       
1052.53        2963.50        1402           8020.00        34997.49       
1052.60        2963.75        1406           9710.00        42381.66       
1052.66        2964.00        1409           10570.00       46140.55       
1052.73        2964.25        1412           11871.00       51828.56       
1052.79        2964.50        1416           13295.00       58056.57       
1052.86        2964.75        1419           14391.00       62851.62       
1052.93        2965.00        1422           15624.00       68247.70       
1052.99        2965.25        1426           17140.00       74884.69       
1053.06        2965.50        1429           18209.00       79566.33       
1053.12        2965.75        1432           19315.00       84411.40       
1053.19        2966.00        1436           20730.00       90612.16       
1053.26        2966.25        1439           21572.00       94303.03       
1053.32        2966.50        1442           22599.00       98805.96       
1053.39        2966.75        1446           23546.00       102959.20      
1053.45        2967.00        1449           23704.00       103652.24      
1053.52        2967.25        1452           23775.00       103963.68      
1053.59        2967.50        1456           23821.00       104165.46      
1053.65        2967.75        1459           23689.00       103586.44      
1053.72        2968.00        1462           23526.00       102871.48      
1053.78        2968.25        1466           22666.00       99099.77       
1053.85        2968.50        1469           21714.00       94925.56       
1053.91        2968.75        1472           20674.00       90366.71       
1053.98        2969.00        1476           19032.00       83171.52       
1054.05        2969.25        1479           17972.00       78528.29       
1054.11        2969.50        1482           16981.00       74188.47       
1054.18        2969.75        1486           15693.00       68549.72       
1054.26        2970.00        1489           14659.00       64024.34       
1054.31        2970.25        1492           13482.00       58874.60       
1054.38        2970.50        1496           12144.00       53022.37       
1054.44        2970.75        1499           11018.00       48099.00       
1054.51        2971.00        1502           9801.00        42779.37       
1054.57        2971.25        1506           8218.00        35862.45       
1054.64        2971.50        1509           7157.00        31228.02       
1054.71        2971.75        1513           5718.00        24944.55       
1054.77        2972.00        1516           4622.00        20160.40       
1054.84        2972.25        1519           3661.00        15966.67       
1054.90        2972.50        1523           2303.00        10042.26       
1054.97        2972.75        1526           1284.00        5598.15        
1055.03        2973.00        1529           553.00         2410.81        
1055.10        2973.25        1533           294.00         1281.65        
1055.17        2973.50        1536           231.00         1007.01        
1055.23        2973.75        1539           200.00         871.86         
1055.30        2974.00        1543           167.00         728.00         
1055.36        2974.25        1546           132.00         575.42         
1055.43        2974.50        1549           103.00         449.00         
1055.50        2974.75        1553           75.00          326.94         
1055.56        2975.00        1556           51.00          222.32         
1055.63        2975.25        1559           47.00          204.88         
1055.69        2975.50        1563           51.00          222.32         
1055.76        2975.75        1566           45.00          196.17         
1055.82        2976.00        1569           51.00          222.32         
1055.89        2976.25        1573           45.00          196.17         
1055.96        2976.50        1576           41.00          178.73         
1056.02        2976.75        1579           44.00          191.81         
1056.09        2977.00        1583           42.00          183.09         
1056.15        2977.25        1586           48.00          209.24         
1056.22        2977.50        1590           50.00          217.96         
1056.28        2977.75        1593           49.00          213.60         
1056.35        2978.00        1596           39.00          170.01         
1056.42        2978.25        1600           47.00          204.88         
1056.48        2978.50        1603           44.00          191.81         
1056.55        2978.75        1606           43.00          187.45         
1056.61        2979.00        1610           47.00          204.88         
1056.68        2979.25        1613           34.00          148.21         
1056.74        2979.50        1616           39.00          170.01         
1056.81        2979.75        1620           41.00          178.73         
1056.88        2980.00        1623           43.00          187.45         
1056.94        2980.25        1626           46.00          200.52         
1057.01        2980.50        1630           43.00          187.45         
1057.07        2980.75        1633           54.00          235.40         
1057.14        2981.00        1637           46.00          200.52         
1057.20        2981.25        1640           48.00          209.24         
1057.27        2981.50        1643           45.00          196.17         
1057.34        2981.75        1647           49.00          213.60         
1057.40        2982.00        1650           45.00          196.17         
1057.47        2982.25        1653           46.00          200.52         
1057.54        2982.50        1657           47.00          204.88         
1057.60        2982.75        1660           42.00          183.09         
1057.67        2983.00        1663           46.00          200.52         
1057.73        2983.25        1667           42.00          183.09         
1057.80        2983.50        1670           41.00          178.73         
1057.86        2983.75        1673           40.00          174.37         
1057.93        2984.00        1677           49.00          213.60         
HS scan finished at 17:38:04
end
