************************************************************
  HS Scan of (1) Internal mercury lamp
************************************************************
Integration time is 0.2294 seconds per sample
dh081117Manchester 53.47 2.23 2.750537pr1000
************************************************************
Dead Time -------------------------  3E-08 
Number of Cycles Used -------------  4 
Starting Wavelength (Angstroms) ---  2950 
Final Wavelength (Angstoms) -------  2984 
Wavelength Increment (Angstroms) --  .25 
Filter Wheel #1 Position ---------- (1) Ground quartz diffuser (ND=2.32)
Filter Wheel #2 Position ---------- (1) Neutral Density 0.494



************************************************************
HS scan start time = 04:32:47
Dark Count =  6 


Time (GMT)  Wavelength (Ang)  Step Number  Raw Counts  Counts/Second

  273.16        2950.00           1222          69.00       274.63
  273.23        2950.25           1226          69.00       274.63
  273.26        2950.50           1229          75.00       300.79
  273.29        2950.75           1232          64.00       252.84
  273.32        2951.00           1236          67.00       265.91
  273.35        2951.25           1239          69.00       274.63
  273.38        2951.50           1242          67.00       265.91
  273.41        2951.75           1246          66.00       261.55
  273.44        2952.00           1249          68.00       270.27
  273.47        2952.25           1252          65.00       257.19
  273.50        2952.50           1256          60.00       235.40
  273.53        2952.75           1259          67.00       265.91
  273.57        2953.00           1262          66.00       261.55
  273.60        2953.25           1266          67.00       265.91
  273.63        2953.50           1269          62.00       244.12
  273.66        2953.75           1272          70.00       278.99
  273.69        2954.00           1276          73.00       292.07
  273.72        2954.25           1279          70.00       278.99
  273.75        2954.50           1282          70.00       278.99
  273.78        2954.75           1286          70.00       278.99
  273.81        2955.00           1289          75.00       300.79
  273.84        2955.25           1292          62.00       244.12
  273.87        2955.50           1296          65.00       257.19
  273.90        2955.75           1299          74.00       296.43
  273.94        2956.00           1302          59.00       231.04
  273.97        2956.25           1306          66.00       261.55
  274.00        2956.50           1309          69.00       274.63
  274.03        2956.75           1312          66.00       261.55
  274.06        2957.00           1316          60.00       235.40
  274.09        2957.25           1319          68.00       270.27
  274.12        2957.50           1322          63.00       248.48
  274.15        2957.75           1326          62.00       244.12
  274.18        2958.00           1329          68.00       270.27
  274.21        2958.25           1332          60.00       235.40
  274.24        2958.50           1336          70.00       278.99
  274.27        2958.75           1339          64.00       252.84
  274.31        2959.00           1342          60.00       235.40
  274.34        2959.25           1346          76.00       305.15
  274.37        2959.50           1349          66.00       261.55
  274.40        2959.75           1352          80.00       322.58
  274.43        2960.00           1356         104.00       427.21
  274.46        2960.25           1359         143.00       597.22
  274.49        2960.50           1362         172.00       723.64
  274.52        2960.75           1366         223.00       945.97
  274.55        2961.00           1369         271.00      1155.23
  274.58        2961.25           1372         319.00      1364.48
  274.61        2961.50           1376         379.00      1626.06
  274.64        2961.75           1379         584.00      2519.81
  274.67        2962.00           1382        1160.00      5031.27
  274.71        2962.25           1386        2912.00     12672.65
  274.74        2962.50           1389        4383.00     19091.14
  274.77        2962.75           1392        5799.00     25271.99
  274.80        2963.00           1396        7740.00     33748.19
  274.83        2963.25           1399        9239.00     40297.16
  274.86        2963.50           1402       10795.00     47097.89
  274.89        2963.75           1406       12751.00     55650.82
  274.92        2964.00           1409       14368.00     62724.72
  274.95        2964.25           1412       16008.00     69902.33
  274.98        2964.50           1416       18358.00     80192.69
  275.02        2964.75           1419       19798.00     86501.43
  275.05        2965.00           1422       21256.00     92891.47
  275.08        2965.25           1426       23513.00    102788.10
  275.11        2965.50           1429       25084.00    109680.30
  275.14        2965.75           1432       26656.00    116579.60
  275.17        2966.00           1436       28755.00    125796.40
  275.20        2966.25           1439       30295.00    132561.90
  275.23        2966.50           1442       31581.00    138213.60
  275.26        2966.75           1446       32765.00    143418.70
  275.30        2967.00           1449       33226.00    145445.80
  275.33        2967.25           1452       33427.00    146329.70
  275.36        2967.50           1456       33402.00    146219.80
  275.39        2967.75           1459       33049.00    144667.50
  275.42        2968.00           1462       32968.00    144311.30
  275.45        2968.25           1466       31887.00    139558.70
  275.48        2968.50           1469       30505.00    133484.70
  275.51        2968.75           1472       29212.00    127803.80
  275.54        2969.00           1476       27300.00    119406.90
  275.57        2969.25           1479       25787.00    112765.30
  275.61        2969.50           1482       24505.00    107139.80
  275.64        2969.75           1486       22256.00     97275.62
  275.67        2970.00           1489       20804.00     90910.21
  275.70        2970.25           1492       19397.00     84744.39
  275.73        2970.50           1496       17454.00     76233.44
  275.76        2970.75           1499       15913.00     69486.47
  275.79        2971.00           1502       14329.00     62554.08
  275.82        2971.25           1506       12088.00     52751.25
  275.85        2971.50           1509       10459.00     45629.12
  275.88        2971.75           1513        8472.00     36945.90
  275.91        2972.00           1516        6980.00     30428.81
  275.95        2972.25           1519        5574.00     24289.71
  275.98        2972.50           1523        3613.00     15731.05
  276.01        2972.75           1526        2244.00      9758.74
  276.04        2973.00           1529        1005.00      4355.41
  276.07        2973.25           1533         454.00      1953.04
  276.10        2973.50           1536         322.00      1377.56
  276.13        2973.75           1539         265.00      1129.07
  276.16        2974.00           1543         231.00       980.85
  276.19        2974.25           1546         168.00       706.21
  276.22        2974.50           1549         134.00       557.99
  276.25        2974.75           1553          97.00       396.69
  276.28        2975.00           1556          77.00       309.51
  276.32        2975.25           1559          70.00       278.99
  276.35        2975.50           1563          67.00       265.91
  276.38        2975.75           1566          62.00       244.12
  276.41        2976.00           1569          64.00       252.84
  276.44        2976.25           1573          66.00       261.55
  276.47        2976.50           1576          67.00       265.91
  276.50        2976.75           1579          58.00       226.68
  276.53        2977.00           1583          60.00       235.40
  276.56        2977.25           1586          64.00       252.84
  276.59        2977.50           1590          60.00       235.40
  276.62        2977.75           1593          70.00       278.99
  276.66        2978.00           1596          61.00       239.76
  276.69        2978.25           1600          57.00       222.32
  276.72        2978.50           1603          54.00       209.24
  276.75        2978.75           1606          65.00       257.19
  276.78        2979.00           1610          57.00       222.32
  276.81        2979.25           1613          56.00       217.96
  276.84        2979.50           1616          72.00       287.71
  276.87        2979.75           1620          67.00       265.91
  276.90        2980.00           1623          57.00       222.32
  276.93        2980.25           1626          53.00       204.88
  276.96        2980.50           1630          53.00       204.88
  276.99        2980.75           1633          63.00       248.48
  277.02        2981.00           1637          60.00       235.40
  277.05        2981.25           1640          61.00       239.76
  277.08        2981.50           1643          54.00       209.24
  277.12        2981.75           1647          62.00       244.12
  277.15        2982.00           1650          58.00       226.68
  277.18        2982.25           1653          58.00       226.68
  277.21        2982.50           1657          66.00       261.55
  277.24        2982.75           1660          59.00       231.04
  277.27        2983.00           1663          60.00       235.40
  277.30        2983.25           1667          57.00       222.32
  277.33        2983.50           1670          58.00       226.68
  277.36        2983.75           1673          67.00       265.91
  277.39        2984.00           1677          58.00       226.68
HS scan finished at 04:37:37
end
************************************************************
  HS Scan of (1) Internal mercury lamp
************************************************************
Integration time is 0.2294 seconds per sample
dh081117Manchester 53.47 2.23 2.804185pr1000
************************************************************
Dead Time -------------------------  3E-08 
Number of Cycles Used -------------  4 
Starting Wavelength (Angstroms) ---  2950 
Final Wavelength (Angstoms) -------  2984 
Wavelength Increment (Angstroms) --  .25 
Filter Wheel #1 Position ---------- (1) Ground quartz diffuser (ND=2.32)
Filter Wheel #2 Position ---------- (1) Neutral Density 0.494



************************************************************
HS scan start time = 17:12:01
Dark Count =  5.2 


Time (GMT)  Wavelength (Ang)  Step Number  Raw Counts  Counts/Second

 1032.39        2950.00           1222          61.00       243.25
 1032.45        2950.25           1226          62.00       247.60
 1032.48        2950.50           1229          68.00       273.76
 1032.52        2950.75           1232          66.00       265.04
 1032.55        2951.00           1236          64.00       256.32
 1032.58        2951.25           1239          60.00       238.89
 1032.61        2951.50           1242          66.00       265.04
 1032.64        2951.75           1246          62.00       247.60
 1032.67        2952.00           1249          66.00       265.04
 1032.70        2952.25           1252          65.00       260.68
 1032.73        2952.50           1256          64.00       256.32
 1032.76        2952.75           1259          65.00       260.68
 1032.79        2953.00           1262          71.00       286.84
 1032.82        2953.25           1266          64.00       256.32
 1032.85        2953.50           1269          69.00       278.12
 1032.88        2953.75           1272          72.00       291.20
 1032.92        2954.00           1276          65.00       260.68
 1032.95        2954.25           1279          69.00       278.12
 1032.98        2954.50           1282          67.00       269.40
 1033.01        2954.75           1286          70.00       282.48
 1033.04        2955.00           1289          67.00       269.40
 1033.07        2955.25           1292          67.00       269.40
 1033.10        2955.50           1296          68.00       273.76
 1033.13        2955.75           1299          67.00       269.40
 1033.16        2956.00           1302          70.00       282.48
 1033.19        2956.25           1306          64.00       256.32
 1033.22        2956.50           1309          65.00       260.68
 1033.25        2956.75           1312          66.00       265.04
 1033.28        2957.00           1316          67.00       269.40
 1033.31        2957.25           1319          64.00       256.32
 1033.34        2957.50           1322          59.00       234.53
 1033.38        2957.75           1326          75.00       304.27
 1033.41        2958.00           1329          68.00       273.76
 1033.44        2958.25           1332          66.00       265.04
 1033.47        2958.50           1336          58.00       230.17
 1033.50        2958.75           1339          62.00       247.60
 1033.53        2959.00           1342          66.00       265.04
 1033.56        2959.25           1346          66.00       265.04
 1033.59        2959.50           1349          76.00       308.63
 1033.62        2959.75           1352          91.00       374.02
 1033.65        2960.00           1356         124.00       517.88
 1033.68        2960.25           1359         137.00       574.55
 1033.71        2960.50           1362         176.00       744.57
 1033.75        2960.75           1366         236.00      1006.13
 1033.78        2961.00           1369         275.00      1176.15
 1033.81        2961.25           1372         313.00      1341.82
 1033.84        2961.50           1376         409.00      1760.34
 1033.87        2961.75           1379         587.00      2536.37
 1033.90        2962.00           1382        1228.00      5331.28
 1033.93        2962.25           1386        2941.00     12802.65
 1033.96        2962.50           1389        4464.00     19448.14
 1033.99        2962.75           1392        5863.00     25554.90
 1034.02        2963.00           1396        7836.00     34171.02
 1034.06        2963.25           1399        9328.00     40689.57
 1034.09        2963.50           1402       10833.00     47267.51
 1034.12        2963.75           1406       12977.00     56642.82
 1034.15        2964.00           1409       14622.00     63839.67
 1034.18        2964.25           1412       16153.00     70540.58
 1034.21        2964.50           1416       18253.00     79736.28
 1034.24        2964.75           1419       19775.00     86404.16
 1034.27        2965.00           1422       21365.00     93372.79
 1034.30        2965.25           1426       23543.00    102923.30
 1034.33        2965.50           1429       25155.00    109995.30
 1034.36        2965.75           1432       26842.00    117399.70
 1034.40        2966.00           1436       28769.00    125861.40
 1034.43        2966.25           1439       30210.00    132191.90
 1034.46        2966.50           1442       31517.00    137935.80
 1034.49        2966.75           1446       32686.00    143074.90
 1034.52        2967.00           1449       32981.00    144372.00
 1034.55        2967.25           1452       33097.00    144882.10
 1034.58        2967.50           1456       33166.00    145185.50
 1034.61        2967.75           1459       33149.00    145110.70
 1034.64        2968.00           1462       32836.00    143734.40
 1034.67        2968.25           1466       31746.00    138942.40
 1034.70        2968.50           1469       30211.00    132196.30
 1034.73        2968.75           1472       28861.00    126265.50
 1034.77        2969.00           1476       27141.00    118712.40
 1034.80        2969.25           1479       25754.00    112624.00
 1034.83        2969.50           1482       24091.00    105327.10
 1034.86        2969.75           1486       22172.00     96910.82
 1034.89        2970.00           1489       20760.00     90720.87
 1034.92        2970.25           1492       19327.00     84441.19
 1034.95        2970.50           1496       17153.00     74918.85
 1034.98        2970.75           1499       15557.00     67931.68
 1035.01        2971.00           1502       14079.00     61463.71
 1035.04        2971.25           1506       11918.00     52011.35
 1035.07        2971.50           1509       10325.00     45046.89
 1035.11        2971.75           1513        8335.00     36350.87
 1035.14        2972.00           1516        6937.00     30244.52
 1035.17        2972.25           1519        5441.00     23712.59
 1035.20        2972.50           1523        3476.00     15136.78
 1035.23        2972.75           1526        2094.00      9107.98
 1035.26        2973.00           1529         909.00      3940.31
 1035.29        2973.25           1533         427.00      1838.81
 1035.32        2973.50           1536         310.00      1328.74
 1035.35        2973.75           1539         260.00      1110.76
 1035.39        2974.00           1543         221.00       940.74
 1035.42        2974.25           1546         158.00       666.10
 1035.45        2974.50           1549         139.00       583.27
 1035.48        2974.75           1553          84.00       343.51
 1035.51        2975.00           1556          76.00       308.63
 1035.54        2975.25           1559          68.00       273.76
 1035.57        2975.50           1563          62.00       247.60
 1035.60        2975.75           1566          64.00       256.32
 1035.63        2976.00           1569          63.00       251.96
 1035.66        2976.25           1573          62.00       247.60
 1035.70        2976.50           1576          65.00       260.68
 1035.73        2976.75           1579          60.00       238.89
 1035.76        2977.00           1583          67.00       269.40
 1035.79        2977.25           1586          60.00       238.89
 1035.82        2977.50           1590          62.00       247.60
 1035.85        2977.75           1593          66.00       265.04
 1035.88        2978.00           1596          60.00       238.89
 1035.91        2978.25           1600          63.00       251.96
 1035.94        2978.50           1603          59.00       234.53
 1035.97        2978.75           1606          70.00       282.48
 1036.00        2979.00           1610          60.00       238.89
 1036.03        2979.25           1613          62.00       247.60
 1036.07        2979.50           1616          62.00       247.60
 1036.10        2979.75           1620          79.00       321.71
 1036.13        2980.00           1623          58.00       230.17
 1036.16        2980.25           1626          65.00       260.68
 1036.19        2980.50           1630          60.00       238.89
 1036.22        2980.75           1633          67.00       269.40
 1036.25        2981.00           1637          61.00       243.25
 1036.28        2981.25           1640          64.00       256.32
 1036.31        2981.50           1643          61.00       243.25
 1036.34        2981.75           1647          59.00       234.53
 1036.37        2982.00           1650          62.00       247.60
 1036.40        2982.25           1653          55.00       217.09
 1036.43        2982.50           1657          57.00       225.81
 1036.46        2982.75           1660          51.00       199.65
 1036.49        2983.00           1663          57.00       225.81
 1036.52        2983.25           1667          66.00       265.04
 1036.55        2983.50           1670          57.00       225.81
 1036.58        2983.75           1673          55.00       217.09
 1036.62        2984.00           1677          57.00       225.81
HS scan finished at 17:16:50
end
