************************************************************
  HS Scan of (1) Internal mercury lamp
************************************************************
Integration time is 0.2294 seconds per sample
dh091118Manchester 53.47 2.23 2.804185pr1000
************************************************************
Dead Time -------------------------  3E-08 
Number of Cycles Used -------------  4 
Starting Wavelength (Angstroms) ---  2950 
Final Wavelength (Angstoms) -------  2984 
Wavelength Increment (Angstroms) --  .25 
Filter Wheel #1 Position ---------- (1) Ground quartz diffuser (ND=2.32)
Filter Wheel #2 Position ---------- (1) Neutral Density 0.494



************************************************************
HS scan start time = 04:34:04
Dark Count =  6.1 


Time (GMT)  Wavelength (Ang)  Step Number  Raw Counts  Counts/Second

  274.43        2950.00           1222          49.00       187.01
  274.50        2950.25           1226          41.00       152.14
  274.53        2950.50           1229          47.00       178.29
  274.56        2950.75           1232          48.00       182.65
  274.59        2951.00           1236          42.00       156.50
  274.62        2951.25           1239          48.00       182.65
  274.65        2951.50           1242          52.00       200.09
  274.68        2951.75           1246          63.00       248.04
  274.72        2952.00           1249          49.00       187.01
  274.75        2952.25           1252          48.00       182.65
  274.78        2952.50           1256          53.00       204.45
  274.81        2952.75           1259          44.00       165.21
  274.84        2953.00           1262          46.00       173.93
  274.87        2953.25           1266          46.00       173.93
  274.90        2953.50           1269          53.00       204.45
  274.93        2953.75           1272          50.00       191.37
  274.96        2954.00           1276          56.00       217.53
  274.99        2954.25           1279          47.00       178.29
  275.02        2954.50           1282          50.00       191.37
  275.05        2954.75           1286          44.00       165.21
  275.09        2955.00           1289          46.00       173.93
  275.12        2955.25           1292          49.00       187.01
  275.15        2955.50           1296          52.00       200.09
  275.18        2955.75           1299          49.00       187.01
  275.21        2956.00           1302          48.00       182.65
  275.24        2956.25           1306          49.00       187.01
  275.27        2956.50           1309          47.00       178.29
  275.30        2956.75           1312          46.00       173.93
  275.33        2957.00           1316          47.00       178.29
  275.37        2957.25           1319          46.00       173.93
  275.40        2957.50           1322          54.00       208.81
  275.43        2957.75           1326          47.00       178.29
  275.46        2958.00           1329          46.00       173.93
  275.49        2958.25           1332          50.00       191.37
  275.52        2958.50           1336          44.00       165.21
  275.55        2958.75           1339          54.00       208.81
  275.58        2959.00           1342          50.00       191.37
  275.61        2959.25           1346          48.00       182.65
  275.64        2959.50           1349          61.00       239.32
  275.67        2959.75           1352          64.00       252.40
  275.70        2960.00           1356          84.00       339.59
  275.73        2960.25           1359         105.00       431.13
  275.76        2960.50           1362         126.00       522.68
  275.80        2960.75           1366         182.00       766.80
  275.83        2961.00           1369         202.00       853.99
  275.86        2961.25           1372         233.00       989.13
  275.89        2961.50           1376         287.00      1224.54
  275.92        2961.75           1379         372.00      1595.11
  275.95        2962.00           1382         733.00      3169.00
  275.98        2962.25           1386        1799.00      7817.44
  276.01        2962.50           1389        2974.00     12942.69
  276.04        2962.75           1392        4068.00     17716.04
  276.07        2963.00           1396        5619.00     24485.72
  276.10        2963.25           1399        6769.00     29506.93
  276.14        2963.50           1402        7858.00     34263.19
  276.17        2963.75           1406        9374.00     40886.65
  276.20        2964.00           1409       10586.00     46183.83
  276.23        2964.25           1412       11828.00     51613.86
  276.26        2964.50           1416       13235.00     57767.42
  276.29        2964.75           1419       14393.00     62833.68
  276.32        2965.00           1422       15563.00     67954.00
  276.35        2965.25           1426       17086.00     74621.53
  276.38        2965.50           1429       18139.00     79233.02
  276.41        2965.75           1432       19415.00     84822.82
  276.45        2966.00           1436       21007.00     91799.56
  276.48        2966.25           1439       22036.00     96310.56
  276.51        2966.50           1442       23138.00    101143.00
  276.54        2966.75           1446       24288.00    106187.40
  276.57        2967.00           1449       24448.00    106889.30
  276.60        2967.25           1452       24573.00    107437.70
  276.63        2967.50           1456       24582.00    107477.20
  276.66        2967.75           1459       24562.00    107389.50
  276.69        2968.00           1462       24471.00    106990.20
  276.73        2968.25           1466       23963.00    104761.60
  276.76        2968.50           1469       22965.00    100384.30
  276.79        2968.75           1472       21954.00     95951.05
  276.82        2969.00           1476       20487.00     89520.39
  276.85        2969.25           1479       19309.00     84358.38
  276.88        2969.50           1482       18219.00     79583.43
  276.91        2969.75           1486       16621.00     72585.53
  276.94        2970.00           1489       15542.00     67862.08
  276.97        2970.25           1492       14446.00     63065.60
  277.01        2970.50           1496       13084.00     57106.91
  277.04        2970.75           1499       11916.00     51998.67
  277.07        2971.00           1502       10911.00     47604.56
  277.10        2971.25           1506        9468.00     41297.43
  277.13        2971.50           1509        8271.00     36067.35
  277.16        2971.75           1513        6639.00     28939.24
  277.19        2972.00           1516        5525.00     24075.36
  277.22        2972.25           1519        4419.00     19247.82
  277.25        2972.50           1523        3005.00     13077.93
  277.28        2972.75           1526        1890.00      8214.32
  277.32        2973.00           1529         944.00      4088.99
  277.35        2973.25           1533         383.00      1643.06
  277.38        2973.50           1536         251.00      1067.60
  277.41        2973.75           1539         213.00       901.94
  277.44        2974.00           1543         183.00       771.16
  277.47        2974.25           1546         121.00       500.88
  277.50        2974.50           1549         101.00       413.69
  277.53        2974.75           1553          61.00       239.32
  277.56        2975.00           1556          60.00       234.96
  277.59        2975.25           1559          54.00       208.81
  277.63        2975.50           1563          48.00       182.65
  277.66        2975.75           1566          46.00       173.93
  277.69        2976.00           1569          43.00       160.86
  277.72        2976.25           1573          49.00       187.01
  277.75        2976.50           1576          50.00       191.37
  277.78        2976.75           1579          50.00       191.37
  277.81        2977.00           1583          47.00       178.29
  277.84        2977.25           1586          42.00       156.50
  277.87        2977.50           1590          40.00       147.78
  277.90        2977.75           1593          48.00       182.65
  277.94        2978.00           1596          53.00       204.45
  277.97        2978.25           1600          50.00       191.37
  278.00        2978.50           1603          46.00       173.93
  278.03        2978.75           1606          40.00       147.78
  278.06        2979.00           1610          48.00       182.65
  278.09        2979.25           1613          48.00       182.65
  278.12        2979.50           1616          48.00       182.65
  278.15        2979.75           1620          43.00       160.86
  278.18        2980.00           1623          47.00       178.29
  278.21        2980.25           1626          49.00       187.01
  278.24        2980.50           1630          46.00       173.93
  278.27        2980.75           1633          52.00       200.09
  278.30        2981.00           1637          42.00       156.50
  278.33        2981.25           1640          51.00       195.73
  278.36        2981.50           1643          44.00       165.21
  278.39        2981.75           1647          47.00       178.29
  278.43        2982.00           1650          46.00       173.93
  278.46        2982.25           1653          42.00       156.50
  278.49        2982.50           1657          37.00       134.70
  278.52        2982.75           1660          51.00       195.73
  278.55        2983.00           1663          48.00       182.65
  278.58        2983.25           1667          40.00       147.78
  278.61        2983.50           1670          47.00       178.29
  278.64        2983.75           1673          53.00       204.45
  278.67        2984.00           1677          40.00       147.78
HS scan finished at 04:38:53
end
************************************************************
  HS Scan of (1) Internal mercury lamp
************************************************************
Integration time is 0.2294 seconds per sample
dh091118Manchester 53.47 2.23 2.804185pr1000
************************************************************
Dead Time -------------------------  3E-08 
Number of Cycles Used -------------  4 
Starting Wavelength (Angstroms) ---  2950 
Final Wavelength (Angstoms) -------  2984 
Wavelength Increment (Angstroms) --  .25 
Filter Wheel #1 Position ---------- (1) Ground quartz diffuser (ND=2.32)
Filter Wheel #2 Position ---------- (1) Neutral Density 0.494



************************************************************
HS scan start time = 17:11:59
Dark Count =  7.5 


Time (GMT)  Wavelength (Ang)  Step Number  Raw Counts  Counts/Second

 1032.35        2950.00           1222          53.00       198.34
 1032.41        2950.25           1226          47.00       172.19
 1032.45        2950.50           1229          45.00       163.47
 1032.48        2950.75           1232          49.00       180.91
 1032.51        2951.00           1236          49.00       180.91
 1032.54        2951.25           1239          49.00       180.91
 1032.57        2951.50           1242          47.00       172.19
 1032.60        2951.75           1246          48.00       176.55
 1032.63        2952.00           1249          42.00       150.39
 1032.66        2952.25           1252          53.00       198.34
 1032.69        2952.50           1256          48.00       176.55
 1032.73        2952.75           1259          51.00       189.63
 1032.76        2953.00           1262          54.00       202.70
 1032.79        2953.25           1266          44.00       159.11
 1032.82        2953.50           1269          51.00       189.63
 1032.85        2953.75           1272          54.00       202.70
 1032.88        2954.00           1276          49.00       180.91
 1032.91        2954.25           1279          49.00       180.91
 1032.94        2954.50           1282          43.00       154.75
 1032.97        2954.75           1286          51.00       189.63
 1033.00        2955.00           1289          54.00       202.70
 1033.03        2955.25           1292          48.00       176.55
 1033.06        2955.50           1296          57.00       215.78
 1033.09        2955.75           1299          51.00       189.63
 1033.12        2956.00           1302          56.00       211.42
 1033.15        2956.25           1306          46.00       167.83
 1033.19        2956.50           1309          45.00       163.47
 1033.22        2956.75           1312          47.00       172.19
 1033.25        2957.00           1316          48.00       176.55
 1033.28        2957.25           1319          47.00       172.19
 1033.31        2957.50           1322          42.00       150.39
 1033.34        2957.75           1326          51.00       189.63
 1033.37        2958.00           1329          50.00       185.27
 1033.40        2958.25           1332          52.00       193.99
 1033.43        2958.50           1336          53.00       198.34
 1033.46        2958.75           1339          44.00       159.11
 1033.49        2959.00           1342          50.00       185.27
 1033.53        2959.25           1346          54.00       202.70
 1033.56        2959.50           1349          57.00       215.78
 1033.59        2959.75           1352          65.00       250.66
 1033.62        2960.00           1356          77.00       302.97
 1033.65        2960.25           1359          97.00       390.15
 1033.68        2960.50           1362         120.00       490.42
 1033.71        2960.75           1366         156.00       647.35
 1033.74        2961.00           1369         196.00       821.73
 1033.77        2961.25           1372         226.00       952.51
 1033.80        2961.50           1376         301.00      1279.47
 1033.83        2961.75           1379         445.00      1907.26
 1033.87        2962.00           1382        1007.00      4357.59
 1033.90        2962.25           1386        2333.00     10140.40
 1033.93        2962.50           1389        3462.00     15065.66
 1033.96        2962.75           1392        4469.00     19459.92
 1033.99        2963.00           1396        5968.00     26003.28
 1034.02        2963.25           1399        6978.00     30413.53
 1034.05        2963.50           1402        8137.00     35475.84
 1034.08        2963.75           1406        9708.00     42340.15
 1034.11        2964.00           1409       10875.00     47441.06
 1034.14        2964.25           1412       12151.00     53020.19
 1034.18        2964.50           1416       13691.00     59756.12
 1034.21        2964.75           1419       14773.00     64490.39
 1034.24        2965.00           1422       15919.00     69506.16
 1034.27        2965.25           1426       17375.00     75880.91
 1034.30        2965.50           1429       18390.00     80326.30
 1034.33        2965.75           1432       19645.00     85824.44
 1034.36        2966.00           1436       20971.00     91635.62
 1034.39        2966.25           1439       22004.00     96164.12
 1034.42        2966.50           1442       23118.00    101049.10
 1034.45        2966.75           1446       24348.00    106444.40
 1034.49        2967.00           1449       24533.00    107256.10
 1034.52        2967.25           1452       24580.00    107462.30
 1034.55        2967.50           1456       24632.00    107690.40
 1034.58        2967.75           1459       24515.00    107177.10
 1034.61        2968.00           1462       24410.00    106716.40
 1034.64        2968.25           1466       23605.00    103185.10
 1034.67        2968.50           1469       22682.00     99137.04
 1034.70        2968.75           1472       21461.00     93783.55
 1034.73        2969.00           1476       20183.00     88181.97
 1034.76        2969.25           1479       19133.00     83581.16
 1034.79        2969.50           1482       17936.00     78337.78
 1034.83        2969.75           1486       16499.00     72045.26
 1034.86        2970.00           1489       15220.00     66446.63
 1034.89        2970.25           1492       14058.00     61361.76
 1034.92        2970.50           1496       12529.00     54673.30
 1034.95        2970.75           1499       11504.00     50191.04
 1034.98        2971.00           1502       10291.00     44888.22
 1035.01        2971.25           1506        8760.00     38197.63
 1035.04        2971.50           1509        7758.00     33820.26
 1035.07        2971.75           1513        6305.00     27474.69
 1035.11        2972.00           1516        5077.00     22113.62
 1035.14        2972.25           1519        3978.00     17317.19
 1035.17        2972.50           1523        2514.00     10929.91
 1035.20        2972.75           1526        1458.00      6324.22
 1035.23        2973.00           1529         679.00      2927.46
 1035.26        2973.25           1533         301.00      1279.47
 1035.29        2973.50           1536         237.00      1000.47
 1035.32        2973.75           1539         195.00       817.37
 1035.35        2974.00           1543         173.00       721.46
 1035.39        2974.25           1546         135.00       555.81
 1035.42        2974.50           1549         109.00       442.46
 1035.45        2974.75           1553          75.00       294.25
 1035.48        2975.00           1556          72.00       281.17
 1035.51        2975.25           1559          48.00       176.55
 1035.54        2975.50           1563          45.00       163.47
 1035.57        2975.75           1566          49.00       180.91
 1035.60        2976.00           1569          50.00       185.27
 1035.63        2976.25           1573          44.00       159.11
 1035.66        2976.50           1576          43.00       154.75
 1035.69        2976.75           1579          50.00       185.27
 1035.72        2977.00           1583          44.00       159.11
 1035.75        2977.25           1586          46.00       167.83
 1035.78        2977.50           1590          44.00       159.11
 1035.82        2977.75           1593          60.00       228.86
 1035.85        2978.00           1596          42.00       150.39
 1035.88        2978.25           1600          44.00       159.11
 1035.91        2978.50           1603          55.00       207.06
 1035.94        2978.75           1606          53.00       198.34
 1035.97        2979.00           1610          49.00       180.91
 1036.00        2979.25           1613          45.00       163.47
 1036.03        2979.50           1616          46.00       167.83
 1036.06        2979.75           1620          48.00       176.55
 1036.09        2980.00           1623          40.00       141.67
 1036.12        2980.25           1626          52.00       193.99
 1036.15        2980.50           1630          48.00       176.55
 1036.18        2980.75           1633          48.00       176.55
 1036.21        2981.00           1637          42.00       150.39
 1036.24        2981.25           1640          49.00       180.91
 1036.28        2981.50           1643          43.00       154.75
 1036.31        2981.75           1647          43.00       154.75
 1036.34        2982.00           1650          42.00       150.39
 1036.37        2982.25           1653          48.00       176.55
 1036.40        2982.50           1657          44.00       159.11
 1036.43        2982.75           1660          44.00       159.11
 1036.46        2983.00           1663          42.00       150.39
 1036.49        2983.25           1667          48.00       176.55
 1036.52        2983.50           1670          46.00       167.83
 1036.55        2983.75           1673          39.00       137.32
 1036.59        2984.00           1677          39.00       137.32
HS scan finished at 17:16:48
end
