************************************************************
  HS Scan of (1) Internal mercury lamp
************************************************************
Integration time is 0.2294 seconds per sample
dh091117Manchester 53.47 2.23 2.804185pr1000
************************************************************
Dead Time -------------------------  3E-08 
Number of Cycles Used -------------  4 
Starting Wavelength (Angstroms) ---  2950 
Final Wavelength (Angstoms) -------  2984 
Wavelength Increment (Angstroms) --  .25 
Filter Wheel #1 Position ---------- (1) Ground quartz diffuser (ND=2.32)
Filter Wheel #2 Position ---------- (1) Neutral Density 0.494



************************************************************
HS scan start time = 04:34:26
Dark Count =  7.4 


Time (GMT)  Wavelength (Ang)  Step Number  Raw Counts  Counts/Second

  274.81        2950.00           1222          66.00       255.45
  274.88        2950.25           1226          61.00       233.65
  274.91        2950.50           1229          68.00       264.17
  274.94        2950.75           1232          67.00       259.81
  274.97        2951.00           1236          70.00       272.89
  275.00        2951.25           1239          67.00       259.81
  275.03        2951.50           1242          59.00       224.94
  275.07        2951.75           1246          66.00       255.45
  275.11        2952.00           1249          66.00       255.45
  275.14        2952.25           1252          63.00       242.37
  275.17        2952.50           1256          63.00       242.37
  275.20        2952.75           1259          69.00       268.53
  275.23        2953.00           1262          64.00       246.73
  275.26        2953.25           1266          71.00       277.25
  275.29        2953.50           1269          62.00       238.01
  275.32        2953.75           1272          63.00       242.37
  275.35        2954.00           1276          67.00       259.81
  275.38        2954.25           1279          61.00       233.65
  275.41        2954.50           1282          58.00       220.58
  275.44        2954.75           1286          69.00       268.53
  275.48        2955.00           1289          62.00       238.01
  275.51        2955.25           1292          59.00       224.94
  275.54        2955.50           1296          72.00       281.61
  275.57        2955.75           1299          66.00       255.45
  275.60        2956.00           1302          67.00       259.81
  275.63        2956.25           1306          66.00       255.45
  275.66        2956.50           1309          65.00       251.09
  275.69        2956.75           1312          66.00       255.45
  275.72        2957.00           1316          65.00       251.09
  275.75        2957.25           1319          71.00       277.25
  275.78        2957.50           1322          61.00       233.65
  275.82        2957.75           1326          72.00       281.61
  275.85        2958.00           1329          65.00       251.09
  275.88        2958.25           1332          64.00       246.73
  275.91        2958.50           1336          67.00       259.81
  275.94        2958.75           1339          69.00       268.53
  275.97        2959.00           1342          60.00       229.30
  276.00        2959.25           1346          78.00       307.76
  276.03        2959.50           1349          75.00       294.68
  276.06        2959.75           1352          86.00       342.64
  276.09        2960.00           1356         115.00       469.06
  276.12        2960.25           1359         157.00       652.15
  276.16        2960.50           1362         174.00       726.26
  276.19        2960.75           1366         246.00      1040.14
  276.22        2961.00           1369         266.00      1127.33
  276.25        2961.25           1372         311.00      1323.51
  276.28        2961.50           1376         397.00      1698.43
  276.31        2961.75           1379         549.00      2361.11
  276.34        2962.00           1382        1256.00      5443.78
  276.37        2962.25           1386        2893.00     12583.65
  276.40        2962.50           1389        4357.00     18971.56
  276.43        2962.75           1392        5853.00     25501.63
  276.46        2963.00           1396        7874.00     34327.40
  276.49        2963.25           1399        9426.00     41108.21
  276.52        2963.50           1402       10897.00     47537.67
  276.56        2963.75           1406       12868.00     56156.42
  276.59        2964.00           1409       14466.00     63147.42
  276.62        2964.25           1412       16122.00     70395.25
  276.65        2964.50           1416       18384.00     80300.46
  276.68        2964.75           1419       19875.00     86832.71
  276.71        2965.00           1422       21400.00     93516.57
  276.74        2965.25           1426       23532.00    102865.30
  276.77        2965.50           1429       24988.00    109252.90
  276.80        2965.75           1432       26483.00    115814.10
  276.83        2966.00           1436       28623.00    125210.50
  276.87        2966.25           1439       29925.00    130930.00
  276.90        2966.50           1442       31388.00    137359.10
  276.93        2966.75           1446       33011.00    144494.20
  276.96        2967.00           1449       33141.00    145065.90
  276.99        2967.25           1452       33441.00    146385.10
  277.02        2967.50           1456       33472.00    146521.50
  277.05        2967.75           1459       33320.00    145853.10
  277.08        2968.00           1462       33078.00    144788.90
  277.11        2968.25           1466       32104.00    140506.50
  277.15        2968.50           1469       30683.00    134260.70
  277.18        2968.75           1472       29199.00    127740.60
  277.21        2969.00           1476       27419.00    119923.30
  277.24        2969.25           1479       25761.00    112645.10
  277.27        2969.50           1482       24334.00    106383.50
  277.30        2969.75           1486       22377.00     97800.04
  277.33        2970.00           1489       20760.00     90711.21
  277.36        2970.25           1492       19284.00     84243.15
  277.39        2970.50           1496       17191.00     75075.61
  277.42        2970.75           1499       15747.00     68753.70
  277.46        2971.00           1502       13872.00     60548.42
  277.49        2971.25           1506       11992.00     52325.32
  277.52        2971.50           1509       10466.00     45653.59
  277.55        2971.75           1513        8505.00     37083.95
  277.58        2972.00           1516        6982.00     30431.43
  277.61        2972.25           1519        5508.00     23995.47
  277.64        2972.50           1523        3472.00     15109.73
  277.67        2972.75           1526        2094.00      9098.39
  277.70        2973.00           1529         925.00      4000.48
  277.73        2973.25           1533         421.00      1803.06
  277.76        2973.50           1536         317.00      1349.66
  277.79        2973.75           1539         265.00      1122.97
  277.83        2974.00           1543         227.00       957.31
  277.86        2974.25           1546         168.00       700.10
  277.89        2974.50           1549         136.00       560.60
  277.92        2974.75           1553         103.00       416.74
  277.95        2975.00           1556          81.00       320.84
  277.98        2975.25           1559          62.00       238.01
  278.01        2975.50           1563          63.00       242.37
  278.04        2975.75           1566          67.00       259.81
  278.07        2976.00           1569          64.00       246.73
  278.10        2976.25           1573          67.00       259.81
  278.13        2976.50           1576          60.00       229.30
  278.17        2976.75           1579          59.00       224.94
  278.20        2977.00           1583          65.00       251.09
  278.23        2977.25           1586          69.00       268.53
  278.26        2977.50           1590          66.00       255.45
  278.29        2977.75           1593          67.00       259.81
  278.32        2978.00           1596          59.00       224.94
  278.35        2978.25           1600          58.00       220.58
  278.38        2978.50           1603          61.00       233.65
  278.41        2978.75           1606          61.00       233.65
  278.44        2979.00           1610          61.00       233.65
  278.47        2979.25           1613          66.00       255.45
  278.50        2979.50           1616          55.00       207.50
  278.54        2979.75           1620          57.00       216.22
  278.57        2980.00           1623          67.00       259.81
  278.60        2980.25           1626          64.00       246.73
  278.63        2980.50           1630          66.00       255.45
  278.66        2980.75           1633          55.00       207.50
  278.69        2981.00           1637          51.00       190.06
  278.72        2981.25           1640          65.00       251.09
  278.75        2981.50           1643          61.00       233.65
  278.78        2981.75           1647          56.00       211.86
  278.81        2982.00           1650          58.00       220.58
  278.84        2982.25           1653          64.00       246.73
  278.87        2982.50           1657          54.00       203.14
  278.91        2982.75           1660          59.00       224.94
  278.94        2983.00           1663          59.00       224.94
  278.97        2983.25           1667          67.00       259.81
  279.00        2983.50           1670          61.00       233.65
  279.03        2983.75           1673          61.00       233.65
  279.06        2984.00           1677          58.00       220.58
HS scan finished at 04:39:16
end
************************************************************
  HS Scan of (1) Internal mercury lamp
************************************************************
Integration time is 0.2294 seconds per sample
dh091117Manchester 53.47 2.23 2.804185pr1000
************************************************************
Dead Time -------------------------  3E-08 
Number of Cycles Used -------------  4 
Starting Wavelength (Angstroms) ---  2950 
Final Wavelength (Angstoms) -------  2984 
Wavelength Increment (Angstroms) --  .25 
Filter Wheel #1 Position ---------- (1) Ground quartz diffuser (ND=2.32)
Filter Wheel #2 Position ---------- (1) Neutral Density 0.494



************************************************************
HS scan start time = 17:12:02
Dark Count =  7.5 


Time (GMT)  Wavelength (Ang)  Step Number  Raw Counts  Counts/Second

 1032.40        2950.00           1222          65.00       250.66
 1032.46        2950.25           1226          64.00       246.30
 1032.49        2950.50           1229          62.00       237.58
 1032.52        2950.75           1232          62.00       237.58
 1032.55        2951.00           1236          61.00       233.22
 1032.58        2951.25           1239          71.00       276.81
 1032.62        2951.50           1242          61.00       233.22
 1032.65        2951.75           1246          66.00       255.02
 1032.68        2952.00           1249          64.00       246.30
 1032.71        2952.25           1252          62.00       237.58
 1032.74        2952.50           1256          63.00       241.94
 1032.77        2952.75           1259          68.00       263.73
 1032.80        2953.00           1262          59.00       224.50
 1032.83        2953.25           1266          69.00       268.09
 1032.86        2953.50           1269          59.00       224.50
 1032.89        2953.75           1272          63.00       241.94
 1032.92        2954.00           1276          61.00       233.22
 1032.95        2954.25           1279          66.00       255.02
 1032.98        2954.50           1282          63.00       241.94
 1033.01        2954.75           1286          68.00       263.73
 1033.04        2955.00           1289          64.00       246.30
 1033.07        2955.25           1292          66.00       255.02
 1033.10        2955.50           1296          68.00       263.73
 1033.14        2955.75           1299          68.00       263.73
 1033.17        2956.00           1302          68.00       263.73
 1033.20        2956.25           1306          56.00       211.42
 1033.23        2956.50           1309          67.00       259.37
 1033.26        2956.75           1312          76.00       298.61
 1033.29        2957.00           1316          59.00       224.50
 1033.32        2957.25           1319          65.00       250.66
 1033.35        2957.50           1322          67.00       259.37
 1033.38        2957.75           1326          72.00       281.17
 1033.41        2958.00           1329          69.00       268.09
 1033.45        2958.25           1332          72.00       281.17
 1033.48        2958.50           1336          68.00       263.73
 1033.51        2958.75           1339          71.00       276.81
 1033.54        2959.00           1342          68.00       263.73
 1033.57        2959.25           1346          73.00       285.53
 1033.60        2959.50           1349          62.00       237.58
 1033.63        2959.75           1352          85.00       337.84
 1033.66        2960.00           1356         115.00       468.62
 1033.69        2960.25           1359         163.00       677.87
 1033.72        2960.50           1362         179.00       747.62
 1033.75        2960.75           1366         226.00       952.51
 1033.78        2961.00           1369         278.00      1179.20
 1033.81        2961.25           1372         310.00      1318.71
 1033.84        2961.50           1376         403.00      1724.15
 1033.88        2961.75           1379         641.00      2761.78
 1033.91        2962.00           1382        1494.00      6481.21
 1033.94        2962.25           1386        3285.00     14293.40
 1033.97        2962.50           1389        4799.00     20900.20
 1034.00        2962.75           1392        6319.00     27535.82
 1034.03        2963.00           1396        8228.00     35873.38
 1034.06        2963.25           1399        9771.00     42615.48
 1034.09        2963.50           1402       11184.00     48791.95
 1034.12        2963.75           1406       13257.00     57857.53
 1034.15        2964.00           1409       14899.00     65041.78
 1034.19        2964.25           1412       16485.00     71983.97
 1034.22        2964.50           1416       18410.00     80413.90
 1034.25        2964.75           1419       20133.00     87962.86
 1034.28        2965.00           1422       21699.00     94826.93
 1034.31        2965.25           1426       23901.00    104483.50
 1034.34        2965.50           1429       25369.00    110924.30
 1034.37        2965.75           1432       26855.00    117446.70
 1034.40        2966.00           1436       28923.00    126527.80
 1034.43        2966.25           1439       30236.00    132296.10
 1034.47        2966.50           1442       31749.00    138945.50
 1034.50        2966.75           1446       32842.00    143750.70
 1034.53        2967.00           1449       33023.00    144546.60
 1034.56        2967.25           1452       33015.00    144511.40
 1034.59        2967.50           1456       33179.00    145232.60
 1034.62        2967.75           1459       33139.00    145056.60
 1034.65        2968.00           1462       32901.00    144010.10
 1034.68        2968.25           1466       31813.00    139226.80
 1034.71        2968.50           1469       30136.00    131856.70
 1034.75        2968.75           1472       28795.00    125965.50
 1034.78        2969.00           1476       26962.00    117916.40
 1034.81        2969.25           1479       25500.00    111499.20
 1034.84        2969.50           1482       23809.00    104079.90
 1034.87        2969.75           1486       21921.00     95800.22
 1034.90        2970.00           1489       20429.00     89260.06
 1034.93        2970.25           1492       18896.00     82542.85
 1034.96        2970.50           1496       16917.00     73875.41
 1034.99        2970.75           1499       15330.00     66928.06
 1035.02        2971.00           1502       13772.00     60110.48
 1035.05        2971.25           1506       11687.00     50991.20
 1035.09        2971.50           1509       10151.00     44276.30
 1035.12        2971.75           1513        8060.00     35139.47
 1035.15        2972.00           1516        6636.00     28920.02
 1035.18        2972.25           1519        5109.00     22253.30
 1035.21        2972.50           1523        3124.00     13590.98
 1035.24        2972.75           1526        1772.00      7693.58
 1035.27        2973.00           1529         759.00      3276.26
 1035.30        2973.25           1533         393.00      1680.56
 1035.33        2973.50           1536         301.00      1279.47
 1035.36        2973.75           1539         232.00       978.67
 1035.39        2974.00           1543         214.00       900.20
 1035.42        2974.25           1546         158.00       656.07
 1035.46        2974.50           1549         124.00       507.85
 1035.49        2974.75           1553          86.00       342.20
 1035.52        2975.00           1556          72.00       281.17
 1035.55        2975.25           1559          65.00       250.66
 1035.58        2975.50           1563          57.00       215.78
 1035.61        2975.75           1566          66.00       255.02
 1035.64        2976.00           1569          60.00       228.86
 1035.67        2976.25           1573          60.00       228.86
 1035.70        2976.50           1576          55.00       207.06
 1035.73        2976.75           1579          73.00       285.53
 1035.76        2977.00           1583          60.00       228.86
 1035.79        2977.25           1586          65.00       250.66
 1035.82        2977.50           1590          58.00       220.14
 1035.86        2977.75           1593          69.00       268.09
 1035.89        2978.00           1596          62.00       237.58
 1035.92        2978.25           1600          77.00       302.97
 1035.95        2978.50           1603          59.00       224.50
 1035.98        2978.75           1606          73.00       285.53
 1036.01        2979.00           1610          55.00       207.06
 1036.05        2979.25           1613          66.00       255.02
 1036.08        2979.50           1616          58.00       220.14
 1036.11        2979.75           1620          51.00       189.63
 1036.14        2980.00           1623          59.00       224.50
 1036.17        2980.25           1626          65.00       250.66
 1036.20        2980.50           1630          62.00       237.58
 1036.23        2980.75           1633          58.00       220.14
 1036.26        2981.00           1637          61.00       233.22
 1036.29        2981.25           1640          68.00       263.73
 1036.33        2981.50           1643          57.00       215.78
 1036.36        2981.75           1647          69.00       268.09
 1036.39        2982.00           1650          66.00       255.02
 1036.42        2982.25           1653          51.00       189.63
 1036.45        2982.50           1657          54.00       202.70
 1036.48        2982.75           1660          59.00       224.50
 1036.51        2983.00           1663          56.00       211.42
 1036.54        2983.25           1667          61.00       233.22
 1036.57        2983.50           1670          48.00       176.55
 1036.60        2983.75           1673          73.00       285.53
 1036.63        2984.00           1677          55.00       207.06
HS scan finished at 17:16:51
end
