************************************************************
  HS Scan of (1) Internal mercury lamp
************************************************************
Integration time is 0.2294 seconds per sample
dh101117Manchester 53.47 2.23 2.804185pr1000
************************************************************
Dead Time -------------------------  3E-08 
Number of Cycles Used -------------  4 
Starting Wavelength (Angstroms) ---  2950 
Final Wavelength (Angstoms) -------  2984 
Wavelength Increment (Angstroms) --  .25 
Filter Wheel #1 Position ---------- (1) Ground quartz diffuser (ND=2.32)
Filter Wheel #2 Position ---------- (1) Neutral Density 0.494



************************************************************
HS scan start time = 04:36:02
Dark Count =  4.9 


Time (GMT)  Wavelength (Ang)  Step Number  Raw Counts  Counts/Second

  276.40        2950.00           1222          75.00       305.58
  276.47        2950.25           1226          66.00       266.35
  276.50        2950.50           1229          73.00       296.86
  276.53        2950.75           1232          70.00       283.79
  276.56        2951.00           1236          60.00       240.19
  276.60        2951.25           1239          65.00       261.99
  276.63        2951.50           1242          72.00       292.50
  276.66        2951.75           1246          61.00       244.55
  276.69        2952.00           1249          73.00       296.86
  276.72        2952.25           1252          63.00       253.27
  276.75        2952.50           1256          69.00       279.43
  276.78        2952.75           1259          64.00       257.63
  276.81        2953.00           1262          69.00       279.43
  276.84        2953.25           1266          71.00       288.15
  276.87        2953.50           1269          78.00       318.66
  276.90        2953.75           1272          60.00       240.19
  276.93        2954.00           1276          79.00       323.02
  276.97        2954.25           1279          66.00       266.35
  277.00        2954.50           1282          65.00       261.99
  277.03        2954.75           1286          66.00       266.35
  277.06        2955.00           1289          67.00       270.71
  277.09        2955.25           1292          72.00       292.50
  277.12        2955.50           1296          64.00       257.63
  277.15        2955.75           1299          57.00       227.12
  277.18        2956.00           1302          63.00       253.27
  277.21        2956.25           1306          70.00       283.79
  277.24        2956.50           1309          64.00       257.63
  277.27        2956.75           1312          66.00       266.35
  277.30        2957.00           1316          68.00       275.07
  277.33        2957.25           1319          76.00       309.94
  277.36        2957.50           1322          65.00       261.99
  277.39        2957.75           1326          69.00       279.43
  277.42        2958.00           1329          65.00       261.99
  277.45        2958.25           1332          65.00       261.99
  277.48        2958.50           1336          59.00       235.83
  277.51        2958.75           1339          66.00       266.35
  277.55        2959.00           1342          75.00       305.58
  277.58        2959.25           1346          75.00       305.58
  277.61        2959.50           1349          79.00       323.02
  277.64        2959.75           1352         100.00       414.56
  277.67        2960.00           1356         128.00       536.63
  277.70        2960.25           1359         167.00       706.64
  277.73        2960.50           1362         197.00       837.42
  277.76        2960.75           1366         247.00      1055.40
  277.79        2961.00           1369         289.00      1238.49
  277.82        2961.25           1372         337.00      1447.75
  277.85        2961.50           1376         399.00      1718.05
  277.88        2961.75           1379         469.00      2023.23
  277.91        2962.00           1382         771.00      3339.92
  277.94        2962.25           1386        2154.00      9370.99
  277.98        2962.50           1389        3716.00     16185.28
  278.01        2962.75           1392        5070.00     22094.42
  278.04        2963.00           1396        6890.00     30040.58
  278.07        2963.25           1399        8376.00     36531.29
  278.10        2963.50           1402        9970.00     43496.57
  278.13        2963.75           1406       11961.00     52200.69
  278.16        2964.00           1409       13569.00     59233.77
  278.19        2964.25           1412       15241.00     66549.91
  278.22        2964.50           1416       17407.00     76032.43
  278.25        2964.75           1419       18852.00     82361.50
  278.28        2965.00           1422       20618.00     90099.80
  278.32        2965.25           1426       22589.00     98740.62
  278.35        2965.50           1429       24126.00    105481.90
  278.38        2965.75           1432       25712.00    112441.00
  278.41        2966.00           1436       27674.00    121053.90
  278.44        2966.25           1439       29238.00    127922.90
  278.47        2966.50           1442       30627.00    134025.60
  278.50        2966.75           1446       32190.00    140895.50
  278.53        2967.00           1449       33137.00    145059.30
  278.56        2967.25           1452       33298.00    145767.30
  278.59        2967.50           1456       33619.00    147179.00
  278.63        2967.75           1459       33456.00    146462.10
  278.66        2968.00           1462       33521.00    146748.00
  278.69        2968.25           1466       32831.00    143713.80
  278.72        2968.50           1469       31946.00    139822.90
  278.75        2968.75           1472       30436.00    133186.30
  278.78        2969.00           1476       28599.00    125116.10
  278.81        2969.25           1479       26891.00    117616.10
  278.84        2969.50           1482       25432.00    111212.20
  278.87        2969.75           1486       23385.00    102231.60
  278.90        2970.00           1489       22063.00     96434.21
  278.94        2970.25           1492       20349.00     88920.86
  278.97        2970.50           1496       18598.00     81248.80
  279.00        2970.75           1499       16932.00     73952.46
  279.03        2971.00           1502       15344.00     67000.71
  279.06        2971.25           1506       13051.00     56967.81
  279.09        2971.50           1509       11432.00     49887.60
  279.12        2971.75           1513        9638.00     42045.60
  279.15        2972.00           1516        7935.00     34604.78
  279.18        2972.25           1519        6571.00     28647.54
  279.22        2972.50           1523        4512.00     19658.93
  279.25        2972.75           1526        3120.00     13584.87
  279.28        2973.00           1529        1817.00      7901.18
  279.31        2973.25           1533         576.00      2489.72
  279.34        2973.50           1536         346.00      1486.99
  279.37        2973.75           1539         261.00      1116.43
  279.40        2974.00           1543         238.00      1016.16
  279.43        2974.25           1546         158.00       667.41
  279.46        2974.50           1549         123.00       514.83
  279.49        2974.75           1553          89.00       366.61
  279.52        2975.00           1556          75.00       305.58
  279.56        2975.25           1559          72.00       292.50
  279.59        2975.50           1563          72.00       292.50
  279.62        2975.75           1566          62.00       248.91
  279.65        2976.00           1569          58.00       231.48
  279.68        2976.25           1573          59.00       235.83
  279.71        2976.50           1576          56.00       222.76
  279.74        2976.75           1579          63.00       253.27
  279.77        2977.00           1583          66.00       266.35
  279.80        2977.25           1586          63.00       253.27
  279.83        2977.50           1590          66.00       266.35
  279.86        2977.75           1593          59.00       235.83
  279.89        2978.00           1596          62.00       248.91
  279.92        2978.25           1600          63.00       253.27
  279.96        2978.50           1603          57.00       227.12
  279.99        2978.75           1606          53.00       209.68
  280.02        2979.00           1610          55.00       218.40
  280.05        2979.25           1613          61.00       244.55
  280.08        2979.50           1616          62.00       248.91
  280.11        2979.75           1620          56.00       222.76
  280.14        2980.00           1623          57.00       227.12
  280.17        2980.25           1626          65.00       261.99
  280.20        2980.50           1630          57.00       227.12
  280.23        2980.75           1633          61.00       244.55
  280.26        2981.00           1637          56.00       222.76
  280.29        2981.25           1640          56.00       222.76
  280.32        2981.50           1643          63.00       253.27
  280.35        2981.75           1647          57.00       227.12
  280.38        2982.00           1650          58.00       231.48
  280.42        2982.25           1653          64.00       257.63
  280.45        2982.50           1657          58.00       231.48
  280.48        2982.75           1660          55.00       218.40
  280.51        2983.00           1663          62.00       248.91
  280.54        2983.25           1667          56.00       222.76
  280.57        2983.50           1670          58.00       231.48
  280.60        2983.75           1673          64.00       257.63
  280.63        2984.00           1677          64.00       257.63
HS scan finished at 04:40:51
end
************************************************************
  HS Scan of (1) Internal mercury lamp
************************************************************
Integration time is 0.2294 seconds per sample
dh101117Manchester 53.47 2.23 2.804185pr1000
************************************************************
Dead Time -------------------------  3E-08 
Number of Cycles Used -------------  4 
Starting Wavelength (Angstroms) ---  2950 
Final Wavelength (Angstoms) -------  2984 
Wavelength Increment (Angstroms) --  .25 
Filter Wheel #1 Position ---------- (1) Ground quartz diffuser (ND=2.32)
Filter Wheel #2 Position ---------- (1) Neutral Density 0.494



************************************************************
HS scan start time = 17:11:59
Dark Count =  5.8 


Time (GMT)  Wavelength (Ang)  Step Number  Raw Counts  Counts/Second

 1032.35        2950.00           1222          66.00       262.43
 1032.42        2950.25           1226          69.00       275.50
 1032.45        2950.50           1229          63.00       249.35
 1032.48        2950.75           1232          69.00       275.50
 1032.51        2951.00           1236          72.00       288.58
 1032.54        2951.25           1239          70.00       279.86
 1032.57        2951.50           1242          65.00       258.07
 1032.60        2951.75           1246          69.00       275.50
 1032.63        2952.00           1249          76.00       306.02
 1032.66        2952.25           1252          70.00       279.86
 1032.69        2952.50           1256          68.00       271.14
 1032.73        2952.75           1259          65.00       258.07
 1032.76        2953.00           1262          70.00       279.86
 1032.79        2953.25           1266          68.00       271.14
 1032.82        2953.50           1269          67.00       266.79
 1032.85        2953.75           1272          69.00       275.50
 1032.88        2954.00           1276          70.00       279.86
 1032.91        2954.25           1279          64.00       253.71
 1032.94        2954.50           1282          74.00       297.30
 1032.97        2954.75           1286          65.00       258.07
 1033.00        2955.00           1289          65.00       258.07
 1033.04        2955.25           1292          64.00       253.71
 1033.07        2955.50           1296          62.00       244.99
 1033.10        2955.75           1299          64.00       253.71
 1033.13        2956.00           1302          62.00       244.99
 1033.16        2956.25           1306          63.00       249.35
 1033.19        2956.50           1309          71.00       284.22
 1033.22        2956.75           1312          66.00       262.43
 1033.25        2957.00           1316          61.00       240.63
 1033.28        2957.25           1319          60.00       236.27
 1033.31        2957.50           1322          64.00       253.71
 1033.34        2957.75           1326          72.00       288.58
 1033.37        2958.00           1329          66.00       262.43
 1033.41        2958.25           1332          63.00       249.35
 1033.44        2958.50           1336          66.00       262.43
 1033.47        2958.75           1339          68.00       271.14
 1033.50        2959.00           1342          77.00       310.38
 1033.53        2959.25           1346          67.00       266.79
 1033.56        2959.50           1349          72.00       288.58
 1033.59        2959.75           1352          81.00       327.81
 1033.62        2960.00           1356         119.00       493.47
 1033.65        2960.25           1359         165.00       694.00
 1033.68        2960.50           1362         181.00       763.75
 1033.71        2960.75           1366         236.00      1003.52
 1033.74        2961.00           1369         270.00      1151.74
 1033.78        2961.25           1372         322.00      1378.44
 1033.81        2961.50           1376         417.00      1792.60
 1033.84        2961.75           1379         660.00      2852.03
 1033.87        2962.00           1382        1441.00      6257.50
 1033.90        2962.25           1386        3198.00     13921.24
 1033.93        2962.50           1389        4614.00     20100.17
 1033.96        2962.75           1392        6049.00     26364.35
 1033.99        2963.00           1396        7975.00     34775.58
 1034.02        2963.25           1399        9519.00     41521.61
 1034.05        2963.50           1402       11038.00     48161.08
 1034.08        2963.75           1406       13309.00     58092.44
 1034.12        2964.00           1409       14913.00     65110.50
 1034.15        2964.25           1412       16422.00     71715.59
 1034.18        2964.50           1416       18659.00     81512.07
 1034.21        2964.75           1419       20116.00     87895.81
 1034.24        2965.00           1422       21600.00     94400.35
 1034.27        2965.25           1426       23786.00    103986.50
 1034.30        2965.50           1429       25454.00    111304.80
 1034.33        2965.75           1432       26699.00    116769.30
 1034.37        2966.00           1436       28857.00    126245.30
 1034.40        2966.25           1439       30274.00    132470.50
 1034.43        2966.50           1442       31645.00    138495.80
 1034.46        2966.75           1446       32859.00    143832.90
 1034.49        2967.00           1449       33261.00    145600.60
 1034.52        2967.25           1452       33193.00    145301.60
 1034.55        2967.50           1456       33261.00    145600.60
 1034.58        2967.75           1459       33097.00    144879.40
 1034.61        2968.00           1462       32783.00    143498.70
 1034.64        2968.25           1466       31807.00    139207.90
 1034.67        2968.50           1469       30687.00    134285.30
 1034.71        2968.75           1472       29058.00    127128.20
 1034.74        2969.00           1476       27313.00    119464.90
 1034.77        2969.25           1479       25414.00    111129.20
 1034.80        2969.50           1482       24090.00    105320.10
 1034.83        2969.75           1486       21966.00     96004.97
 1034.86        2970.00           1489       20479.00     89486.64
 1034.89        2970.25           1492       19104.00     83461.55
 1034.92        2970.50           1496       17037.00     74408.28
 1034.95        2970.75           1499       15472.00     67557.01
 1034.98        2971.00           1502       13898.00     60669.18
 1035.02        2971.25           1506       11858.00     51746.36
 1035.05        2971.50           1509       10422.00     45468.26
 1035.08        2971.75           1513        8372.00     36509.89
 1035.11        2972.00           1516        6973.00     30399.12
 1035.14        2972.25           1519        5475.00     23858.40
 1035.17        2972.50           1523        3463.00     15077.44
 1035.20        2972.75           1526        1971.00      8568.90
 1035.23        2973.00           1529         833.00      3606.32
 1035.26        2973.25           1533         416.00      1788.24
 1035.30        2973.50           1536         334.00      1430.75
 1035.33        2973.75           1539         279.00      1190.98
 1035.36        2974.00           1543         241.00      1025.31
 1035.39        2974.25           1546         175.00       737.59
 1035.42        2974.50           1549         140.00       585.01
 1035.45        2974.75           1553          97.00       397.56
 1035.48        2975.00           1556          77.00       310.38
 1035.51        2975.25           1559          63.00       249.35
 1035.54        2975.50           1563          61.00       240.63
 1035.57        2975.75           1566          71.00       284.22
 1035.60        2976.00           1569          58.00       227.55
 1035.64        2976.25           1573          71.00       284.22
 1035.67        2976.50           1576          70.00       279.86
 1035.70        2976.75           1579          73.00       292.94
 1035.73        2977.00           1583          65.00       258.07
 1035.76        2977.25           1586          68.00       271.14
 1035.79        2977.50           1590          64.00       253.71
 1035.82        2977.75           1593          63.00       249.35
 1035.85        2978.00           1596          72.00       288.58
 1035.88        2978.25           1600          57.00       223.19
 1035.91        2978.50           1603          64.00       253.71
 1035.94        2978.75           1606          62.00       244.99
 1035.97        2979.00           1610          60.00       236.27
 1036.00        2979.25           1613          62.00       244.99
 1036.04        2979.50           1616          63.00       249.35
 1036.07        2979.75           1620          60.00       236.27
 1036.10        2980.00           1623          62.00       244.99
 1036.13        2980.25           1626          70.00       279.86
 1036.16        2980.50           1630          71.00       284.22
 1036.19        2980.75           1633          63.00       249.35
 1036.22        2981.00           1637          63.00       249.35
 1036.25        2981.25           1640          58.00       227.55
 1036.28        2981.50           1643          62.00       244.99
 1036.31        2981.75           1647          58.00       227.55
 1036.34        2982.00           1650          63.00       249.35
 1036.38        2982.25           1653          54.00       210.11
 1036.41        2982.50           1657          62.00       244.99
 1036.44        2982.75           1660          64.00       253.71
 1036.47        2983.00           1663          59.00       231.91
 1036.50        2983.25           1667          59.00       231.91
 1036.53        2983.50           1670          52.00       201.40
 1036.56        2983.75           1673          56.00       218.83
 1036.59        2984.00           1677          61.00       240.63
HS scan finished at 17:16:48
end
