************************************************************
  HS Scan of (1) Internal mercury lamp
************************************************************
Integration time is 0.2294 seconds per sample
dh131117Manchester 53.47 2.23 2.750537pr1000
************************************************************
Dead Time -------------------------  3E-08 
Number of Cycles Used -------------  4 
Starting Wavelength (Angstroms) ---  2950 
Final Wavelength (Angstoms) -------  2984 
Wavelength Increment (Angstroms) --  .25 
Filter Wheel #1 Position ---------- (1) Ground quartz diffuser (ND=2.32)
Filter Wheel #2 Position ---------- (1) Neutral Density 0.494



************************************************************
HS scan start time = 04:40:51
Dark Count =  7.4 


Time (GMT)  Wavelength (Ang)  Step Number  Raw Counts  Counts/Second

  281.23        2950.00           1222          71.00       277.25
  281.29        2950.25           1226          66.00       255.45
  281.32        2950.50           1229          69.00       268.53
  281.35        2950.75           1232          66.00       255.45
  281.38        2951.00           1236          64.00       246.73
  281.42        2951.25           1239          70.00       272.89
  281.45        2951.50           1242          61.00       233.65
  281.48        2951.75           1246          64.00       246.73
  281.51        2952.00           1249          70.00       272.89
  281.54        2952.25           1252          72.00       281.61
  281.57        2952.50           1256          63.00       242.37
  281.60        2952.75           1259          60.00       229.30
  281.63        2953.00           1262          67.00       259.81
  281.66        2953.25           1266          68.00       264.17
  281.69        2953.50           1269          67.00       259.81
  281.72        2953.75           1272          65.00       251.09
  281.75        2954.00           1276          57.00       216.22
  281.79        2954.25           1279          70.00       272.89
  281.82        2954.50           1282          86.00       342.64
  281.85        2954.75           1286          63.00       242.37
  281.88        2955.00           1289          74.00       290.33
  281.91        2955.25           1292          68.00       264.17
  281.94        2955.50           1296          60.00       229.30
  281.97        2955.75           1299          71.00       277.25
  282.00        2956.00           1302          65.00       251.09
  282.03        2956.25           1306          70.00       272.89
  282.06        2956.50           1309          62.00       238.01
  282.09        2956.75           1312          66.00       255.45
  282.12        2957.00           1316          67.00       259.81
  282.15        2957.25           1319          68.00       264.17
  282.19        2957.50           1322          64.00       246.73
  282.22        2957.75           1326          60.00       229.30
  282.25        2958.00           1329          62.00       238.01
  282.28        2958.25           1332          74.00       290.33
  282.31        2958.50           1336          65.00       251.09
  282.34        2958.75           1339          69.00       268.53
  282.37        2959.00           1342          68.00       264.17
  282.40        2959.25           1346          73.00       285.97
  282.43        2959.50           1349          77.00       303.40
  282.46        2959.75           1352          81.00       320.84
  282.49        2960.00           1356          97.00       390.59
  282.52        2960.25           1359         144.00       595.48
  282.55        2960.50           1362         167.00       695.74
  282.58        2960.75           1366         230.00       970.39
  282.61        2961.00           1369         278.00      1179.64
  282.64        2961.25           1372         291.00      1236.31
  282.68        2961.50           1376         388.00      1659.19
  282.71        2961.75           1379         581.00      2500.62
  282.74        2962.00           1382        1338.00      5801.36
  282.77        2962.25           1386        3047.00     13255.49
  282.80        2962.50           1389        4516.00     19665.48
  282.83        2962.75           1392        5965.00     25990.62
  282.86        2963.00           1396        7934.00     34589.49
  282.89        2963.25           1399        9439.00     41165.02
  282.92        2963.50           1402       11053.00     48219.67
  282.95        2963.75           1406       13225.00     57717.99
  282.98        2964.00           1409       14763.00     64447.07
  283.02        2964.25           1412       16426.00     71726.10
  283.05        2964.50           1416       18275.00     79823.01
  283.08        2964.75           1419       19796.00     86486.52
  283.11        2965.00           1422       21380.00     93428.89
  283.14        2965.25           1426       23453.00    102518.80
  283.17        2965.50           1429       24925.00    108976.50
  283.20        2965.75           1432       26328.00    115133.70
  283.23        2966.00           1436       28489.00    124622.00
  283.26        2966.25           1439       30067.00    131553.90
  283.29        2966.50           1442       31490.00    137807.40
  283.32        2966.75           1446       32980.00    144357.90
  283.36        2967.00           1449       33187.00    145268.20
  283.39        2967.25           1452       33292.00    145729.90
  283.42        2967.50           1456       33276.00    145659.50
  283.45        2967.75           1459       33334.00    145914.60
  283.48        2968.00           1462       32991.00    144406.30
  283.51        2968.25           1466       32160.00    140752.60
  283.54        2968.50           1469       30779.00    134682.60
  283.57        2968.75           1472       29387.00    128566.40
  283.61        2969.00           1476       27373.00    119721.30
  283.64        2969.25           1479       25695.00    112355.40
  283.67        2969.50           1482       24218.00    105874.60
  283.70        2969.75           1486       22217.00     97098.47
  283.73        2970.00           1489       20760.00     90711.21
  283.76        2970.25           1492       19334.00     84462.22
  283.79        2970.50           1496       17219.00     75198.23
  283.82        2970.75           1499       15623.00     68210.93
  283.85        2971.00           1502       14148.00     61755.99
  283.88        2971.25           1506       12076.00     52692.65
  283.92        2971.50           1509       10453.00     45596.77
  283.95        2971.75           1513        8501.00     37066.48
  283.98        2972.00           1516        6903.00     30086.43
  284.01        2972.25           1519        5391.00     23484.72
  284.04        2972.50           1523        3431.00     14930.84
  284.07        2972.75           1526        2106.00      9150.73
  284.10        2973.00           1529         928.00      4013.56
  284.13        2973.25           1533         434.00      1859.74
  284.16        2973.50           1536         298.00      1266.83
  284.20        2973.75           1539         276.00      1170.92
  284.23        2974.00           1543         227.00       957.31
  284.26        2974.25           1546         174.00       726.26
  284.29        2974.50           1549         138.00       569.32
  284.32        2974.75           1553         105.00       425.46
  284.35        2975.00           1556          80.00       316.48
  284.38        2975.25           1559          70.00       272.89
  284.41        2975.50           1563          68.00       264.17
  284.44        2975.75           1566          58.00       220.58
  284.47        2976.00           1569          63.00       242.37
  284.50        2976.25           1573          62.00       238.01
  284.54        2976.50           1576          60.00       229.30
  284.57        2976.75           1579          65.00       251.09
  284.60        2977.00           1583          57.00       216.22
  284.63        2977.25           1586          67.00       259.81
  284.66        2977.50           1590          58.00       220.58
  284.69        2977.75           1593          56.00       211.86
  284.72        2978.00           1596          68.00       264.17
  284.75        2978.25           1600          61.00       233.65
  284.78        2978.50           1603          54.00       203.14
  284.81        2978.75           1606          62.00       238.01
  284.84        2979.00           1610          63.00       242.37
  284.87        2979.25           1613          62.00       238.01
  284.90        2979.50           1616          64.00       246.73
  284.94        2979.75           1620          61.00       233.65
  284.97        2980.00           1623          61.00       233.65
  285.00        2980.25           1626          55.00       207.50
  285.03        2980.50           1630          55.00       207.50
  285.06        2980.75           1633          58.00       220.58
  285.09        2981.00           1637          65.00       251.09
  285.12        2981.25           1640          63.00       242.37
  285.15        2981.50           1643          58.00       220.58
  285.18        2981.75           1647          58.00       220.58
  285.21        2982.00           1650          60.00       229.30
  285.24        2982.25           1653          64.00       246.73
  285.27        2982.50           1657          54.00       203.14
  285.31        2982.75           1660          59.00       224.94
  285.34        2983.00           1663          61.00       233.65
  285.37        2983.25           1667          57.00       216.22
  285.40        2983.50           1670          53.00       198.78
  285.43        2983.75           1673          64.00       246.73
  285.46        2984.00           1677          54.00       203.14
HS scan finished at 04:45:40
end
************************************************************
  HS Scan of (1) Internal mercury lamp
************************************************************
Integration time is 0.2294 seconds per sample
dh131117Manchester 53.47 2.23 2.750537pr1000
************************************************************
Dead Time -------------------------  3E-08 
Number of Cycles Used -------------  4 
Starting Wavelength (Angstroms) ---  2950 
Final Wavelength (Angstoms) -------  2984 
Wavelength Increment (Angstroms) --  .25 
Filter Wheel #1 Position ---------- (1) Ground quartz diffuser (ND=2.32)
Filter Wheel #2 Position ---------- (1) Neutral Density 0.494



************************************************************
HS scan start time = 17:12:02
Dark Count =  6.8 


Time (GMT)  Wavelength (Ang)  Step Number  Raw Counts  Counts/Second

 1032.40        2950.00           1222          57.00       218.83
 1032.47        2950.25           1226          78.00       310.38
 1032.50        2950.50           1229          63.00       244.99
 1032.53        2950.75           1232          61.00       236.27
 1032.56        2951.00           1236          81.00       323.46
 1032.59        2951.25           1239          62.00       240.63
 1032.62        2951.50           1242          67.00       262.43
 1032.66        2951.75           1246          65.00       253.71
 1032.69        2952.00           1249          63.00       244.99
 1032.72        2952.25           1252          69.00       271.14
 1032.75        2952.50           1256          60.00       231.91
 1032.78        2952.75           1259          63.00       244.99
 1032.81        2953.00           1262          72.00       284.22
 1032.84        2953.25           1266          62.00       240.63
 1032.87        2953.50           1269          65.00       253.71
 1032.90        2953.75           1272          70.00       275.50
 1032.93        2954.00           1276          63.00       244.99
 1032.96        2954.25           1279          77.00       306.02
 1032.99        2954.50           1282          66.00       258.07
 1033.02        2954.75           1286          67.00       262.43
 1033.06        2955.00           1289          68.00       266.79
 1033.09        2955.25           1292          74.00       292.94
 1033.12        2955.50           1296          64.00       249.35
 1033.15        2955.75           1299          67.00       262.43
 1033.18        2956.00           1302          59.00       227.55
 1033.21        2956.25           1306          70.00       275.50
 1033.24        2956.50           1309          61.00       236.27
 1033.27        2956.75           1312          80.00       319.10
 1033.30        2957.00           1316          62.00       240.63
 1033.33        2957.25           1319          68.00       266.79
 1033.36        2957.50           1322          65.00       253.71
 1033.39        2957.75           1326          63.00       244.99
 1033.42        2958.00           1329          62.00       240.63
 1033.45        2958.25           1332          72.00       284.22
 1033.49        2958.50           1336          66.00       258.07
 1033.52        2958.75           1339          64.00       249.35
 1033.55        2959.00           1342          67.00       262.43
 1033.58        2959.25           1346          68.00       266.79
 1033.61        2959.50           1349          79.00       314.74
 1033.64        2959.75           1352          76.00       301.66
 1033.67        2960.00           1356         107.00       436.80
 1033.70        2960.25           1359         130.00       537.06
 1033.73        2960.50           1362         174.00       728.87
 1033.76        2960.75           1366         230.00       973.00
 1033.79        2961.00           1369         269.00      1143.02
 1033.83        2961.25           1372         312.00      1330.48
 1033.86        2961.50           1376         375.00      1605.13
 1033.89        2961.75           1379         455.00      1953.91
 1033.92        2962.00           1382         788.00      3405.75
 1033.95        2962.25           1386        2123.00      9227.49
 1033.98        2962.50           1389        3517.00     15308.69
 1034.01        2962.75           1392        5033.00     21924.62
 1034.04        2963.00           1396        7095.00     30927.55
 1034.07        2963.25           1399        8629.00     37628.33
 1034.10        2963.50           1402       10055.00     43859.77
 1034.14        2963.75           1406       12062.00     52634.05
 1034.17        2964.00           1409       13635.00     59514.19
 1034.20        2964.25           1412       15253.00     66594.12
 1034.23        2964.50           1416       17246.00     75319.08
 1034.26        2964.75           1419       18825.00     82234.90
 1034.29        2965.00           1422       20176.00     88154.36
 1034.32        2965.25           1426       22453.00     98135.92
 1034.35        2965.50           1429       23852.00    104271.60
 1034.38        2965.75           1432       25649.00    112156.20
 1034.42        2966.00           1436       27672.00    121036.80
 1034.45        2966.25           1439       29112.00    127361.00
 1034.48        2966.50           1442       30430.00    133151.60
 1034.51        2966.75           1446       32052.00    140280.50
 1034.54        2967.00           1449       32879.00    143916.40
 1034.57        2967.25           1452       33154.00    145125.70
 1034.60        2967.50           1456       32996.00    144430.90
 1034.63        2967.75           1459       33028.00    144571.60
 1034.66        2968.00           1462       32778.00    143472.40
 1034.70        2968.25           1466       32535.00    142403.90
 1034.73        2968.50           1469       31596.00    138276.00
 1034.76        2968.75           1472       30226.00    132255.20
 1034.79        2969.00           1476       28207.00    123386.10
 1034.82        2969.25           1479       26574.00    116216.20
 1034.85        2969.50           1482       24841.00    108610.50
 1034.88        2969.75           1486       22893.00    100065.40
 1034.91        2970.00           1489       21327.00     93199.19
 1034.94        2970.25           1492       20002.00     87391.85
 1034.98        2970.50           1496       17955.00     78424.05
 1035.01        2970.75           1499       16431.00     71750.61
 1035.04        2971.00           1502       15192.00     66327.15
 1035.07        2971.25           1506       13229.00     57738.12
 1035.10        2971.50           1509       11448.00     49949.25
 1035.13        2971.75           1513        9430.00     41128.31
 1035.16        2972.00           1516        7843.00     34194.61
 1035.19        2972.25           1519        6352.00     27682.97
 1035.22        2972.50           1523        4349.00     18939.27
 1035.25        2972.75           1526        2865.00     12464.12
 1035.28        2973.00           1529        1585.00      6881.11
 1035.31        2973.25           1533         530.00      2280.89
 1035.35        2973.50           1536         330.00      1408.95
 1035.38        2973.75           1539         298.00      1269.45
 1035.41        2974.00           1543         232.00       981.72
 1035.44        2974.25           1546         179.00       750.67
 1035.47        2974.50           1549         139.00       576.30
 1035.50        2974.75           1553         101.00       410.64
 1035.53        2975.00           1556          81.00       323.46
 1035.56        2975.25           1559          70.00       275.50
 1035.59        2975.50           1563          66.00       258.07
 1035.62        2975.75           1566          60.00       231.91
 1035.65        2976.00           1569          67.00       262.43
 1035.68        2976.25           1573          67.00       262.43
 1035.71        2976.50           1576          69.00       271.14
 1035.74        2976.75           1579          55.00       210.11
 1035.77        2977.00           1583          61.00       236.27
 1035.80        2977.25           1586          58.00       223.19
 1035.83        2977.50           1590          52.00       197.04
 1035.87        2977.75           1593          60.00       231.91
 1035.90        2978.00           1596          48.00       179.60
 1035.93        2978.25           1600          66.00       258.07
 1035.96        2978.50           1603          63.00       244.99
 1035.99        2978.75           1606          66.00       258.07
 1036.02        2979.00           1610          64.00       249.35
 1036.05        2979.25           1613          61.00       236.27
 1036.08        2979.50           1616          56.00       214.47
 1036.11        2979.75           1620          63.00       244.99
 1036.14        2980.00           1623          61.00       236.27
 1036.17        2980.25           1626          64.00       249.35
 1036.20        2980.50           1630          61.00       236.27
 1036.24        2980.75           1633          57.00       218.83
 1036.27        2981.00           1637          64.00       249.35
 1036.30        2981.25           1640          51.00       192.68
 1036.33        2981.50           1643          60.00       231.91
 1036.36        2981.75           1647          60.00       231.91
 1036.39        2982.00           1650          66.00       258.07
 1036.42        2982.25           1653          63.00       244.99
 1036.45        2982.50           1657          59.00       227.55
 1036.48        2982.75           1660          61.00       236.27
 1036.51        2983.00           1663          63.00       244.99
 1036.55        2983.25           1667          50.00       188.32
 1036.58        2983.50           1670          62.00       240.63
 1036.61        2983.75           1673          59.00       227.55
 1036.64        2984.00           1677          56.00       214.47
HS scan finished at 17:16:51
end
