************************************************************
  HS Scan of (1) Internal mercury lamp
************************************************************
Integration time is 0.2294 seconds per sample
dh121117Manchester 53.47 2.23 2.750537pr1000
************************************************************
Dead Time -------------------------  3E-08 
Number of Cycles Used -------------  4 
Starting Wavelength (Angstroms) ---  2950 
Final Wavelength (Angstoms) -------  2984 
Wavelength Increment (Angstroms) --  .25 
Filter Wheel #1 Position ---------- (1) Ground quartz diffuser (ND=2.32)
Filter Wheel #2 Position ---------- (1) Neutral Density 0.494



************************************************************
HS scan start time = 04:39:18
Dark Count =  4.6 


Time (GMT)  Wavelength (Ang)  Step Number  Raw Counts  Counts/Second

  279.67        2950.00           1222          66.00       267.66
  279.73        2950.25           1226          60.00       241.50
  279.76        2950.50           1229          69.00       280.73
  279.79        2950.75           1232          66.00       267.66
  279.82        2951.00           1236          73.00       298.17
  279.85        2951.25           1239          64.00       258.94
  279.89        2951.50           1242          60.00       241.50
  279.92        2951.75           1246          66.00       267.66
  279.95        2952.00           1249          68.00       276.38
  279.98        2952.25           1252          68.00       276.38
  280.01        2952.50           1256          61.00       245.86
  280.04        2952.75           1259          73.00       298.17
  280.07        2953.00           1262          67.00       272.02
  280.10        2953.25           1266          59.00       237.14
  280.13        2953.50           1269          59.00       237.14
  280.16        2953.75           1272          73.00       298.17
  280.19        2954.00           1276          66.00       267.66
  280.22        2954.25           1279          64.00       258.94
  280.25        2954.50           1282          68.00       276.38
  280.28        2954.75           1286          63.00       254.58
  280.32        2955.00           1289          68.00       276.38
  280.35        2955.25           1292          65.00       263.30
  280.38        2955.50           1296          72.00       293.81
  280.41        2955.75           1299          64.00       258.94
  280.44        2956.00           1302          68.00       276.38
  280.47        2956.25           1306          62.00       250.22
  280.50        2956.50           1309          67.00       272.02
  280.53        2956.75           1312          64.00       258.94
  280.56        2957.00           1316          64.00       258.94
  280.59        2957.25           1319          61.00       245.86
  280.63        2957.50           1322          63.00       254.58
  280.66        2957.75           1326          59.00       237.14
  280.69        2958.00           1329          64.00       258.94
  280.72        2958.25           1332          61.00       245.86
  280.75        2958.50           1336          69.00       280.73
  280.78        2958.75           1339          64.00       258.94
  280.81        2959.00           1342          61.00       245.86
  280.84        2959.25           1346          69.00       280.73
  280.87        2959.50           1349          73.00       298.17
  280.90        2959.75           1352          77.00       315.61
  280.93        2960.00           1356          96.00       398.44
  280.96        2960.25           1359         130.00       546.65
  281.00        2960.50           1362         168.00       712.31
  281.03        2960.75           1366         208.00       886.68
  281.06        2961.00           1369         257.00      1100.30
  281.09        2961.25           1372         295.00      1265.96
  281.12        2961.50           1376         333.00      1431.62
  281.15        2961.75           1379         459.00      1980.94
  281.18        2962.00           1382         925.00      4012.69
  281.21        2962.25           1386        2417.00     10519.45
  281.24        2962.50           1389        3897.00     16976.39
  281.27        2962.75           1392        5429.00     23662.83
  281.31        2963.00           1396        7377.00     32168.78
  281.34        2963.25           1399        8893.00     38791.42
  281.37        2963.50           1402       10474.00     45700.81
  281.40        2963.75           1406       12560.00     54821.57
  281.43        2964.00           1409       14131.00     61693.86
  281.46        2964.25           1412       15946.00     69637.05
  281.49        2964.50           1416       17928.00     78315.43
  281.52        2964.75           1419       19388.00     84711.08
  281.55        2965.00           1422       20969.00     91639.57
  281.59        2965.25           1426       22895.00    100083.80
  281.62        2965.50           1429       24586.00    107501.30
  281.65        2965.75           1432       26099.00    114140.80
  281.68        2966.00           1436       28233.00    123510.00
  281.71        2966.25           1439       29861.00    130661.10
  281.74        2966.50           1442       31172.00    136422.10
  281.77        2966.75           1446       32876.00    143912.90
  281.80        2967.00           1449       33417.00    146291.90
  281.83        2967.25           1452       33736.00    147694.80
  281.86        2967.50           1456       33533.00    146802.00
  281.90        2967.75           1459       33623.00    147197.80
  281.93        2968.00           1462       33603.00    147109.90
  281.96        2968.25           1466       32980.00    144370.20
  281.99        2968.50           1469       31716.00    138813.10
  282.02        2968.75           1472       30299.00    132585.60
  282.05        2969.00           1476       28362.00    124076.50
  282.08        2969.25           1479       26432.00    115602.50
  282.11        2969.50           1482       25038.00    109484.60
  282.14        2969.75           1486       22840.00     99842.64
  282.18        2970.00           1489       21495.00     93945.31
  282.21        2970.25           1492       19878.00     86858.12
  282.24        2970.50           1496       17905.00     78214.70
  282.27        2970.75           1499       16365.00     71471.31
  282.30        2971.00           1502       14858.00     64875.05
  282.33        2971.25           1506       12744.00     55626.33
  282.36        2971.50           1509       11160.00     48699.70
  282.39        2971.75           1513        9169.00     39997.40
  282.42        2972.00           1516        7549.00     32920.03
  282.45        2972.25           1519        6082.00     26513.67
  282.49        2972.50           1523        4012.00     17478.21
  282.52        2972.75           1526        2641.00     11496.55
  282.55        2973.00           1529        1294.00      5621.70
  282.58        2973.25           1533         476.00      2055.05
  282.61        2973.50           1536         362.00      1558.05
  282.64        2973.75           1539         319.00      1370.59
  282.67        2974.00           1543         255.00      1091.58
  282.70        2974.25           1546         204.00       869.25
  282.73        2974.50           1549         156.00       660.00
  282.77        2974.75           1553         109.00       455.11
  282.80        2975.00           1556          80.00       328.69
  282.83        2975.25           1559          71.00       289.45
  282.86        2975.50           1563          58.00       232.78
  282.89        2975.75           1566          63.00       254.58
  282.92        2976.00           1569          61.00       245.86
  282.95        2976.25           1573          62.00       250.22
  282.98        2976.50           1576          60.00       241.50
  283.01        2976.75           1579          66.00       267.66
  283.04        2977.00           1583          66.00       267.66
  283.07        2977.25           1586          60.00       241.50
  283.10        2977.50           1590          54.00       215.35
  283.13        2977.75           1593          69.00       280.73
  283.16        2978.00           1596          55.00       219.71
  283.20        2978.25           1600          66.00       267.66
  283.23        2978.50           1603          60.00       241.50
  283.26        2978.75           1606          53.00       210.99
  283.29        2979.00           1610          63.00       254.58
  283.32        2979.25           1613          62.00       250.22
  283.35        2979.50           1616          61.00       245.86
  283.38        2979.75           1620          58.00       232.78
  283.41        2980.00           1623          63.00       254.58
  283.44        2980.25           1626          68.00       276.38
  283.47        2980.50           1630          58.00       232.78
  283.50        2980.75           1633          58.00       232.78
  283.53        2981.00           1637          57.00       228.42
  283.57        2981.25           1640          68.00       276.38
  283.60        2981.50           1643          58.00       232.78
  283.63        2981.75           1647          56.00       224.06
  283.66        2982.00           1650          63.00       254.58
  283.69        2982.25           1653          62.00       250.22
  283.72        2982.50           1657          58.00       232.78
  283.75        2982.75           1660          57.00       228.42
  283.78        2983.00           1663          53.00       210.99
  283.81        2983.25           1667          53.00       210.99
  283.84        2983.50           1670          55.00       219.71
  283.88        2983.75           1673          57.00       228.42
  283.91        2984.00           1677          55.00       219.71
HS scan finished at 04:44:07
end
************************************************************
  HS Scan of (1) Internal mercury lamp
************************************************************
Integration time is 0.2294 seconds per sample
dh121117Manchester 53.47 2.23 2.750537pr1000
************************************************************
Dead Time -------------------------  3E-08 
Number of Cycles Used -------------  4 
Starting Wavelength (Angstroms) ---  2950 
Final Wavelength (Angstoms) -------  2984 
Wavelength Increment (Angstroms) --  .25 
Filter Wheel #1 Position ---------- (1) Ground quartz diffuser (ND=2.32)
Filter Wheel #2 Position ---------- (1) Neutral Density 0.494



************************************************************
HS scan start time = 17:12:03
Dark Count =  8.2 


Time (GMT)  Wavelength (Ang)  Step Number  Raw Counts  Counts/Second

 1032.41        2950.00           1222          77.00       299.92
 1032.48        2950.25           1226          60.00       225.81
 1032.51        2950.50           1229          65.00       247.60
 1032.54        2950.75           1232          65.00       247.60
 1032.57        2951.00           1236          71.00       273.76
 1032.60        2951.25           1239          64.00       243.25
 1032.63        2951.50           1242          65.00       247.60
 1032.66        2951.75           1246          67.00       256.32
 1032.69        2952.00           1249          76.00       295.56
 1032.72        2952.25           1252          81.00       317.35
 1032.76        2952.50           1256          61.00       230.17
 1032.79        2952.75           1259          64.00       243.25
 1032.82        2953.00           1262          64.00       243.25
 1032.85        2953.25           1266          67.00       256.32
 1032.88        2953.50           1269          62.00       234.53
 1032.91        2953.75           1272          70.00       269.40
 1032.94        2954.00           1276          68.00       260.68
 1032.97        2954.25           1279          64.00       243.25
 1033.00        2954.50           1282          63.00       238.89
 1033.03        2954.75           1286          63.00       238.89
 1033.06        2955.00           1289          71.00       273.76
 1033.09        2955.25           1292          62.00       234.53
 1033.12        2955.50           1296          64.00       243.25
 1033.15        2955.75           1299          60.00       225.81
 1033.19        2956.00           1302          71.00       273.76
 1033.22        2956.25           1306          65.00       247.60
 1033.25        2956.50           1309          67.00       256.32
 1033.28        2956.75           1312          61.00       230.17
 1033.31        2957.00           1316          67.00       256.32
 1033.34        2957.25           1319          66.00       251.96
 1033.37        2957.50           1322          62.00       234.53
 1033.40        2957.75           1326          63.00       238.89
 1033.43        2958.00           1329          68.00       260.68
 1033.46        2958.25           1332          65.00       247.60
 1033.49        2958.50           1336          62.00       234.53
 1033.52        2958.75           1339          74.00       286.84
 1033.55        2959.00           1342          71.00       273.76
 1033.59        2959.25           1346          75.00       291.20
 1033.62        2959.50           1349          76.00       295.56
 1033.65        2959.75           1352          89.00       352.23
 1033.68        2960.00           1356         108.00       435.05
 1033.71        2960.25           1359         142.00       583.27
 1033.74        2960.50           1362         171.00       709.69
 1033.77        2960.75           1366         220.00       923.30
 1033.80        2961.00           1369         277.00      1171.79
 1033.83        2961.25           1372         303.00      1285.14
 1033.86        2961.50           1376         406.00      1734.18
 1033.90        2961.75           1379         689.00      2968.01
 1033.93        2962.00           1382        1521.00      6595.90
 1033.96        2962.25           1386        3361.00     14621.93
 1033.99        2962.50           1389        4850.00     21119.74
 1034.02        2962.75           1392        6343.00     27637.55
 1034.05        2963.00           1396        8219.00     35831.00
 1034.08        2963.25           1399        9573.00     41747.11
 1034.11        2963.50           1402       11153.00     48653.35
 1034.14        2963.75           1406       13404.00     58497.51
 1034.17        2964.00           1409       14841.00     64784.91
 1034.21        2964.25           1412       16524.00     72151.66
 1034.24        2964.50           1416       18811.00     82167.43
 1034.27        2964.75           1419       20392.00     89094.84
 1034.30        2965.00           1422       22007.00     96174.21
 1034.33        2965.25           1426       23767.00    103892.60
 1034.36        2965.50           1429       25435.00    111210.90
 1034.39        2965.75           1432       26946.00    117843.10
 1034.42        2966.00           1436       29061.00    127130.90
 1034.45        2966.25           1439       30390.00    132969.70
 1034.49        2966.50           1442       31659.00    138546.80
 1034.52        2966.75           1446       33020.00    144530.30
 1034.55        2967.00           1449       33154.00    145119.50
 1034.58        2967.25           1452       33148.00    145093.10
 1034.61        2967.50           1456       33189.00    145273.40
 1034.64        2967.75           1459       33006.00    144468.70
 1034.67        2968.00           1462       32828.00    143686.10
 1034.70        2968.25           1466       31567.00    138142.40
 1034.73        2968.50           1469       30248.00    132345.70
 1034.76        2968.75           1472       28819.00    126067.90
 1034.80        2969.00           1476       26849.00    117417.20
 1034.83        2969.25           1479       25438.00    111224.00
 1034.86        2969.50           1482       23920.00    104563.80
 1034.89        2969.75           1486       21730.00     94959.77
 1034.92        2970.00           1489       20101.00     87819.56
 1034.95        2970.25           1492       18717.00     81755.65
 1034.98        2970.50           1496       16659.00     72742.71
 1035.01        2970.75           1499       15265.00     66640.51
 1035.05        2971.00           1502       13608.00     59389.94
 1035.08        2971.25           1506       11454.00     49969.37
 1035.11        2971.50           1509        9932.00     43316.07
 1035.14        2971.75           1513        7886.00     34376.33
 1035.17        2972.00           1516        6371.00     27759.82
 1035.20        2972.25           1519        4864.00     21180.85
 1035.23        2972.50           1523        2967.00     12902.99
 1035.26        2972.75           1526        1699.00      7372.16
 1035.29        2973.00           1529         737.00      3177.29
 1035.32        2973.25           1533         430.00      1838.81
 1035.35        2973.50           1536         345.00      1468.24
 1035.38        2973.75           1539         307.00      1302.58
 1035.42        2974.00           1543         241.00      1014.85
 1035.45        2974.25           1546         185.00       770.72
 1035.48        2974.50           1549         155.00       639.94
 1035.51        2974.75           1553         112.00       452.49
 1035.54        2975.00           1556          91.00       360.95
 1035.57        2975.25           1559          68.00       260.68
 1035.60        2975.50           1563          67.00       256.32
 1035.63        2975.75           1566          64.00       243.25
 1035.66        2976.00           1569          68.00       260.68
 1035.69        2976.25           1573          70.00       269.40
 1035.72        2976.50           1576          64.00       243.25
 1035.75        2976.75           1579          64.00       243.25
 1035.78        2977.00           1583          64.00       243.25
 1035.81        2977.25           1586          62.00       234.53
 1035.84        2977.50           1590          64.00       243.25
 1035.88        2977.75           1593          61.00       230.17
 1035.91        2978.00           1596          66.00       251.96
 1035.94        2978.25           1600          57.00       212.73
 1035.97        2978.50           1603          59.00       221.45
 1036.00        2978.75           1606          65.00       247.60
 1036.03        2979.00           1610          58.00       217.09
 1036.06        2979.25           1613          64.00       243.25
 1036.09        2979.50           1616          61.00       230.17
 1036.12        2979.75           1620          59.00       221.45
 1036.15        2980.00           1623          61.00       230.17
 1036.18        2980.25           1626          58.00       217.09
 1036.21        2980.50           1630          61.00       230.17
 1036.24        2980.75           1633          59.00       221.45
 1036.27        2981.00           1637          60.00       225.81
 1036.30        2981.25           1640          57.00       212.73
 1036.34        2981.50           1643          62.00       234.53
 1036.37        2981.75           1647          62.00       234.53
 1036.40        2982.00           1650          68.00       260.68
 1036.43        2982.25           1653          60.00       225.81
 1036.46        2982.50           1657          56.00       208.37
 1036.49        2982.75           1660          52.00       190.93
 1036.52        2983.00           1663          56.00       208.37
 1036.55        2983.25           1667          56.00       208.37
 1036.58        2983.50           1670          58.00       217.09
 1036.61        2983.75           1673          60.00       225.81
 1036.64        2984.00           1677          53.00       195.29
HS scan finished at 17:16:51
end
