************************************************************
  HS Scan of (1) Internal mercury lamp
************************************************************
Integration time is 0.2294 seconds per sample
dh151117Manchester 53.47 2.23 2.804185pr1000
************************************************************
Dead Time -------------------------  3E-08 
Number of Cycles Used -------------  4 
Starting Wavelength (Angstroms) ---  2950 
Final Wavelength (Angstoms) -------  2984 
Wavelength Increment (Angstroms) --  .25 
Filter Wheel #1 Position ---------- (1) Ground quartz diffuser (ND=2.32)
Filter Wheel #2 Position ---------- (1) Neutral Density 0.494



************************************************************
HS scan start time = 04:43:58
Dark Count =  7.1 


Time (GMT)  Wavelength (Ang)  Step Number  Raw Counts  Counts/Second

  284.34        2950.00           1222          67.00       261.12
  284.41        2950.25           1226          64.00       248.04
  284.44        2950.50           1229          68.00       265.48
  284.47        2950.75           1232          68.00       265.48
  284.50        2951.00           1236          66.00       256.76
  284.53        2951.25           1239          68.00       265.48
  284.56        2951.50           1242          58.00       221.88
  284.59        2951.75           1246          70.00       274.20
  284.62        2952.00           1249          61.00       234.96
  284.65        2952.25           1252          75.00       295.99
  284.68        2952.50           1256          68.00       265.48
  284.71        2952.75           1259          70.00       274.20
  284.74        2953.00           1262          64.00       248.04
  284.78        2953.25           1266          69.00       269.84
  284.81        2953.50           1269          75.00       295.99
  284.84        2953.75           1272          75.00       295.99
  284.87        2954.00           1276          63.00       243.68
  284.90        2954.25           1279          64.00       248.04
  284.93        2954.50           1282          56.00       213.17
  284.96        2954.75           1286          71.00       278.56
  284.99        2955.00           1289          58.00       221.88
  285.02        2955.25           1292          66.00       256.76
  285.05        2955.50           1296          65.00       252.40
  285.08        2955.75           1299          66.00       256.76
  285.12        2956.00           1302          69.00       269.84
  285.15        2956.25           1306          64.00       248.04
  285.18        2956.50           1309          74.00       291.63
  285.21        2956.75           1312          65.00       252.40
  285.24        2957.00           1316          68.00       265.48
  285.27        2957.25           1319          61.00       234.96
  285.30        2957.50           1322          64.00       248.04
  285.33        2957.75           1326          67.00       261.12
  285.36        2958.00           1329          70.00       274.20
  285.39        2958.25           1332          63.00       243.68
  285.42        2958.50           1336          70.00       274.20
  285.45        2958.75           1339          65.00       252.40
  285.49        2959.00           1342          63.00       243.68
  285.52        2959.25           1346          70.00       274.20
  285.55        2959.50           1349          73.00       287.27
  285.58        2959.75           1352          90.00       361.38
  285.61        2960.00           1356         101.00       409.33
  285.64        2960.25           1359         132.00       544.47
  285.67        2960.50           1362         179.00       749.36
  285.70        2960.75           1366         222.00       936.82
  285.73        2961.00           1369         253.00      1071.96
  285.76        2961.25           1372         299.00      1272.50
  285.80        2961.50           1376         361.00      1542.79
  285.83        2961.75           1379         495.00      2126.99
  285.86        2962.00           1382         970.00      4198.00
  285.89        2962.25           1386        2558.00     11123.59
  285.92        2962.50           1389        4034.00     17563.31
  285.95        2962.75           1392        5598.00     24389.68
  285.98        2963.00           1396        7571.00     33005.20
  286.01        2963.25           1399        8974.00     39134.42
  286.04        2963.50           1402       10572.00     46118.26
  286.07        2963.75           1406       12783.00     55785.97
  286.10        2964.00           1409       14234.00     62133.59
  286.14        2964.25           1412       15909.00     69464.13
  286.17        2964.50           1416       18102.00     79066.58
  286.20        2964.75           1419       19476.00     85085.71
  286.23        2965.00           1422       21217.00     92715.68
  286.26        2965.25           1426       23222.00    101507.00
  286.29        2965.50           1429       24536.00    107271.00
  286.32        2965.75           1432       26190.00    114529.30
  286.35        2966.00           1436       28204.00    123371.70
  286.38        2966.25           1439       29751.00    130166.90
  286.41        2966.50           1442       31150.00    136314.40
  286.45        2966.75           1446       32948.00    144218.50
  286.48        2967.00           1449       33476.00    146540.40
  286.51        2967.25           1452       33507.00    146676.70
  286.54        2967.50           1456       33644.00    147279.20
  286.57        2967.75           1459       33526.00    146760.30
  286.60        2968.00           1462       33406.00    146232.50
  286.63        2968.25           1466       32614.00    142750.00
  286.66        2968.50           1469       31425.00    137523.10
  286.69        2968.75           1472       29757.00    130193.20
  286.72        2969.00           1476       28081.00    122831.50
  286.76        2969.25           1479       26471.00    115762.70
  286.79        2969.50           1482       24735.00    108144.10
  286.82        2969.75           1486       22666.00     99068.64
  286.85        2970.00           1489       21224.00     92746.37
  286.88        2970.25           1492       19631.00     85764.85
  286.91        2970.50           1496       17615.00     76933.69
  286.94        2970.75           1499       15994.00     69836.22
  286.97        2971.00           1502       14584.00     63665.08
  287.00        2971.25           1506       12462.00     54382.03
  287.03        2971.50           1509       10948.00     47761.94
  287.06        2971.75           1513        9037.00     39409.69
  287.10        2972.00           1516        7407.00     32288.89
  287.13        2972.25           1519        5820.00     25358.87
  287.16        2972.50           1523        3816.00     16612.03
  287.19        2972.75           1526        2336.00     10155.23
  287.22        2973.00           1529        1134.00      4913.10
  287.25        2973.25           1533         453.00      1943.88
  287.28        2973.50           1536         334.00      1425.08
  287.31        2973.75           1539         307.00      1307.37
  287.34        2974.00           1543         263.00      1115.56
  287.37        2974.25           1546         200.00       840.91
  287.40        2974.50           1549         146.00       605.50
  287.44        2974.75           1553         110.00       448.57
  287.47        2975.00           1556          87.00       348.30
  287.50        2975.25           1559          77.00       304.71
  287.53        2975.50           1563          60.00       230.60
  287.56        2975.75           1566          60.00       230.60
  287.59        2976.00           1569          64.00       248.04
  287.62        2976.25           1573          63.00       243.68
  287.65        2976.50           1576          64.00       248.04
  287.68        2976.75           1579          60.00       230.60
  287.71        2977.00           1583          65.00       252.40
  287.74        2977.25           1586          65.00       252.40
  287.78        2977.50           1590          56.00       213.17
  287.81        2977.75           1593          65.00       252.40
  287.84        2978.00           1596          60.00       230.60
  287.87        2978.25           1600          57.00       217.53
  287.90        2978.50           1603          65.00       252.40
  287.93        2978.75           1606          65.00       252.40
  287.96        2979.00           1610          75.00       295.99
  287.99        2979.25           1613          57.00       217.53
  288.02        2979.50           1616          57.00       217.53
  288.05        2979.75           1620          58.00       221.88
  288.08        2980.00           1623          56.00       213.17
  288.12        2980.25           1626          54.00       204.45
  288.15        2980.50           1630          58.00       221.88
  288.18        2980.75           1633          59.00       226.24
  288.21        2981.00           1637          63.00       243.68
  288.24        2981.25           1640          63.00       243.68
  288.27        2981.50           1643          57.00       217.53
  288.30        2981.75           1647          64.00       248.04
  288.33        2982.00           1650          57.00       217.53
  288.36        2982.25           1653          58.00       221.88
  288.39        2982.50           1657          59.00       226.24
  288.42        2982.75           1660          57.00       217.53
  288.45        2983.00           1663          55.00       208.81
  288.48        2983.25           1667          60.00       230.60
  288.51        2983.50           1670          62.00       239.32
  288.55        2983.75           1673          57.00       217.53
  288.58        2984.00           1677          54.00       204.45
HS scan finished at 04:48:47
end
************************************************************
  HS Scan of (1) Internal mercury lamp
************************************************************
Integration time is 0.2294 seconds per sample
dh151117Manchester 53.47 2.23 2.804185pr1000
************************************************************
Dead Time -------------------------  3E-08 
Number of Cycles Used -------------  4 
Starting Wavelength (Angstroms) ---  2950 
Final Wavelength (Angstoms) -------  2984 
Wavelength Increment (Angstroms) --  .25 
Filter Wheel #1 Position ---------- (1) Ground quartz diffuser (ND=2.32)
Filter Wheel #2 Position ---------- (1) Neutral Density 0.494



************************************************************
HS scan start time = 17:12:03
Dark Count =  4.3 


Time (GMT)  Wavelength (Ang)  Step Number  Raw Counts  Counts/Second

 1032.43        2950.00           1222          68.00       277.68
 1032.49        2950.25           1226          68.00       277.68
 1032.53        2950.50           1229          66.00       268.96
 1032.56        2950.75           1232          69.00       282.04
 1032.59        2951.00           1236          70.00       286.40
 1032.62        2951.25           1239          63.00       255.89
 1032.65        2951.50           1242          68.00       277.68
 1032.68        2951.75           1246          59.00       238.45
 1032.71        2952.00           1249          69.00       282.04
 1032.74        2952.25           1252          71.00       290.76
 1032.77        2952.50           1256          69.00       282.04
 1032.80        2952.75           1259          65.00       264.61
 1032.83        2953.00           1262          63.00       255.89
 1032.87        2953.25           1266          65.00       264.61
 1032.90        2953.50           1269          67.00       273.32
 1032.93        2953.75           1272          68.00       277.68
 1032.96        2954.00           1276          68.00       277.68
 1032.99        2954.25           1279          68.00       277.68
 1033.02        2954.50           1282          77.00       316.92
 1033.05        2954.75           1286          70.00       286.40
 1033.08        2955.00           1289          66.00       268.96
 1033.11        2955.25           1292          65.00       264.61
 1033.14        2955.50           1296          67.00       273.32
 1033.17        2955.75           1299          66.00       268.96
 1033.20        2956.00           1302          65.00       264.61
 1033.23        2956.25           1306          72.00       295.12
 1033.26        2956.50           1309          72.00       295.12
 1033.29        2956.75           1312          74.00       303.84
 1033.33        2957.00           1316          58.00       234.09
 1033.36        2957.25           1319          69.00       282.04
 1033.39        2957.50           1322          69.00       282.04
 1033.42        2957.75           1326          69.00       282.04
 1033.45        2958.00           1329          70.00       286.40
 1033.48        2958.25           1332          60.00       242.81
 1033.51        2958.50           1336          71.00       290.76
 1033.54        2958.75           1339          60.00       242.81
 1033.57        2959.00           1342          86.00       356.15
 1033.60        2959.25           1346          78.00       321.28
 1033.63        2959.50           1349          72.00       295.12
 1033.66        2959.75           1352          89.00       369.23
 1033.70        2960.00           1356         115.00       482.57
 1033.73        2960.25           1359         150.00       635.15
 1033.76        2960.50           1362         198.00       844.40
 1033.79        2960.75           1366         239.00      1023.14
 1033.82        2961.00           1369         278.00      1193.16
 1033.85        2961.25           1372         308.00      1323.94
 1033.88        2961.50           1376         377.00      1624.75
 1033.91        2961.75           1379         498.00      2152.28
 1033.94        2962.00           1382        1032.00      4480.55
 1033.97        2962.25           1386        2598.00     11310.29
 1034.00        2962.50           1389        4044.00     17619.16
 1034.03        2962.75           1392        5578.00     24314.59
 1034.06        2963.00           1396        7573.00     33026.17
 1034.09        2963.25           1399        8972.00     39137.91
 1034.13        2963.50           1402       10501.00     45820.14
 1034.16        2963.75           1406       12777.00     55771.97
 1034.19        2964.00           1409       14288.00     62382.12
 1034.22        2964.25           1412       15911.00     69485.15
 1034.25        2964.50           1416       17953.00     78426.25
 1034.28        2964.75           1419       19629.00     85768.35
 1034.31        2965.00           1422       21185.00     92587.68
 1034.34        2965.25           1426       23162.00    101256.10
 1034.37        2965.50           1429       24623.00    107665.00
 1034.40        2965.75           1432       26475.00    115792.60
 1034.44        2966.00           1436       28208.00    123401.50
 1034.47        2966.25           1439       29719.00    130038.60
 1034.50        2966.50           1442       31076.00    136001.50
 1034.53        2966.75           1446       32793.00    143549.30
 1034.56        2967.00           1449       33179.00    145246.60
 1034.59        2967.25           1452       33046.00    144661.80
 1034.62        2967.50           1456       33372.00    146095.30
 1034.65        2967.75           1459       33328.00    145901.90
 1034.69        2968.00           1462       33252.00    145567.60
 1034.72        2968.25           1466       32334.00    141531.20
 1034.75        2968.50           1469       30889.00    135179.60
 1034.78        2968.75           1472       29531.00    129212.60
 1034.81        2969.00           1476       27665.00    121017.00
 1034.84        2969.25           1479       25964.00    113549.60
 1034.87        2969.50           1482       24485.00    107059.50
 1034.90        2969.75           1486       22379.00     97822.40
 1034.93        2970.00           1489       21106.00     92241.38
 1034.96        2970.25           1492       19487.00     85146.16
 1034.99        2970.50           1496       17363.00     75842.38
 1035.02        2970.75           1499       15807.00     69029.91
 1035.06        2971.00           1502       14229.00     62123.96
 1035.09        2971.25           1506       12257.00     53497.74
 1035.12        2971.50           1509       10732.00     46829.91
 1035.15        2971.75           1513        8697.00     37936.35
 1035.18        2972.00           1516        7315.00     31899.30
 1035.21        2972.25           1519        5780.00     25196.46
 1035.24        2972.50           1523        3909.00     17030.06
 1035.27        2972.75           1526        2289.00      9962.44
 1035.30        2973.00           1529        1028.00      4463.11
 1035.33        2973.25           1533         425.00      1834.02
 1035.37        2973.50           1536         300.00      1289.06
 1035.40        2973.75           1539         271.00      1162.64
 1035.43        2974.00           1543         225.00       962.10
 1035.46        2974.25           1546         163.00       691.82
 1035.49        2974.50           1549         127.00       534.88
 1035.52        2974.75           1553          91.00       377.95
 1035.55        2975.00           1556          73.00       299.48
 1035.58        2975.25           1559          72.00       295.12
 1035.61        2975.50           1563          65.00       264.61
 1035.64        2975.75           1566          62.00       251.53
 1035.68        2976.00           1569          71.00       290.76
 1035.71        2976.25           1573          57.00       229.73
 1035.74        2976.50           1576          61.00       247.17
 1035.77        2976.75           1579          61.00       247.17
 1035.80        2977.00           1583          63.00       255.89
 1035.83        2977.25           1586          57.00       229.73
 1035.86        2977.50           1590          67.00       273.32
 1035.89        2977.75           1593          59.00       238.45
 1035.92        2978.00           1596          57.00       229.73
 1035.95        2978.25           1600          64.00       260.25
 1035.98        2978.50           1603          61.00       247.17
 1036.02        2978.75           1606          61.00       247.17
 1036.05        2979.00           1610          58.00       234.09
 1036.08        2979.25           1613          61.00       247.17
 1036.11        2979.50           1616          60.00       242.81
 1036.14        2979.75           1620          65.00       264.61
 1036.17        2980.00           1623          59.00       238.45
 1036.20        2980.25           1626          58.00       234.09
 1036.23        2980.50           1630          63.00       255.89
 1036.26        2980.75           1633          63.00       255.89
 1036.29        2981.00           1637          60.00       242.81
 1036.33        2981.25           1640          68.00       277.68
 1036.36        2981.50           1643          62.00       251.53
 1036.39        2981.75           1647          64.00       260.25
 1036.42        2982.00           1650          58.00       234.09
 1036.45        2982.25           1653          58.00       234.09
 1036.48        2982.50           1657          66.00       268.96
 1036.51        2982.75           1660          58.00       234.09
 1036.54        2983.00           1663          59.00       238.45
 1036.57        2983.25           1667          62.00       251.53
 1036.60        2983.50           1670          62.00       251.53
 1036.63        2983.75           1673          63.00       255.89
 1036.67        2984.00           1677          54.00       216.65
HS scan finished at 17:16:53
end
