************************************************************
  HS Scan of (1) Internal mercury lamp
************************************************************
Integration time is 0.2294 seconds per sample
dh061117Manchester 53.47 2.23 2.750537pr1000
************************************************************
Dead Time -------------------------  3E-08 
Number of Cycles Used -------------  4 
Starting Wavelength (Angstroms) ---  2950 
Final Wavelength (Angstoms) -------  2984 
Wavelength Increment (Angstroms) --  .25 
Filter Wheel #1 Position ---------- (1) Ground quartz diffuser (ND=2.32)
Filter Wheel #2 Position ---------- (1) Neutral Density 0.494



************************************************************
HS scan start time = 04:29:24
Dark Count =  6.5 


Time (GMT)  Wavelength (Ang)  Step Number  Raw Counts  Counts/Second

  269.77        2950.00           1222          68.00       268.09
  269.84        2950.25           1226          71.00       281.17
  269.87        2950.50           1229          64.00       250.66
  269.90        2950.75           1232          74.00       294.25
  269.93        2951.00           1236          70.00       276.81
  269.96        2951.25           1239          69.00       272.45
  269.99        2951.50           1242          67.00       263.73
  270.02        2951.75           1246          64.00       250.66
  270.05        2952.00           1249          66.00       259.37
  270.08        2952.25           1252          64.00       250.66
  270.12        2952.50           1256          69.00       272.45
  270.15        2952.75           1259          65.00       255.02
  270.18        2953.00           1262          68.00       268.09
  270.21        2953.25           1266          66.00       259.37
  270.24        2953.50           1269          70.00       276.81
  270.27        2953.75           1272          66.00       259.37
  270.30        2954.00           1276          69.00       272.45
  270.33        2954.25           1279          70.00       276.81
  270.36        2954.50           1282          61.00       237.58
  270.39        2954.75           1286          61.00       237.58
  270.42        2955.00           1289          72.00       285.53
  270.45        2955.25           1292          73.00       289.89
  270.48        2955.50           1296          62.00       241.94
  270.52        2955.75           1299          70.00       276.81
  270.55        2956.00           1302          67.00       263.73
  270.58        2956.25           1306          64.00       250.66
  270.61        2956.50           1309          67.00       263.73
  270.64        2956.75           1312          70.00       276.81
  270.67        2957.00           1316          65.00       255.02
  270.70        2957.25           1319          67.00       263.73
  270.73        2957.50           1322          68.00       268.09
  270.76        2957.75           1326          68.00       268.09
  270.79        2958.00           1329          63.00       246.30
  270.82        2958.25           1332          62.00       241.94
  270.85        2958.50           1336          70.00       276.81
  270.88        2958.75           1339          66.00       259.37
  270.91        2959.00           1342          69.00       272.45
  270.95        2959.25           1346          66.00       259.37
  270.98        2959.50           1349          69.00       272.45
  271.01        2959.75           1352          76.00       302.97
  271.04        2960.00           1356          87.00       350.92
  271.07        2960.25           1359         129.00       534.01
  271.10        2960.50           1362         162.00       677.87
  271.13        2960.75           1366         194.00       817.37
  271.16        2961.00           1369         237.00      1004.83
  271.19        2961.25           1372         272.00      1157.41
  271.22        2961.50           1376         351.00      1501.81
  271.26        2961.75           1379         535.00      2304.00
  271.29        2962.00           1382        1136.00      4924.44
  271.32        2962.25           1386        2731.00     11880.87
  271.35        2962.50           1389        4287.00     18670.00
  271.38        2962.75           1392        5763.00     25112.64
  271.41        2963.00           1396        7764.00     33850.84
  271.44        2963.25           1399        9368.00     40858.69
  271.47        2963.50           1402       10901.00     47559.09
  271.50        2963.75           1406       12986.00     56676.49
  271.53        2964.00           1409       14855.00     64853.61
  271.56        2964.25           1412       16280.00     71090.87
  271.59        2964.50           1416       18185.00     79432.75
  271.62        2964.75           1419       19843.00     86696.42
  271.66        2965.00           1422       21325.00     93191.74
  271.69        2965.25           1426       23387.00    102233.30
  271.72        2965.50           1429       24977.00    109208.60
  271.75        2965.75           1432       26649.00    116546.70
  271.78        2966.00           1436       28715.00    125618.60
  271.81        2966.25           1439       30129.00    131830.30
  271.84        2966.50           1442       31546.00    138057.50
  271.87        2966.75           1446       32986.00    144388.30
  271.90        2967.00           1449       33219.00    145412.80
  271.93        2967.25           1452       33298.00    145760.20
  271.97        2967.50           1456       33321.00    145861.40
  272.00        2967.75           1459       33267.00    145623.90
  272.03        2968.00           1462       33174.00    145214.90
  272.06        2968.25           1466       32253.00    141165.40
  272.09        2968.50           1469       30767.00    134633.80
  272.12        2968.75           1472       29348.00    128399.10
  272.15        2969.00           1476       27340.00    119580.40
  272.18        2969.25           1479       25858.00    113074.70
  272.21        2969.50           1482       24237.00    105961.90
  272.25        2969.75           1486       22312.00     97518.97
  272.28        2970.00           1489       20571.00     89886.78
  272.31        2970.25           1492       19237.00     84041.18
  272.34        2970.50           1496       17353.00     75788.96
  272.37        2970.75           1499       15831.00     69125.34
  272.40        2971.00           1502       14449.00     63076.97
  272.43        2971.25           1506       12473.00     54432.76
  272.46        2971.50           1509       10850.00     47336.14
  272.49        2971.75           1513        8550.00     37284.49
  272.53        2972.00           1516        7088.00     30898.29
  272.56        2972.25           1519        5601.00     24405.40
  272.59        2972.50           1523        3602.00     15680.87
  272.62        2972.75           1526        2280.00      9913.58
  272.65        2973.00           1529        1103.00      4780.55
  272.68        2973.25           1533         497.00      2138.32
  272.71        2973.50           1536         370.00      1584.64
  272.74        2973.75           1539         318.00      1357.95
  272.77        2974.00           1543         267.00      1135.61
  272.80        2974.25           1546         214.00       904.56
  272.83        2974.50           1549         181.00       760.70
  272.86        2974.75           1553         126.00       520.93
  272.90        2975.00           1556         110.00       451.18
  272.93        2975.25           1559          76.00       302.97
  272.96        2975.50           1563          71.00       281.17
  272.99        2975.75           1566          64.00       250.66
  273.02        2976.00           1569          61.00       237.58
  273.05        2976.25           1573          55.00       211.42
  273.08        2976.50           1576          66.00       259.37
  273.11        2976.75           1579          62.00       241.94
  273.14        2977.00           1583          60.00       233.22
  273.17        2977.25           1586          57.00       220.14
  273.20        2977.50           1590          65.00       255.02
  273.23        2977.75           1593          57.00       220.14
  273.27        2978.00           1596          64.00       250.66
  273.30        2978.25           1600          70.00       276.81
  273.33        2978.50           1603          63.00       246.30
  273.36        2978.75           1606          60.00       233.22
  273.39        2979.00           1610          67.00       263.73
  273.42        2979.25           1613          59.00       228.86
  273.45        2979.50           1616          54.00       207.06
  273.48        2979.75           1620          68.00       268.09
  273.51        2980.00           1623          66.00       259.37
  273.54        2980.25           1626          58.00       224.50
  273.58        2980.50           1630          54.00       207.06
  273.61        2980.75           1633          70.00       276.81
  273.64        2981.00           1637          64.00       250.66
  273.67        2981.25           1640          61.00       237.58
  273.70        2981.50           1643          64.00       250.66
  273.73        2981.75           1647          65.00       255.02
  273.76        2982.00           1650          58.00       224.50
  273.79        2982.25           1653          58.00       224.50
  273.82        2982.50           1657          67.00       263.73
  273.85        2982.75           1660          59.00       228.86
  273.88        2983.00           1663          66.00       259.37
  273.91        2983.25           1667          56.00       215.78
  273.94        2983.50           1670          60.00       233.22
  273.98        2983.75           1673          58.00       224.50
  274.01        2984.00           1677          64.00       250.66
HS scan finished at 04:34:13
end
