************************************************************
  HS Scan of (1) Internal mercury lamp
************************************************************
Integration time is 0.2294 seconds per sample
dh151118Manchester 53.47 2.23 2.804185pr1000
************************************************************
Dead Time -------------------------  3E-08 
Number of Cycles Used -------------  4 
Starting Wavelength (Angstroms) ---  2950 
Final Wavelength (Angstoms) -------  2984 
Wavelength Increment (Angstroms) --  .25 
Filter Wheel #1 Position ---------- (1) Ground quartz diffuser (ND=2.32)
Filter Wheel #2 Position ---------- (1) Neutral Density 0.494



************************************************************
HS scan start time = 04:43:35
Dark Count =  7.4 


Time (GMT)  Wavelength (Ang)  Step Number  Raw Counts  Counts/Second

  283.95        2950.00           1222          50.00       185.70
  284.02        2950.25           1226          49.00       181.34
  284.05        2950.50           1229          46.00       168.27
  284.08        2950.75           1232          50.00       185.70
  284.11        2951.00           1236          58.00       220.58
  284.14        2951.25           1239          50.00       185.70
  284.17        2951.50           1242          56.00       211.86
  284.21        2951.75           1246          50.00       185.70
  284.24        2952.00           1249          54.00       203.14
  284.27        2952.25           1252          52.00       194.42
  284.30        2952.50           1256          38.00       133.39
  284.33        2952.75           1259          59.00       224.94
  284.36        2953.00           1262          48.00       176.98
  284.39        2953.25           1266          54.00       203.14
  284.42        2953.50           1269          46.00       168.27
  284.45        2953.75           1272          47.00       172.63
  284.48        2954.00           1276          64.00       246.73
  284.51        2954.25           1279          52.00       194.42
  284.54        2954.50           1282          47.00       172.63
  284.58        2954.75           1286          47.00       172.63
  284.61        2955.00           1289          52.00       194.42
  284.64        2955.25           1292          47.00       172.63
  284.67        2955.50           1296          50.00       185.70
  284.70        2955.75           1299          50.00       185.70
  284.73        2956.00           1302          45.00       163.91
  284.76        2956.25           1306          55.00       207.50
  284.79        2956.50           1309          49.00       181.34
  284.82        2956.75           1312          43.00       155.19
  284.85        2957.00           1316          46.00       168.27
  284.88        2957.25           1319          44.00       159.55
  284.92        2957.50           1322          50.00       185.70
  284.95        2957.75           1326          47.00       172.63
  284.98        2958.00           1329          51.00       190.06
  285.01        2958.25           1332          45.00       163.91
  285.04        2958.50           1336          51.00       190.06
  285.07        2958.75           1339          42.00       150.83
  285.10        2959.00           1342          45.00       163.91
  285.13        2959.25           1346          54.00       203.14
  285.16        2959.50           1349          53.00       198.78
  285.19        2959.75           1352          61.00       233.65
  285.22        2960.00           1356          79.00       312.12
  285.25        2960.25           1359          96.00       386.23
  285.29        2960.50           1362         125.00       512.65
  285.32        2960.75           1366         166.00       691.38
  285.35        2961.00           1369         189.00       791.65
  285.38        2961.25           1372         206.00       865.76
  285.41        2961.50           1376         271.00      1149.12
  285.44        2961.75           1379         342.00      1458.65
  285.47        2962.00           1382         571.00      2457.03
  285.50        2962.25           1386        1596.00      6926.46
  285.53        2962.50           1389        2626.00     11418.91
  285.56        2962.75           1392        3670.00     15973.65
  285.59        2963.00           1396        5170.00     22520.01
  285.63        2963.25           1399        6229.00     27143.28
  285.66        2963.50           1402        7309.00     31859.56
  285.69        2963.75           1406        8859.00     38630.62
  285.72        2964.00           1409       10063.00     43892.11
  285.75        2964.25           1412       11271.00     49172.75
  285.78        2964.50           1416       12841.00     56038.33
  285.81        2964.75           1419       14029.00     61235.32
  285.84        2965.00           1422       15132.00     66061.93
  285.87        2965.25           1426       16811.00     73411.72
  285.91        2965.50           1429       18027.00     78736.77
  285.94        2965.75           1432       19183.00     83800.65
  285.97        2966.00           1436       20445.00     89330.62
  286.00        2966.25           1439       21680.00     94744.06
  286.03        2966.50           1442       22740.00     99391.83
  286.06        2966.75           1446       23878.00    104383.00
  286.09        2967.00           1449       24445.00    106870.40
  286.12        2967.25           1452       24553.00    107344.30
  286.15        2967.50           1456       24486.00    107050.30
  286.18        2967.75           1459       24416.00    106743.20
  286.21        2968.00           1462       24452.00    106901.10
  286.25        2968.25           1466       23931.00    104615.50
  286.28        2968.50           1469       23141.00    101150.40
  286.31        2968.75           1472       22114.00     96646.86
  286.34        2969.00           1476       20769.00     90750.66
  286.37        2969.25           1479       19675.00     85956.34
  286.40        2969.50           1482       18545.00     81005.70
  286.43        2969.75           1486       17057.00     74488.85
  286.46        2970.00           1489       15748.00     68758.07
  286.49        2970.25           1492       14849.00     64823.41
  286.53        2970.50           1496       13189.00     57560.51
  286.56        2970.75           1499       12098.00     52788.85
  286.59        2971.00           1502       11014.00     48049.16
  286.62        2971.25           1506        9466.00     41283.01
  286.65        2971.50           1509        8329.00     36315.04
  286.68        2971.75           1513        6933.00     30217.44
  286.71        2972.00           1516        5856.00     25514.73
  286.74        2972.25           1519        4797.00     20891.90
  286.77        2972.50           1523        3368.00     14655.96
  286.80        2972.75           1526        2173.00      9442.95
  286.84        2973.00           1529        1247.00      5404.54
  286.87        2973.25           1533         408.00      1746.39
  286.90        2973.50           1536         279.00      1184.00
  286.93        2973.75           1539         225.00       948.59
  286.96        2974.00           1543         208.00       874.48
  286.99        2974.25           1546         169.00       704.46
  287.02        2974.50           1549         126.00       517.01
  287.05        2974.75           1553          93.00       373.15
  287.08        2975.00           1556          71.00       277.25
  287.11        2975.25           1559          61.00       233.65
  287.14        2975.50           1563          50.00       185.70
  287.17        2975.75           1566          51.00       190.06
  287.21        2976.00           1569          44.00       159.55
  287.24        2976.25           1573          50.00       185.70
  287.27        2976.50           1576          43.00       155.19
  287.30        2976.75           1579          45.00       163.91
  287.33        2977.00           1583          41.00       146.47
  287.36        2977.25           1586          45.00       163.91
  287.39        2977.50           1590          47.00       172.63
  287.42        2977.75           1593          45.00       163.91
  287.45        2978.00           1596          44.00       159.55
  287.48        2978.25           1600          52.00       194.42
  287.51        2978.50           1603          44.00       159.55
  287.54        2978.75           1606          47.00       172.63
  287.58        2979.00           1610          46.00       168.27
  287.61        2979.25           1613          44.00       159.55
  287.64        2979.50           1616          49.00       181.34
  287.67        2979.75           1620          49.00       181.34
  287.70        2980.00           1623          37.00       129.03
  287.73        2980.25           1626          43.00       155.19
  287.76        2980.50           1630          40.00       142.11
  287.79        2980.75           1633          47.00       172.63
  287.82        2981.00           1637          39.00       137.75
  287.85        2981.25           1640          43.00       155.19
  287.88        2981.50           1643          40.00       142.11
  287.91        2981.75           1647          45.00       163.91
  287.95        2982.00           1650          44.00       159.55
  287.98        2982.25           1653          51.00       190.06
  288.01        2982.50           1657          42.00       150.83
  288.04        2982.75           1660          47.00       172.63
  288.07        2983.00           1663          37.00       129.03
  288.10        2983.25           1667          41.00       146.47
  288.13        2983.50           1670          44.00       159.55
  288.16        2983.75           1673          54.00       203.14
  288.19        2984.00           1677          45.00       163.91
HS scan finished at 04:48:24
end
************************************************************
  HS Scan of (1) Internal mercury lamp
************************************************************
Integration time is 0.2294 seconds per sample
dh151118Manchester 53.47 2.23 2.804185pr1000
************************************************************
Dead Time -------------------------  3E-08 
Number of Cycles Used -------------  4 
Starting Wavelength (Angstroms) ---  2950 
Final Wavelength (Angstoms) -------  2984 
Wavelength Increment (Angstroms) --  .25 
Filter Wheel #1 Position ---------- (1) Ground quartz diffuser (ND=2.32)
Filter Wheel #2 Position ---------- (1) Neutral Density 0.494



************************************************************
HS scan start time = 17:12:01
Dark Count =  7.2 


Time (GMT)  Wavelength (Ang)  Step Number  Raw Counts  Counts/Second

 1032.38        2950.00           1222          51.00       190.93
 1032.45        2950.25           1226          49.00       182.22
 1032.48        2950.50           1229          48.00       177.86
 1032.51        2950.75           1232          51.00       190.93
 1032.54        2951.00           1236          44.00       160.42
 1032.57        2951.25           1239          47.00       173.50
 1032.60        2951.50           1242          57.00       217.09
 1032.63        2951.75           1246          51.00       190.93
 1032.66        2952.00           1249          48.00       177.86
 1032.69        2952.25           1252          49.00       182.22
 1032.72        2952.50           1256          50.00       186.57
 1032.75        2952.75           1259          48.00       177.86
 1032.79        2953.00           1262          49.00       182.22
 1032.82        2953.25           1266          53.00       199.65
 1032.85        2953.50           1269          50.00       186.57
 1032.88        2953.75           1272          48.00       177.86
 1032.91        2954.00           1276          41.00       147.34
 1032.94        2954.25           1279          56.00       212.73
 1032.97        2954.50           1282          56.00       212.73
 1033.00        2954.75           1286          51.00       190.93
 1033.03        2955.00           1289          48.00       177.86
 1033.06        2955.25           1292          45.00       164.78
 1033.09        2955.50           1296          51.00       190.93
 1033.12        2955.75           1299          47.00       173.50
 1033.15        2956.00           1302          47.00       173.50
 1033.18        2956.25           1306          49.00       182.22
 1033.21        2956.50           1309          54.00       204.01
 1033.24        2956.75           1312          54.00       204.01
 1033.27        2957.00           1316          44.00       160.42
 1033.31        2957.25           1319          41.00       147.34
 1033.34        2957.50           1322          46.00       169.14
 1033.37        2957.75           1326          51.00       190.93
 1033.40        2958.00           1329          54.00       204.01
 1033.43        2958.25           1332          48.00       177.86
 1033.46        2958.50           1336          50.00       186.57
 1033.49        2958.75           1339          51.00       190.93
 1033.52        2959.00           1342          45.00       164.78
 1033.55        2959.25           1346          50.00       186.57
 1033.58        2959.50           1349          57.00       217.09
 1033.61        2959.75           1352          61.00       234.53
 1033.64        2960.00           1356          91.00       365.30
 1033.67        2960.25           1359         103.00       417.62
 1033.70        2960.50           1362         130.00       535.32
 1033.73        2960.75           1366         171.00       714.05
 1033.77        2961.00           1369         197.00       827.40
 1033.80        2961.25           1372         224.00       945.10
 1033.83        2961.50           1376         267.00      1132.56
 1033.86        2961.75           1379         329.00      1402.85
 1033.89        2962.00           1382         583.00      2510.22
 1033.92        2962.25           1386        1584.00      6875.00
 1033.95        2962.50           1389        2622.00     11402.33
 1033.98        2962.75           1392        3737.00     16266.87
 1034.01        2963.00           1396        5199.00     22647.47
 1034.04        2963.25           1399        6427.00     28008.70
 1034.07        2963.50           1402        7536.00     32851.89
 1034.11        2963.75           1406        8877.00     38710.14
 1034.14        2964.00           1409       10097.00     44041.59
 1034.17        2964.25           1412       11369.00     49602.09
 1034.20        2964.50           1416       12827.00     55977.98
 1034.23        2964.75           1419       13939.00     60842.42
 1034.26        2965.00           1422       15097.00     65909.62
 1034.29        2965.25           1426       16526.00     72164.80
 1034.32        2965.50           1429       17704.00     77323.03
 1034.35        2965.75           1432       18925.00     82671.22
 1034.38        2966.00           1436       20354.00     88932.69
 1034.41        2966.25           1439       21536.00     94113.65
 1034.45        2966.50           1442       22485.00     98274.50
 1034.48        2966.75           1446       23824.00    104147.00
 1034.51        2967.00           1449       24239.00    105967.60
 1034.54        2967.25           1452       24421.00    106766.00
 1034.57        2967.50           1456       24393.00    106643.20
 1034.60        2967.75           1459       24397.00    106660.70
 1034.63        2968.00           1462       24226.00    105910.50
 1034.66        2968.25           1466       23943.00    104669.10
 1034.69        2968.50           1469       23108.00    101006.60
 1034.73        2968.75           1472       22107.00     96617.05
 1034.76        2969.00           1476       20568.00     89870.58
 1034.79        2969.25           1479       19377.00     84651.50
 1034.82        2969.50           1482       18311.00     79981.57
 1034.85        2969.75           1486       16901.00     73806.66
 1034.88        2970.00           1489       15752.00     68776.46
 1034.91        2970.25           1492       14731.00     64307.90
 1034.94        2970.50           1496       13116.00     57242.07
 1034.97        2970.75           1499       12230.00     53366.98
 1035.00        2971.00           1502       11040.00     48163.71
 1035.04        2971.25           1506        9588.00     41817.03
 1035.07        2971.50           1509        8468.00     36923.18
 1035.10        2971.75           1513        6949.00     30288.19
 1035.13        2972.00           1516        5861.00     25537.43
 1035.16        2972.25           1519        4647.00     20238.09
 1035.19        2972.50           1523        3193.00     13893.32
 1035.22        2972.75           1526        2125.00      9234.47
 1035.25        2973.00           1529        1189.00      5152.50
 1035.28        2973.25           1533         419.00      1795.21
 1035.31        2973.50           1536         273.00      1158.72
 1035.35        2973.75           1539         219.00       923.30
 1035.38        2974.00           1543         174.00       727.13
 1035.41        2974.25           1546         133.00       548.40
 1035.44        2974.50           1549         105.00       426.34
 1035.47        2974.75           1553          71.00       278.12
 1035.50        2975.00           1556          59.00       225.81
 1035.53        2975.25           1559          57.00       217.09
 1035.56        2975.50           1563          43.00       156.06
 1035.59        2975.75           1566          46.00       169.14
 1035.62        2976.00           1569          52.00       195.29
 1035.65        2976.25           1573          47.00       173.50
 1035.69        2976.50           1576          50.00       186.57
 1035.72        2976.75           1579          46.00       169.14
 1035.75        2977.00           1583          41.00       147.34
 1035.78        2977.25           1586          45.00       164.78
 1035.81        2977.50           1590          42.00       151.70
 1035.84        2977.75           1593          46.00       169.14
 1035.87        2978.00           1596          41.00       147.34
 1035.90        2978.25           1600          42.00       151.70
 1035.93        2978.50           1603          47.00       173.50
 1035.96        2978.75           1606          55.00       208.37
 1035.99        2979.00           1610          43.00       156.06
 1036.02        2979.25           1613          39.00       138.62
 1036.05        2979.50           1616          44.00       160.42
 1036.08        2979.75           1620          47.00       173.50
 1036.11        2980.00           1623          47.00       173.50
 1036.15        2980.25           1626          47.00       173.50
 1036.18        2980.50           1630          38.00       134.26
 1036.21        2980.75           1633          45.00       164.78
 1036.24        2981.00           1637          46.00       169.14
 1036.27        2981.25           1640          39.00       138.62
 1036.30        2981.50           1643          44.00       160.42
 1036.33        2981.75           1647          40.00       142.98
 1036.36        2982.00           1650          41.00       147.34
 1036.39        2982.25           1653          40.00       142.98
 1036.42        2982.50           1657          37.00       129.90
 1036.45        2982.75           1660          39.00       138.62
 1036.48        2983.00           1663          43.00       156.06
 1036.51        2983.25           1667          41.00       147.34
 1036.55        2983.50           1670          43.00       156.06
 1036.58        2983.75           1673          38.00       134.26
 1036.61        2984.00           1677          48.00       177.86
HS scan finished at 17:16:49
end
