************************************************************
  HS Scan of (1) Internal mercury lamp
************************************************************
Integration time is 0.2294 seconds per sample
dh221118Manchester 53.47 2.23 2.750537pr1000
************************************************************
Dead Time -------------------------  3E-08 
Number of Cycles Used -------------  4 
Starting Wavelength (Angstroms) ---  2950 
Final Wavelength (Angstoms) -------  2984 
Wavelength Increment (Angstroms) --  .25 
Filter Wheel #1 Position ---------- (1) Ground quartz diffuser (ND=2.32)
Filter Wheel #2 Position ---------- (1) Neutral Density 0.494



************************************************************
HS scan start time = 04:53:55
Dark Count =  5.7 


Time (GMT)  Wavelength (Ang)  Step Number  Raw Counts  Counts/Second

  294.29        2950.00           1222          46.00       175.68
  294.35        2950.25           1226          52.00       201.83
  294.39        2950.50           1229          49.00       188.75
  294.42        2950.75           1232          44.00       166.96
  294.45        2951.00           1236          47.00       180.04
  294.48        2951.25           1239          51.00       197.47
  294.51        2951.50           1242          45.00       171.32
  294.54        2951.75           1246          52.00       201.83
  294.57        2952.00           1249          51.00       197.47
  294.60        2952.25           1252          49.00       188.75
  294.63        2952.50           1256          52.00       201.83
  294.66        2952.75           1259          48.00       184.40
  294.69        2953.00           1262          54.00       210.55
  294.72        2953.25           1266          51.00       197.47
  294.75        2953.50           1269          48.00       184.40
  294.78        2953.75           1272          54.00       210.55
  294.81        2954.00           1276          53.00       206.19
  294.85        2954.25           1279          44.00       166.96
  294.88        2954.50           1282          55.00       214.91
  294.91        2954.75           1286          46.00       175.68
  294.94        2955.00           1289          56.00       219.27
  294.97        2955.25           1292          47.00       180.04
  295.00        2955.50           1296          45.00       171.32
  295.03        2955.75           1299          49.00       188.75
  295.06        2956.00           1302          51.00       197.47
  295.09        2956.25           1306          49.00       188.75
  295.12        2956.50           1309          48.00       184.40
  295.16        2956.75           1312          52.00       201.83
  295.19        2957.00           1316          63.00       249.78
  295.22        2957.25           1319          57.00       223.63
  295.25        2957.50           1322          61.00       241.07
  295.28        2957.75           1326          50.00       193.11
  295.31        2958.00           1329          47.00       180.04
  295.34        2958.25           1332          44.00       166.96
  295.37        2958.50           1336          52.00       201.83
  295.40        2958.75           1339          47.00       180.04
  295.43        2959.00           1342          48.00       184.40
  295.46        2959.25           1346          50.00       193.11
  295.49        2959.50           1349          54.00       210.55
  295.52        2959.75           1352          62.00       245.42
  295.55        2960.00           1356          87.00       354.41
  295.58        2960.25           1359         105.00       432.87
  295.62        2960.50           1362         123.00       511.34
  295.65        2960.75           1366         159.00       668.28
  295.68        2961.00           1369         188.00       794.70
  295.71        2961.25           1372         224.00       951.64
  295.74        2961.50           1376         305.00      1304.76
  295.77        2961.75           1379         396.00      1701.48
  295.80        2962.00           1382         853.00      3693.96
  295.83        2962.25           1386        2111.00      9179.95
  295.86        2962.50           1389        3220.00     14017.66
  295.89        2962.75           1392        4269.00     18594.94
  295.92        2963.00           1396        5763.00     25116.13
  295.96        2963.25           1399        6763.00     29482.48
  295.99        2963.50           1402        7942.00     34631.86
  296.02        2963.75           1406        9325.00     40674.27
  296.05        2964.00           1409       10592.00     46211.80
  296.08        2964.25           1412       11691.00     51016.56
  296.11        2964.50           1416       13235.00     57769.17
  296.14        2964.75           1419       14328.00     62551.01
  296.17        2965.00           1422       15672.00     68432.85
  296.20        2965.25           1426       17095.00     74662.71
  296.24        2965.50           1429       18254.00     79738.47
  296.27        2965.75           1432       19548.00     85407.31
  296.30        2966.00           1436       20929.00     91459.41
  296.33        2966.25           1439       22057.00     96404.39
  296.36        2966.50           1442       22935.00    100254.40
  296.39        2966.75           1446       23924.00    104592.30
  296.42        2967.00           1449       24329.00    106369.00
  296.45        2967.25           1452       24266.00    106092.60
  296.48        2967.50           1456       24253.00    106035.60
  296.52        2967.75           1459       24351.00    106465.50
  296.55        2968.00           1462       24133.00    105509.10
  296.58        2968.25           1466       23229.00    101543.80
  296.61        2968.50           1469       22340.00     97645.26
  296.64        2968.75           1472       21202.00     92656.07
  296.67        2969.00           1476       19781.00     86428.27
  296.70        2969.25           1479       18777.00     82029.44
  296.73        2969.50           1482       17735.00     77465.35
  296.76        2969.75           1486       16410.00     71663.50
  296.79        2970.00           1489       15115.00     65994.96
  296.82        2970.25           1492       14087.00     61496.53
  296.86        2970.50           1496       12542.00     54738.03
  296.89        2970.75           1499       11491.00     50142.07
  296.92        2971.00           1502       10393.00     45341.93
  296.95        2971.25           1506        8737.00     38105.00
  296.98        2971.50           1509        7584.00     33068.10
  297.01        2971.75           1513        6134.00     26735.91
  297.04        2972.00           1516        5038.00     21951.24
  297.07        2972.25           1519        4032.00     17560.69
  297.10        2972.50           1523        2537.00     11038.09
  297.13        2972.75           1526        1553.00      6746.35
  297.16        2973.00           1529         689.00      2978.91
  297.20        2973.25           1533         330.00      1413.75
  297.23        2973.50           1536         244.00      1038.83
  297.26        2973.75           1539         205.00       868.81
  297.29        2974.00           1543         176.00       742.39
  297.32        2974.25           1546         121.00       502.62
  297.35        2974.50           1549         102.00       419.80
  297.38        2974.75           1553          77.00       310.81
  297.41        2975.00           1556          62.00       245.42
  297.44        2975.25           1559          51.00       197.47
  297.48        2975.50           1563          48.00       184.40
  297.51        2975.75           1566          43.00       162.60
  297.54        2976.00           1569          46.00       175.68
  297.57        2976.25           1573          47.00       180.04
  297.60        2976.50           1576          48.00       184.40
  297.63        2976.75           1579          44.00       166.96
  297.66        2977.00           1583          40.00       149.52
  297.69        2977.25           1586          41.00       153.88
  297.72        2977.50           1590          47.00       180.04
  297.75        2977.75           1593          57.00       223.63
  297.78        2978.00           1596          47.00       180.04
  297.81        2978.25           1600          44.00       166.96
  297.84        2978.50           1603          44.00       166.96
  297.87        2978.75           1606          48.00       184.40
  297.90        2979.00           1610          46.00       175.68
  297.93        2979.25           1613          41.00       153.88
  297.96        2979.50           1616          46.00       175.68
  297.99        2979.75           1620          41.00       153.88
  298.03        2980.00           1623          49.00       188.75
  298.06        2980.25           1626          48.00       184.40
  298.09        2980.50           1630          45.00       171.32
  298.12        2980.75           1633          43.00       162.60
  298.15        2981.00           1637          45.00       171.32
  298.18        2981.25           1640          45.00       171.32
  298.21        2981.50           1643          41.00       153.88
  298.24        2981.75           1647          46.00       175.68
  298.27        2982.00           1650          44.00       166.96
  298.30        2982.25           1653          43.00       162.60
  298.33        2982.50           1657          44.00       166.96
  298.36        2982.75           1660          35.00       127.72
  298.39        2983.00           1663          40.00       149.52
  298.42        2983.25           1667          38.00       140.80
  298.45        2983.50           1670          36.00       132.08
  298.48        2983.75           1673          40.00       149.52
  298.51        2984.00           1677          45.00       171.32
HS scan finished at 04:58:44
end
************************************************************
  HS Scan of (1) Internal mercury lamp
************************************************************
Integration time is 0.2294 seconds per sample
dh221118Manchester 53.47 2.23 2.804185pr1000
************************************************************
Dead Time -------------------------  3E-08 
Number of Cycles Used -------------  4 
Starting Wavelength (Angstroms) ---  2950 
Final Wavelength (Angstoms) -------  2984 
Wavelength Increment (Angstroms) --  .25 
Filter Wheel #1 Position ---------- (1) Ground quartz diffuser (ND=2.32)
Filter Wheel #2 Position ---------- (1) Neutral Density 0.494



************************************************************
HS scan start time = 17:12:03
Dark Count =  7.4 


Time (GMT)  Wavelength (Ang)  Step Number  Raw Counts  Counts/Second

 1032.42        2950.00           1222          42.00       150.83
 1032.49        2950.25           1226          45.00       163.91
 1032.52        2950.50           1229          49.00       181.34
 1032.55        2950.75           1232          51.00       190.06
 1032.58        2951.00           1236          55.00       207.50
 1032.61        2951.25           1239          50.00       185.70
 1032.64        2951.50           1242          57.00       216.22
 1032.67        2951.75           1246          54.00       203.14
 1032.70        2952.00           1249          53.00       198.78
 1032.74        2952.25           1252          47.00       172.63
 1032.77        2952.50           1256          58.00       220.58
 1032.80        2952.75           1259          52.00       194.42
 1032.83        2953.00           1262          47.00       172.63
 1032.86        2953.25           1266          56.00       211.86
 1032.89        2953.50           1269          47.00       172.63
 1032.92        2953.75           1272          52.00       194.42
 1032.95        2954.00           1276          49.00       181.34
 1032.98        2954.25           1279          52.00       194.42
 1033.01        2954.50           1282          51.00       190.06
 1033.04        2954.75           1286          45.00       163.91
 1033.07        2955.00           1289          45.00       163.91
 1033.10        2955.25           1292          47.00       172.63
 1033.14        2955.50           1296          49.00       181.34
 1033.17        2955.75           1299          47.00       172.63
 1033.20        2956.00           1302          48.00       176.98
 1033.23        2956.25           1306          50.00       185.70
 1033.26        2956.50           1309          52.00       194.42
 1033.29        2956.75           1312          51.00       190.06
 1033.32        2957.00           1316          52.00       194.42
 1033.35        2957.25           1319          52.00       194.42
 1033.38        2957.50           1322          50.00       185.70
 1033.41        2957.75           1326          54.00       203.14
 1033.44        2958.00           1329          51.00       190.06
 1033.47        2958.25           1332          48.00       176.98
 1033.50        2958.50           1336          53.00       198.78
 1033.53        2958.75           1339          46.00       168.27
 1033.57        2959.00           1342          55.00       207.50
 1033.60        2959.25           1346          61.00       233.65
 1033.63        2959.50           1349          53.00       198.78
 1033.66        2959.75           1352          68.00       264.17
 1033.69        2960.00           1356          89.00       355.71
 1033.72        2960.25           1359         101.00       408.03
 1033.75        2960.50           1362         132.00       543.16
 1033.78        2960.75           1366         172.00       717.54
 1033.81        2961.00           1369         202.00       848.32
 1033.84        2961.25           1372         213.00       896.28
 1033.87        2961.50           1376         273.00      1157.84
 1033.90        2961.75           1379         419.00      1794.34
 1033.94        2962.00           1382         862.00      3725.79
 1033.97        2962.25           1386        2142.00      9307.74
 1034.00        2962.50           1389        3214.00     13984.07
 1034.03        2962.75           1392        4267.00     18578.79
 1034.06        2963.00           1396        5749.00     25047.59
 1034.09        2963.25           1399        6701.00     29204.31
 1034.12        2963.50           1402        7971.00     34751.12
 1034.15        2963.75           1406        9465.00     41278.64
 1034.18        2964.00           1409       10533.00     45946.46
 1034.21        2964.25           1412       11718.00     51127.18
 1034.24        2964.50           1416       13134.00     57319.93
 1034.28        2964.75           1419       14367.00     62714.22
 1034.31        2965.00           1422       15377.00     67134.21
 1034.34        2965.25           1426       16730.00     73057.07
 1034.37        2965.50           1429       17955.00     78421.43
 1034.40        2965.75           1432       19031.00     83134.73
 1034.43        2966.00           1436       20502.00     89580.43
 1034.46        2966.25           1439       21873.00     95590.21
 1034.49        2966.50           1442       22805.00     99676.87
 1034.52        2966.75           1446       23885.00    104413.70
 1034.55        2967.00           1449       24046.00    105120.00
 1034.58        2967.25           1452       24108.00    105392.00
 1034.62        2967.50           1456       24000.00    104918.20
 1034.65        2967.75           1459       24147.00    105563.10
 1034.68        2968.00           1462       23942.00    104663.80
 1034.71        2968.25           1466       23454.00    102523.20
 1034.74        2968.50           1469       22318.00     97541.33
 1034.77        2968.75           1472       21320.00     93165.88
 1034.80        2969.00           1476       20019.00     87463.72
 1034.83        2969.25           1479       18738.00     81851.13
 1034.86        2969.50           1482       17647.00     77072.50
 1034.89        2969.75           1486       16088.00     70246.40
 1034.93        2970.00           1489       14879.00     64954.70
 1034.96        2970.25           1492       14034.00     61257.20
 1034.99        2970.50           1496       12591.00     54944.90
 1035.02        2970.75           1499       11405.00     49758.62
 1035.05        2971.00           1502       10429.00     45491.86
 1035.08        2971.25           1506        8817.00     38447.11
 1035.11        2971.50           1509        7745.00     33763.92
 1035.14        2971.75           1513        6218.00     27095.26
 1035.17        2972.00           1516        5030.00     21908.90
 1035.20        2972.25           1519        4039.00     17583.82
 1035.23        2972.50           1523        2536.00     11026.32
 1035.27        2972.75           1526        1494.00      6481.64
 1035.30        2973.00           1529         637.00      2744.78
 1035.33        2973.25           1533         316.00      1345.30
 1035.36        2973.50           1536         249.00      1053.22
 1035.39        2973.75           1539         216.00       909.35
 1035.42        2974.00           1543         175.00       730.62
 1035.45        2974.25           1546         140.00       578.04
 1035.48        2974.50           1549         116.00       473.42
 1035.51        2974.75           1553          67.00       259.81
 1035.54        2975.00           1556          55.00       207.50
 1035.57        2975.25           1559          41.00       146.47
 1035.61        2975.50           1563          44.00       159.55
 1035.64        2975.75           1566          46.00       168.27
 1035.67        2976.00           1569          53.00       198.78
 1035.70        2976.25           1573          49.00       181.34
 1035.73        2976.50           1576          48.00       176.98
 1035.76        2976.75           1579          49.00       181.34
 1035.79        2977.00           1583          58.00       220.58
 1035.82        2977.25           1586          41.00       146.47
 1035.85        2977.50           1590          49.00       181.34
 1035.88        2977.75           1593          45.00       163.91
 1035.91        2978.00           1596          44.00       159.55
 1035.95        2978.25           1600          46.00       168.27
 1035.98        2978.50           1603          54.00       203.14
 1036.01        2978.75           1606          43.00       155.19
 1036.04        2979.00           1610          45.00       163.91
 1036.07        2979.25           1613          49.00       181.34
 1036.10        2979.50           1616          47.00       172.63
 1036.13        2979.75           1620          45.00       163.91
 1036.16        2980.00           1623          51.00       190.06
 1036.19        2980.25           1626          44.00       159.55
 1036.22        2980.50           1630          42.00       150.83
 1036.25        2980.75           1633          45.00       163.91
 1036.28        2981.00           1637          46.00       168.27
 1036.31        2981.25           1640          53.00       198.78
 1036.34        2981.50           1643          38.00       133.39
 1036.38        2981.75           1647          47.00       172.63
 1036.41        2982.00           1650          45.00       163.91
 1036.44        2982.25           1653          41.00       146.47
 1036.47        2982.50           1657          39.00       137.75
 1036.50        2982.75           1660          49.00       181.34
 1036.53        2983.00           1663          42.00       150.83
 1036.56        2983.25           1667          45.00       163.91
 1036.59        2983.50           1670          43.00       155.19
 1036.62        2983.75           1673          39.00       137.75
 1036.65        2984.00           1677          44.00       159.55
HS scan finished at 17:16:52
end
