************************************************************
  HS Scan of (1) Internal mercury lamp
************************************************************
Integration time is 0.2294 seconds per sample
dh251118Manchester 53.47 2.23 2.804185pr1000
************************************************************
Dead Time -------------------------  3E-08 
Number of Cycles Used -------------  4 
Starting Wavelength (Angstroms) ---  2950 
Final Wavelength (Angstoms) -------  2984 
Wavelength Increment (Angstroms) --  .25 
Filter Wheel #1 Position ---------- (1) Ground quartz diffuser (ND=2.32)
Filter Wheel #2 Position ---------- (1) Neutral Density 0.494



************************************************************
HS scan start time = 04:58:00
Dark Count =  6.3 


Time (GMT)  Wavelength (Ang)  Step Number  Raw Counts  Counts/Second

  298.36        2950.00           1222          41.00       151.26
  298.43        2950.25           1226          50.00       190.50
  298.46        2950.50           1229          51.00       194.86
  298.49        2950.75           1232          56.00       216.65
  298.52        2951.00           1236          47.00       177.42
  298.55        2951.25           1239          57.00       221.01
  298.58        2951.50           1242          60.00       234.09
  298.62        2951.75           1246          55.00       212.29
  298.65        2952.00           1249          48.00       181.78
  298.68        2952.25           1252          49.00       186.14
  298.71        2952.50           1256          50.00       190.50
  298.74        2952.75           1259          48.00       181.78
  298.77        2953.00           1262          54.00       207.94
  298.80        2953.25           1266          47.00       177.42
  298.83        2953.50           1269          47.00       177.42
  298.86        2953.75           1272          50.00       190.50
  298.89        2954.00           1276          50.00       190.50
  298.92        2954.25           1279          48.00       181.78
  298.95        2954.50           1282          47.00       177.42
  298.98        2954.75           1286          50.00       190.50
  299.02        2955.00           1289          43.00       159.98
  299.05        2955.25           1292          46.00       173.06
  299.08        2955.50           1296          53.00       203.58
  299.11        2955.75           1299          43.00       159.98
  299.14        2956.00           1302          53.00       203.58
  299.17        2956.25           1306          45.00       168.70
  299.20        2956.50           1309          51.00       194.86
  299.23        2956.75           1312          46.00       173.06
  299.26        2957.00           1316          52.00       199.22
  299.29        2957.25           1319          48.00       181.78
  299.32        2957.50           1322          55.00       212.29
  299.36        2957.75           1326          50.00       190.50
  299.39        2958.00           1329          50.00       190.50
  299.42        2958.25           1332          44.00       164.34
  299.45        2958.50           1336          47.00       177.42
  299.48        2958.75           1339          55.00       212.29
  299.51        2959.00           1342          66.00       260.25
  299.54        2959.25           1346          58.00       225.37
  299.57        2959.50           1349          58.00       225.37
  299.60        2959.75           1352          63.00       247.17
  299.63        2960.00           1356         100.00       408.46
  299.66        2960.25           1359         128.00       530.52
  299.69        2960.50           1362         155.00       648.23
  299.72        2960.75           1366         198.00       835.68
  299.76        2961.00           1369         218.00       922.87
  299.79        2961.25           1372         256.00      1088.53
  299.82        2961.50           1376         301.00      1284.71
  299.85        2961.75           1379         397.00      1703.23
  299.88        2962.00           1382         789.00      3412.29
  299.91        2962.25           1386        1959.00      8514.38
  299.94        2962.50           1389        3008.00     13090.15
  299.97        2962.75           1392        4047.00     17623.53
  300.00        2963.00           1396        5383.00     23454.60
  300.03        2963.25           1399        6575.00     28658.90
  300.06        2963.50           1402        7763.00     33847.35
  300.10        2963.75           1406        9153.00     39920.06
  300.13        2964.00           1409       10342.00     45116.39
  300.16        2964.25           1412       11810.00     51534.28
  300.19        2964.50           1416       13236.00     57770.92
  300.22        2964.75           1419       14380.00     62775.92
  300.25        2965.00           1422       15538.00     67843.71
  300.28        2965.25           1426       17247.00     75325.66
  300.31        2965.50           1429       18315.00     80003.03
  300.34        2965.75           1432       19399.00     84751.84
  300.37        2966.00           1436       20878.00     91233.22
  300.40        2966.25           1439       21708.00     94871.64
  300.44        2966.50           1442       22771.00     99532.59
  300.47        2966.75           1446       23867.00    104339.60
  300.50        2967.00           1449       24311.00    106287.40
  300.53        2967.25           1452       24405.00    106699.80
  300.56        2967.50           1456       24294.00    106212.80
  300.59        2967.75           1459       24228.00    105923.20
  300.62        2968.00           1462       24150.00    105581.10
  300.65        2968.25           1466       23493.00    102699.10
  300.68        2968.50           1469       22631.00     98918.66
  300.72        2968.75           1472       21501.00     93964.15
  300.75        2969.00           1476       20273.00     88581.64
  300.78        2969.25           1479       19168.00     83739.75
  300.81        2969.50           1482       18078.00     78964.96
  300.84        2969.75           1486       16626.00     72606.54
  300.87        2970.00           1489       15448.00     67449.78
  300.90        2970.25           1492       14372.00     62740.92
  300.93        2970.50           1496       12858.00     56117.50
  300.97        2970.75           1499       11754.00     51289.41
  301.00        2971.00           1502       10541.00     45986.24
  301.03        2971.25           1506        8972.00     39129.17
  301.06        2971.50           1509        7852.00     34236.11
  301.09        2971.75           1513        6480.00     28244.06
  301.12        2972.00           1516        5412.00     23581.19
  301.15        2972.25           1519        4302.00     18736.34
  301.18        2972.50           1523        2915.00     12684.43
  301.21        2972.75           1526        1921.00      8348.65
  301.25        2973.00           1529         926.00      4009.64
  301.28        2973.25           1533         364.00      1559.36
  301.31        2973.50           1536         241.00      1023.14
  301.34        2973.75           1539         205.00       866.20
  301.37        2974.00           1543         166.00       696.18
  301.40        2974.25           1546         115.00       473.85
  301.43        2974.50           1549          96.00       391.02
  301.46        2974.75           1553          78.00       312.56
  301.49        2975.00           1556          66.00       260.25
  301.52        2975.25           1559          59.00       229.73
  301.56        2975.50           1563          42.00       155.62
  301.59        2975.75           1566          47.00       177.42
  301.62        2976.00           1569          45.00       168.70
  301.65        2976.25           1573          49.00       186.14
  301.68        2976.50           1576          48.00       181.78
  301.71        2976.75           1579          43.00       159.98
  301.74        2977.00           1583          44.00       164.34
  301.77        2977.25           1586          52.00       199.22
  301.80        2977.50           1590          50.00       190.50
  301.83        2977.75           1593          43.00       159.98
  301.87        2978.00           1596          41.00       151.26
  301.90        2978.25           1600          50.00       190.50
  301.93        2978.50           1603          42.00       155.62
  301.96        2978.75           1606          47.00       177.42
  301.99        2979.00           1610          39.00       142.55
  302.02        2979.25           1613          50.00       190.50
  302.05        2979.50           1616          48.00       181.78
  302.08        2979.75           1620          44.00       164.34
  302.11        2980.00           1623          44.00       164.34
  302.14        2980.25           1626          55.00       212.29
  302.17        2980.50           1630          49.00       186.14
  302.20        2980.75           1633          37.00       133.83
  302.23        2981.00           1637          43.00       159.98
  302.27        2981.25           1640          53.00       203.58
  302.30        2981.50           1643          49.00       186.14
  302.33        2981.75           1647          41.00       151.26
  302.36        2982.00           1650          42.00       155.62
  302.39        2982.25           1653          44.00       164.34
  302.42        2982.50           1657          42.00       155.62
  302.45        2982.75           1660          42.00       155.62
  302.48        2983.00           1663          47.00       177.42
  302.51        2983.25           1667          46.00       173.06
  302.54        2983.50           1670          48.00       181.78
  302.57        2983.75           1673          41.00       151.26
  302.60        2984.00           1677          49.00       186.14
HS scan finished at 05:02:49
end
************************************************************
  HS Scan of (1) Internal mercury lamp
************************************************************
Integration time is 0.2294 seconds per sample
dh251118Manchester 53.47 2.23 2.804185pr1000
************************************************************
Dead Time -------------------------  3E-08 
Number of Cycles Used -------------  4 
Starting Wavelength (Angstroms) ---  2950 
Final Wavelength (Angstoms) -------  2984 
Wavelength Increment (Angstroms) --  .25 
Filter Wheel #1 Position ---------- (1) Ground quartz diffuser (ND=2.32)
Filter Wheel #2 Position ---------- (1) Neutral Density 0.494



************************************************************
HS scan start time = 17:11:58
Dark Count =  4.2 


Time (GMT)  Wavelength (Ang)  Step Number  Raw Counts  Counts/Second

 1032.34        2950.00           1222          50.00       199.65
 1032.41        2950.25           1226          52.00       208.37
 1032.44        2950.50           1229          50.00       199.65
 1032.47        2950.75           1232          51.00       204.01
 1032.50        2951.00           1236          52.00       208.37
 1032.53        2951.25           1239          57.00       230.17
 1032.56        2951.50           1242          47.00       186.57
 1032.59        2951.75           1246          48.00       190.93
 1032.62        2952.00           1249          50.00       199.65
 1032.65        2952.25           1252          47.00       186.57
 1032.68        2952.50           1256          48.00       190.93
 1032.71        2952.75           1259          49.00       195.29
 1032.74        2953.00           1262          52.00       208.37
 1032.78        2953.25           1266          51.00       204.01
 1032.81        2953.50           1269          50.00       199.65
 1032.84        2953.75           1272          50.00       199.65
 1032.87        2954.00           1276          47.00       186.57
 1032.90        2954.25           1279          55.00       221.45
 1032.93        2954.50           1282          43.00       169.14
 1032.96        2954.75           1286          51.00       204.01
 1032.99        2955.00           1289          46.00       182.22
 1033.02        2955.25           1292          52.00       208.37
 1033.05        2955.50           1296          44.00       173.50
 1033.08        2955.75           1299          53.00       212.73
 1033.11        2956.00           1302          48.00       190.93
 1033.14        2956.25           1306          47.00       186.57
 1033.17        2956.50           1309          46.00       182.22
 1033.20        2956.75           1312          45.00       177.86
 1033.23        2957.00           1316          47.00       186.57
 1033.27        2957.25           1319          50.00       199.65
 1033.30        2957.50           1322          52.00       208.37
 1033.33        2957.75           1326          53.00       212.73
 1033.36        2958.00           1329          52.00       208.37
 1033.39        2958.25           1332          53.00       212.73
 1033.42        2958.50           1336          47.00       186.57
 1033.45        2958.75           1339          55.00       221.45
 1033.48        2959.00           1342          51.00       204.01
 1033.51        2959.25           1346          50.00       199.65
 1033.54        2959.50           1349          56.00       225.81
 1033.57        2959.75           1352          62.00       251.96
 1033.60        2960.00           1356          74.00       304.27
 1033.64        2960.25           1359          93.00       387.10
 1033.67        2960.50           1362         114.00       478.65
 1033.70        2960.75           1366         163.00       692.26
 1033.73        2961.00           1369         178.00       757.65
 1033.76        2961.25           1372         204.00       870.99
 1033.79        2961.50           1376         271.00      1163.07
 1033.82        2961.75           1379         363.00      1564.15
 1033.85        2962.00           1382         788.00      3417.09
 1033.88        2962.25           1386        1972.00      8580.24
 1033.92        2962.50           1389        3077.00     13400.33
 1033.95        2962.75           1392        4177.00     18199.99
 1033.98        2963.00           1396        5525.00     24083.66
 1034.01        2963.25           1399        6643.00     28965.00
 1034.04        2963.50           1402        7805.00     34039.98
 1034.07        2963.75           1406        9438.00     41174.63
 1034.10        2964.00           1409       10612.00     46305.78
 1034.13        2964.25           1412       11748.00     51272.36
 1034.16        2964.50           1416       13161.00     57452.03
 1034.20        2964.75           1419       14325.00     62544.45
 1034.23        2965.00           1422       15371.00     67121.95
 1034.26        2965.25           1426       16906.00     73841.69
 1034.29        2965.50           1429       17938.00     78360.99
 1034.32        2965.75           1432       19063.00     83288.94
 1034.35        2966.00           1436       20524.00     89690.88
 1034.38        2966.25           1439       21800.00     95284.19
 1034.41        2966.50           1442       22518.00     98432.36
 1034.44        2966.75           1446       23780.00    103967.20
 1034.47        2967.00           1449       24108.00    105406.00
 1034.51        2967.25           1452       24051.00    105156.00
 1034.54        2967.50           1456       24061.00    105199.90
 1034.57        2967.75           1459       24081.00    105287.60
 1034.60        2968.00           1462       23927.00    104612.00
 1034.63        2968.25           1466       23358.00    102116.20
 1034.66        2968.50           1469       22434.00     98064.02
 1034.69        2968.75           1472       21344.00     93285.11
 1034.72        2969.00           1476       20038.00     87561.01
 1034.75        2969.25           1479       18818.00     82215.62
 1034.78        2969.50           1482       17803.00     77769.73
 1034.82        2969.75           1486       16299.00     71184.11
 1034.85        2970.00           1489       15127.00     66054.05
 1034.88        2970.25           1492       14107.00     61590.60
 1034.91        2970.50           1496       12564.00     54840.81
 1034.94        2970.75           1499       11533.00     50332.26
 1034.97        2971.00           1502       10413.00     45435.91
 1035.00        2971.25           1506        8901.00     38828.11
 1035.03        2971.50           1509        7913.00     34511.74
 1035.06        2971.75           1513        6518.00     28419.16
 1035.09        2972.00           1516        5511.00     24022.54
 1035.12        2972.25           1519        4341.00     18915.70
 1035.15        2972.50           1523        2793.00     12161.37
 1035.18        2972.75           1526        1745.00      7590.22
 1035.22        2973.00           1529         823.00      3569.69
 1035.25        2973.25           1533         347.00      1494.40
 1035.28        2973.50           1536         256.00      1097.68
 1035.31        2973.75           1539         210.00       897.15
 1035.34        2974.00           1543         188.00       801.24
 1035.37        2974.25           1546         143.00       605.07
 1035.40        2974.50           1549         116.00       487.37
 1035.43        2974.75           1553          85.00       352.23
 1035.46        2975.00           1556          53.00       212.73
 1035.50        2975.25           1559          63.00       256.32
 1035.53        2975.50           1563          46.00       182.22
 1035.56        2975.75           1566          45.00       177.86
 1035.59        2976.00           1569          49.00       195.29
 1035.62        2976.25           1573          57.00       230.17
 1035.65        2976.50           1576          40.00       156.06
 1035.68        2976.75           1579          46.00       182.22
 1035.71        2977.00           1583          45.00       177.86
 1035.74        2977.25           1586          54.00       217.09
 1035.77        2977.50           1590          47.00       186.57
 1035.80        2977.75           1593          52.00       208.37
 1035.83        2978.00           1596          40.00       156.06
 1035.86        2978.25           1600          53.00       212.73
 1035.89        2978.50           1603          43.00       169.14
 1035.92        2978.75           1606          46.00       182.22
 1035.96        2979.00           1610          48.00       190.93
 1035.99        2979.25           1613          41.00       160.42
 1036.02        2979.50           1616          46.00       182.22
 1036.05        2979.75           1620          53.00       212.73
 1036.08        2980.00           1623          50.00       199.65
 1036.11        2980.25           1626          53.00       212.73
 1036.14        2980.50           1630          48.00       190.93
 1036.17        2980.75           1633          43.00       169.14
 1036.20        2981.00           1637          45.00       177.86
 1036.23        2981.25           1640          48.00       190.93
 1036.26        2981.50           1643          39.00       151.70
 1036.29        2981.75           1647          44.00       173.50
 1036.32        2982.00           1650          43.00       169.14
 1036.35        2982.25           1653          47.00       186.57
 1036.38        2982.50           1657          41.00       160.42
 1036.42        2982.75           1660          46.00       182.22
 1036.45        2983.00           1663          40.00       156.06
 1036.48        2983.25           1667          43.00       169.14
 1036.51        2983.50           1670          40.00       156.06
 1036.54        2983.75           1673          46.00       182.22
 1036.57        2984.00           1677          43.00       169.14
HS scan finished at 17:16:47
end
