************************************************************
  HS Scan of (1) Internal mercury lamp
************************************************************
Integration time is 0.2294 seconds per sample
dh231117Manchester 53.47 2.23 2.804185pr1000
************************************************************
Dead Time -------------------------  3E-08 
Number of Cycles Used -------------  4 
Starting Wavelength (Angstroms) ---  2950 
Final Wavelength (Angstoms) -------  2984 
Wavelength Increment (Angstroms) --  .25 
Filter Wheel #1 Position ---------- (1) Ground quartz diffuser (ND=2.32)
Filter Wheel #2 Position ---------- (1) Neutral Density 0.494



************************************************************
HS scan start time = 17:12:02
Dark Count =  5.2 


Time (GMT)  Wavelength (Ang)  Step Number  Raw Counts  Counts/Second

 1032.41        2950.00           1222          69.00       278.12
 1032.47        2950.25           1226          72.00       291.20
 1032.50        2950.50           1229          63.00       251.96
 1032.53        2950.75           1232          59.00       234.53
 1032.57        2951.00           1236          61.00       243.25
 1032.60        2951.25           1239          65.00       260.68
 1032.63        2951.50           1242          58.00       230.17
 1032.66        2951.75           1246          66.00       265.04
 1032.69        2952.00           1249          61.00       243.25
 1032.72        2952.25           1252          70.00       282.48
 1032.75        2952.50           1256          68.00       273.76
 1032.78        2952.75           1259          62.00       247.60
 1032.81        2953.00           1262          62.00       247.60
 1032.84        2953.25           1266          68.00       273.76
 1032.87        2953.50           1269          57.00       225.81
 1032.90        2953.75           1272          61.00       243.25
 1032.93        2954.00           1276          69.00       278.12
 1032.96        2954.25           1279          58.00       230.17
 1033.00        2954.50           1282          61.00       243.25
 1033.03        2954.75           1286          67.00       269.40
 1033.06        2955.00           1289          64.00       256.32
 1033.09        2955.25           1292          63.00       251.96
 1033.12        2955.50           1296          59.00       234.53
 1033.15        2955.75           1299          71.00       286.84
 1033.18        2956.00           1302          58.00       230.17
 1033.21        2956.25           1306          65.00       260.68
 1033.24        2956.50           1309          60.00       238.89
 1033.27        2956.75           1312          64.00       256.32
 1033.30        2957.00           1316          70.00       282.48
 1033.34        2957.25           1319          69.00       278.12
 1033.37        2957.50           1322          62.00       247.60
 1033.40        2957.75           1326          58.00       230.17
 1033.43        2958.00           1329          72.00       291.20
 1033.46        2958.25           1332          70.00       282.48
 1033.49        2958.50           1336          66.00       265.04
 1033.52        2958.75           1339          72.00       291.20
 1033.55        2959.00           1342          73.00       295.56
 1033.58        2959.25           1346          68.00       273.76
 1033.61        2959.50           1349          73.00       295.56
 1033.64        2959.75           1352          83.00       339.15
 1033.67        2960.00           1356         108.00       448.13
 1033.70        2960.25           1359         137.00       574.55
 1033.74        2960.50           1362         169.00       714.05
 1033.77        2960.75           1366         212.00       901.51
 1033.80        2961.00           1369         265.00      1132.56
 1033.83        2961.25           1372         320.00      1372.33
 1033.86        2961.50           1376         420.00      1808.29
 1033.89        2961.75           1379         630.00      2723.85
 1033.92        2962.00           1382        1445.00      6277.56
 1033.95        2962.25           1386        3202.00     13941.31
 1033.98        2962.50           1389        4597.00     20028.60
 1034.01        2962.75           1392        6193.00     26995.70
 1034.04        2963.00           1396        8287.00     36141.17
 1034.08        2963.25           1399        9879.00     43097.54
 1034.11        2963.50           1402       11424.00     49851.31
 1034.14        2963.75           1406       13609.00     59407.44
 1034.17        2964.00           1409       15168.00     66229.11
 1034.20        2964.25           1412       16720.00     73022.93
 1034.23        2964.50           1416       18878.00     82474.08
 1034.26        2964.75           1419       20305.00     88726.72
 1034.29        2965.00           1422       21922.00     95814.69
 1034.32        2965.25           1426       23847.00    104256.70
 1034.35        2965.50           1429       25462.00    111342.50
 1034.39        2965.75           1432       27168.00    118830.90
 1034.42        2966.00           1436       29187.00    127697.50
 1034.45        2966.25           1439       30716.00    134415.40
 1034.48        2966.50           1442       31950.00    139839.10
 1034.51        2966.75           1446       33001.00    144459.90
 1034.54        2967.00           1449       33134.00    145044.80
 1034.57        2967.25           1452       33297.00    145761.50
 1034.60        2967.50           1456       33174.00    145220.70
 1034.63        2967.75           1459       33369.00    146078.20
 1034.66        2968.00           1462       32898.00    144007.00
 1034.69        2968.25           1466       31611.00    138349.00
 1034.73        2968.50           1469       30487.00    133409.10
 1034.76        2968.75           1472       29004.00    126893.70
 1034.79        2969.00           1476       26793.00    117184.60
 1034.82        2969.25           1479       25367.00    110925.60
 1034.85        2969.50           1482       23681.00    103528.60
 1034.88        2969.75           1486       21560.00     94227.64
 1034.91        2970.00           1489       20365.00     88989.66
 1034.94        2970.25           1492       18710.00     81738.12
 1034.97        2970.50           1496       16582.00     72418.72
 1035.00        2970.75           1499       15247.00     66574.86
 1035.03        2971.00           1502       13868.00     60540.55
 1035.06        2971.25           1506       11709.00     51097.45
 1035.09        2971.50           1509       10195.00     44478.67
 1035.13        2971.75           1513        8072.00     35201.93
 1035.16        2972.00           1516        6466.00     28187.74
 1035.19        2972.25           1519        4970.00     21656.61
 1035.22        2972.50           1523        3101.00     13500.67
 1035.25        2972.75           1526        1721.00      7481.19
 1035.28        2973.00           1529         784.00      3395.29
 1035.31        2973.25           1533         429.00      1847.53
 1035.34        2973.50           1536         351.00      1507.48
 1035.37        2973.75           1539         293.00      1254.62
 1035.40        2974.00           1543         255.00      1088.96
 1035.43        2974.25           1546         184.00       779.44
 1035.46        2974.50           1549         145.00       609.43
 1035.49        2974.75           1553         101.00       417.62
 1035.52        2975.00           1556          88.00       360.95
 1035.56        2975.25           1559          67.00       269.40
 1035.59        2975.50           1563          73.00       295.56
 1035.62        2975.75           1566          68.00       273.76
 1035.65        2976.00           1569          63.00       251.96
 1035.68        2976.25           1573          75.00       304.27
 1035.71        2976.50           1576          57.00       225.81
 1035.74        2976.75           1579          67.00       269.40
 1035.77        2977.00           1583          60.00       238.89
 1035.80        2977.25           1586          67.00       269.40
 1035.83        2977.50           1590          54.00       212.73
 1035.87        2977.75           1593          70.00       282.48
 1035.90        2978.00           1596          73.00       295.56
 1035.93        2978.25           1600          60.00       238.89
 1035.96        2978.50           1603          54.00       212.73
 1035.99        2978.75           1606          64.00       256.32
 1036.02        2979.00           1610          55.00       217.09
 1036.05        2979.25           1613          66.00       265.04
 1036.08        2979.50           1616          61.00       243.25
 1036.11        2979.75           1620          56.00       221.45
 1036.14        2980.00           1623          56.00       221.45
 1036.17        2980.25           1626          56.00       221.45
 1036.20        2980.50           1630          59.00       234.53
 1036.24        2980.75           1633          65.00       260.68
 1036.27        2981.00           1637          57.00       225.81
 1036.30        2981.25           1640          58.00       230.17
 1036.33        2981.50           1643          59.00       234.53
 1036.36        2981.75           1647          61.00       243.25
 1036.39        2982.00           1650          57.00       225.81
 1036.42        2982.25           1653          57.00       225.81
 1036.45        2982.50           1657          58.00       230.17
 1036.48        2982.75           1660          61.00       243.25
 1036.51        2983.00           1663          53.00       208.37
 1036.54        2983.25           1667          49.00       190.93
 1036.57        2983.50           1670          66.00       265.04
 1036.60        2983.75           1673          65.00       260.68
 1036.63        2984.00           1677          56.00       221.45
HS scan finished at 17:16:51
end
