************************************************************
  HS Scan of (1) Internal mercury lamp
************************************************************
Integration time is 0.2294 seconds per sample
dh191117Manchester 53.47 2.23 2.750537pr1000
************************************************************
Dead Time -------------------------  3E-08 
Number of Cycles Used -------------  4 
Starting Wavelength (Angstroms) ---  2950 
Final Wavelength (Angstoms) -------  2984 
Wavelength Increment (Angstroms) --  .25 
Filter Wheel #1 Position ---------- (1) Ground quartz diffuser (ND=2.32)
Filter Wheel #2 Position ---------- (1) Neutral Density 0.494



************************************************************
HS scan start time = 04:51:10
Dark Count =  2.2 


Time (GMT)  Wavelength (Ang)  Step Number  Raw Counts  Counts/Second

  291.54        2950.00           1222          74.00       312.99
  291.61        2950.25           1226          60.00       251.96
  291.64        2950.50           1229          75.00       317.35
  291.67        2950.75           1232          80.00       339.15
  291.70        2951.00           1236          62.00       260.68
  291.73        2951.25           1239          66.00       278.12
  291.76        2951.50           1242          71.00       299.92
  291.79        2951.75           1246          63.00       265.04
  291.82        2952.00           1249          66.00       278.12
  291.85        2952.25           1252          69.00       291.20
  291.89        2952.50           1256          65.00       273.76
  291.92        2952.75           1259          69.00       291.20
  291.95        2953.00           1262          67.00       282.48
  291.98        2953.25           1266          62.00       260.68
  292.01        2953.50           1269          75.00       317.35
  292.04        2953.75           1272          61.00       256.32
  292.07        2954.00           1276          58.00       243.25
  292.10        2954.25           1279          75.00       317.35
  292.13        2954.50           1282          73.00       308.63
  292.16        2954.75           1286          64.00       269.40
  292.19        2955.00           1289          66.00       278.12
  292.22        2955.25           1292          64.00       269.40
  292.25        2955.50           1296          73.00       308.63
  292.28        2955.75           1299          63.00       265.04
  292.31        2956.00           1302          72.00       304.27
  292.35        2956.25           1306          61.00       256.32
  292.38        2956.50           1309          63.00       265.04
  292.41        2956.75           1312          66.00       278.12
  292.44        2957.00           1316          67.00       282.48
  292.47        2957.25           1319          60.00       251.96
  292.50        2957.50           1322          68.00       286.84
  292.53        2957.75           1326          67.00       282.48
  292.56        2958.00           1329          64.00       269.40
  292.59        2958.25           1332          64.00       269.40
  292.62        2958.50           1336          74.00       312.99
  292.66        2958.75           1339          65.00       273.76
  292.69        2959.00           1342          66.00       278.12
  292.72        2959.25           1346          65.00       273.76
  292.75        2959.50           1349          71.00       299.92
  292.78        2959.75           1352          78.00       330.43
  292.81        2960.00           1356          94.00       400.18
  292.84        2960.25           1359         121.00       517.88
  292.87        2960.50           1362         153.00       657.38
  292.90        2960.75           1366         201.00       866.63
  292.93        2961.00           1369         230.00       993.05
  292.96        2961.25           1372         298.00      1289.50
  292.99        2961.50           1376         352.00      1524.92
  293.03        2961.75           1379         526.00      2283.50
  293.06        2962.00           1382        1093.00      4755.69
  293.09        2962.25           1386        2709.00     11803.66
  293.12        2962.50           1389        4148.00     18082.17
  293.15        2962.75           1392        5540.00     24157.87
  293.18        2963.00           1396        7545.00     32913.04
  293.21        2963.25           1399        9110.00     39750.08
  293.24        2963.50           1402       10678.00     46603.04
  293.27        2963.75           1406       12827.00     55999.85
  293.30        2964.00           1409       14260.00     62268.79
  293.34        2964.25           1412       16074.00     70207.88
  293.37        2964.50           1416       18219.00     79600.50
  293.40        2964.75           1419       19833.00     86671.46
  293.43        2965.00           1422       21272.00     92978.26
  293.46        2965.25           1426       23269.00    101734.60
  293.49        2965.50           1429       24914.00    108951.00
  293.52        2965.75           1432       26327.00    115152.10
  293.55        2966.00           1436       28541.00    124873.20
  293.58        2966.25           1439       30063.00    131559.20
  293.62        2966.50           1442       31324.00    137100.70
  293.65        2966.75           1446       32712.00    143202.40
  293.68        2967.00           1449       32957.00    144279.70
  293.71        2967.25           1452       33277.00    145686.80
  293.74        2967.50           1456       33199.00    145343.80
  293.77        2967.75           1459       33156.00    145154.70
  293.80        2968.00           1462       33072.00    144785.40
  293.83        2968.25           1466       32260.00    141215.10
  293.86        2968.50           1469       30748.00    134569.20
  293.90        2968.75           1472       29577.00    129424.00
  293.93        2969.00           1476       27727.00    121298.50
  293.96        2969.25           1479       26057.00    113967.00
  293.99        2969.50           1482       24814.00    108512.20
  294.02        2969.75           1486       22755.00     99480.41
  294.05        2970.00           1489       21020.00     91873.63
  294.08        2970.25           1492       19751.00     86312.13
  294.11        2970.50           1496       17488.00     76398.97
  294.14        2970.75           1499       15995.00     69862.05
  294.17        2971.00           1502       14559.00     63577.12
  294.20        2971.25           1506       12398.00     54123.56
  294.24        2971.50           1509       10847.00     47341.82
  294.27        2971.75           1513        8738.00     38124.67
  294.30        2972.00           1516        7355.00     32083.18
  294.33        2972.25           1519        5924.00     25834.31
  294.36        2972.50           1523        3991.00     17397.05
  294.39        2972.75           1526        2629.00     11454.68
  294.42        2973.00           1529        1321.00      5749.90
  294.45        2973.25           1533         545.00      2366.34
  294.48        2973.50           1536         371.00      1607.75
  294.51        2973.75           1539         310.00      1341.82
  294.55        2974.00           1543         283.00      1224.11
  294.58        2974.25           1546         205.00       884.07
  294.61        2974.50           1549         153.00       657.38
  294.64        2974.75           1553         114.00       487.37
  294.67        2975.00           1556          91.00       387.10
  294.70        2975.25           1559          65.00       273.76
  294.73        2975.50           1563          59.00       247.60
  294.76        2975.75           1566          62.00       260.68
  294.79        2976.00           1569          59.00       247.60
  294.82        2976.25           1573          61.00       256.32
  294.85        2976.50           1576          68.00       286.84
  294.89        2976.75           1579          69.00       291.20
  294.92        2977.00           1583          64.00       269.40
  294.95        2977.25           1586          66.00       278.12
  294.98        2977.50           1590          55.00       230.17
  295.01        2977.75           1593          56.00       234.53
  295.04        2978.00           1596          63.00       265.04
  295.07        2978.25           1600          70.00       295.56
  295.10        2978.50           1603          57.00       238.89
  295.13        2978.75           1606          63.00       265.04
  295.16        2979.00           1610          57.00       238.89
  295.19        2979.25           1613          66.00       278.12
  295.22        2979.50           1616          53.00       221.45
  295.26        2979.75           1620          63.00       265.04
  295.29        2980.00           1623          61.00       256.32
  295.32        2980.25           1626          58.00       243.25
  295.35        2980.50           1630          61.00       256.32
  295.38        2980.75           1633          58.00       243.25
  295.41        2981.00           1637          54.00       225.81
  295.44        2981.25           1640          57.00       238.89
  295.47        2981.50           1643          57.00       238.89
  295.50        2981.75           1647          58.00       243.25
  295.53        2982.00           1650          52.00       217.09
  295.56        2982.25           1653          67.00       282.48
  295.59        2982.50           1657          62.00       260.68
  295.62        2982.75           1660          61.00       256.32
  295.66        2983.00           1663          60.00       251.96
  295.69        2983.25           1667          60.00       251.96
  295.72        2983.50           1670          57.00       238.89
  295.75        2983.75           1673          60.00       251.96
  295.78        2984.00           1677          59.00       247.60
HS scan finished at 04:56:00
end
************************************************************
  HS Scan of (1) Internal mercury lamp
************************************************************
Integration time is 0.2294 seconds per sample
dh191117Manchester 53.47 2.23 2.804185pr1000
************************************************************
Dead Time -------------------------  3E-08 
Number of Cycles Used -------------  4 
Starting Wavelength (Angstroms) ---  2950 
Final Wavelength (Angstoms) -------  2984 
Wavelength Increment (Angstroms) --  .25 
Filter Wheel #1 Position ---------- (1) Ground quartz diffuser (ND=2.32)
Filter Wheel #2 Position ---------- (1) Neutral Density 0.494



************************************************************
HS scan start time = 17:12:03
Dark Count =  5.4 


Time (GMT)  Wavelength (Ang)  Step Number  Raw Counts  Counts/Second

 1032.42        2950.00           1222          63.00       251.09
 1032.49        2950.25           1226          77.00       312.12
 1032.52        2950.50           1229          65.00       259.81
 1032.55        2950.75           1232          66.00       264.17
 1032.58        2951.00           1236          60.00       238.01
 1032.61        2951.25           1239          65.00       259.81
 1032.64        2951.50           1242          71.00       285.97
 1032.67        2951.75           1246          63.00       251.09
 1032.70        2952.00           1249          69.00       277.25
 1032.74        2952.25           1252          75.00       303.40
 1032.77        2952.50           1256          75.00       303.40
 1032.80        2952.75           1259          60.00       238.01
 1032.83        2953.00           1262          64.00       255.45
 1032.86        2953.25           1266          65.00       259.81
 1032.89        2953.50           1269          63.00       251.09
 1032.92        2953.75           1272          69.00       277.25
 1032.95        2954.00           1276          63.00       251.09
 1032.98        2954.25           1279          61.00       242.37
 1033.01        2954.50           1282          57.00       224.94
 1033.04        2954.75           1286          65.00       259.81
 1033.07        2955.00           1289          61.00       242.37
 1033.10        2955.25           1292          72.00       290.33
 1033.13        2955.50           1296          72.00       290.33
 1033.17        2955.75           1299          63.00       251.09
 1033.20        2956.00           1302          66.00       264.17
 1033.23        2956.25           1306          62.00       246.73
 1033.26        2956.50           1309          74.00       299.04
 1033.29        2956.75           1312          66.00       264.17
 1033.32        2957.00           1316          67.00       268.53
 1033.35        2957.25           1319          69.00       277.25
 1033.38        2957.50           1322          74.00       299.04
 1033.41        2957.75           1326          66.00       264.17
 1033.44        2958.00           1329          66.00       264.17
 1033.47        2958.25           1332          64.00       255.45
 1033.50        2958.50           1336          63.00       251.09
 1033.53        2958.75           1339          69.00       277.25
 1033.57        2959.00           1342          68.00       272.89
 1033.60        2959.25           1346          73.00       294.68
 1033.63        2959.50           1349          76.00       307.76
 1033.66        2959.75           1352          90.00       368.79
 1033.69        2960.00           1356         136.00       569.32
 1033.72        2960.25           1359         165.00       695.74
 1033.75        2960.50           1362         183.00       774.21
 1033.78        2960.75           1366         247.00      1053.22
 1033.81        2961.00           1369         265.00      1131.69
 1033.84        2961.25           1372         315.00      1349.66
 1033.87        2961.50           1376         356.00      1528.41
 1033.90        2961.75           1379         508.00      2191.08
 1033.93        2962.00           1382         981.00      4253.38
 1033.97        2962.25           1386        2438.00     10607.56
 1034.00        2962.50           1389        3997.00     17409.27
 1034.03        2962.75           1392        5446.00     23733.55
 1034.06        2963.00           1396        7448.00     32475.39
 1034.09        2963.25           1399        8895.00     38796.65
 1034.12        2963.50           1402       10419.00     45456.89
 1034.15        2963.75           1406       12613.00     55049.86
 1034.18        2964.00           1409       14179.00     61900.37
 1034.21        2964.25           1412       15957.00     69681.69
 1034.24        2964.50           1416       17899.00     78184.91
 1034.27        2964.75           1419       19562.00     85469.97
 1034.31        2965.00           1422       21213.00     92705.60
 1034.34        2965.25           1426       23242.00    101602.20
 1034.37        2965.50           1429       24682.00    107919.00
 1034.40        2965.75           1432       26373.00    115340.00
 1034.43        2966.00           1436       28260.00    123625.10
 1034.46        2966.25           1439       29591.00    129471.40
 1034.49        2966.50           1442       31377.00    137319.60
 1034.52        2966.75           1446       32867.00    143869.90
 1034.56        2967.00           1449       33017.00    144529.40
 1034.59        2967.25           1452       33500.00    146653.40
 1034.62        2967.50           1456       33334.00    145923.40
 1034.65        2967.75           1459       33129.00    145021.90
 1034.68        2968.00           1462       33052.00    144683.30
 1034.71        2968.25           1466       32063.00    140335.00
 1034.74        2968.50           1469       30726.00    134458.50
 1034.77        2968.75           1472       29187.00    127696.60
 1034.80        2969.00           1476       27322.00    119506.20
 1034.84        2969.25           1479       25795.00    112803.10
 1034.87        2969.50           1482       24184.00    105734.20
 1034.90        2969.75           1486       22160.00     96857.31
 1034.93        2970.00           1489       20775.00     90785.72
 1034.96        2970.25           1492       19123.00     83546.55
 1034.99        2970.50           1496       17212.00     75176.33
 1035.02        2970.75           1499       15447.00     67449.34
 1035.05        2971.00           1502       13812.00     60294.67
 1035.08        2971.25           1506       11922.00     52027.96
 1035.11        2971.50           1509       10427.00     45491.86
 1035.15        2971.75           1513        8572.00     37385.42
 1035.18        2972.00           1516        6988.00     30466.37
 1035.21        2972.25           1519        5588.00     24353.45
 1035.24        2972.50           1523        3555.00     15480.60
 1035.27        2972.75           1526        2102.00      9142.00
 1035.30        2973.00           1529         982.00      4257.74
 1035.33        2973.25           1533         405.00      1742.03
 1035.36        2973.50           1536         325.00      1393.26
 1035.39        2973.75           1539         257.00      1096.81
 1035.42        2974.00           1543         242.00      1031.42
 1035.45        2974.25           1546         184.00       778.57
 1035.48        2974.50           1549         129.00       538.81
 1035.51        2974.75           1553          95.00       390.59
 1035.55        2975.00           1556          72.00       290.33
 1035.58        2975.25           1559          72.00       290.33
 1035.61        2975.50           1563          66.00       264.17
 1035.64        2975.75           1566          62.00       246.73
 1035.67        2976.00           1569          69.00       277.25
 1035.70        2976.25           1573          72.00       290.33
 1035.73        2976.50           1576          58.00       229.30
 1035.76        2976.75           1579          65.00       259.81
 1035.79        2977.00           1583          56.00       220.58
 1035.82        2977.25           1586          59.00       233.65
 1035.85        2977.50           1590          56.00       220.58
 1035.88        2977.75           1593          69.00       277.25
 1035.92        2978.00           1596          62.00       246.73
 1035.95        2978.25           1600          61.00       242.37
 1035.98        2978.50           1603          58.00       229.30
 1036.01        2978.75           1606          62.00       246.73
 1036.04        2979.00           1610          57.00       224.94
 1036.07        2979.25           1613          58.00       229.30
 1036.10        2979.50           1616          57.00       224.94
 1036.13        2979.75           1620          56.00       220.58
 1036.16        2980.00           1623          58.00       229.30
 1036.19        2980.25           1626          68.00       272.89
 1036.22        2980.50           1630          58.00       229.30
 1036.25        2980.75           1633          71.00       285.97
 1036.29        2981.00           1637          66.00       264.17
 1036.32        2981.25           1640          55.00       216.22
 1036.35        2981.50           1643          63.00       251.09
 1036.38        2981.75           1647          62.00       246.73
 1036.41        2982.00           1650          61.00       242.37
 1036.44        2982.25           1653          66.00       264.17
 1036.47        2982.50           1657          60.00       238.01
 1036.50        2982.75           1660          63.00       251.09
 1036.53        2983.00           1663          60.00       238.01
 1036.56        2983.25           1667          60.00       238.01
 1036.60        2983.50           1670          62.00       246.73
 1036.63        2983.75           1673          64.00       255.45
 1036.66        2984.00           1677          63.00       251.09
HS scan finished at 17:16:52
end
