************************************************************
  HS Scan of (1) Internal mercury lamp
************************************************************
Integration time is 0.2294 seconds per sample
dh211117Manchester 53.47 2.23 2.804185pr1000
************************************************************
Dead Time -------------------------  3E-08 
Number of Cycles Used -------------  4 
Starting Wavelength (Angstroms) ---  2950 
Final Wavelength (Angstoms) -------  2984 
Wavelength Increment (Angstroms) --  .25 
Filter Wheel #1 Position ---------- (1) Ground quartz diffuser (ND=2.32)
Filter Wheel #2 Position ---------- (1) Neutral Density 0.494



************************************************************
HS scan start time = 04:52:48
Dark Count =  6.4 


Time (GMT)  Wavelength (Ang)  Step Number  Raw Counts  Counts/Second

  293.17        2950.00           1222          65.00       255.45
  293.24        2950.25           1226          69.00       272.89
  293.27        2950.50           1229          71.00       281.61
  293.30        2950.75           1232          71.00       281.61
  293.33        2951.00           1236          67.00       264.17
  293.36        2951.25           1239          78.00       312.12
  293.39        2951.50           1242          66.00       259.81
  293.42        2951.75           1246          61.00       238.01
  293.45        2952.00           1249          60.00       233.65
  293.48        2952.25           1252          67.00       264.17
  293.51        2952.50           1256          57.00       220.58
  293.55        2952.75           1259          68.00       268.53
  293.58        2953.00           1262          62.00       242.37
  293.61        2953.25           1266          71.00       281.61
  293.64        2953.50           1269          59.00       229.30
  293.67        2953.75           1272          68.00       268.53
  293.70        2954.00           1276          65.00       255.45
  293.73        2954.25           1279          64.00       251.09
  293.76        2954.50           1282          61.00       238.01
  293.79        2954.75           1286          65.00       255.45
  293.82        2955.00           1289          69.00       272.89
  293.85        2955.25           1292          66.00       259.81
  293.89        2955.50           1296          67.00       264.17
  293.92        2955.75           1299          73.00       290.33
  293.95        2956.00           1302          59.00       229.30
  293.98        2956.25           1306          71.00       281.61
  294.01        2956.50           1309          64.00       251.09
  294.04        2956.75           1312          65.00       255.45
  294.07        2957.00           1316          67.00       264.17
  294.10        2957.25           1319          65.00       255.45
  294.13        2957.50           1322          52.00       198.78
  294.16        2957.75           1326          58.00       224.94
  294.19        2958.00           1329          75.00       299.04
  294.22        2958.25           1332          61.00       238.01
  294.26        2958.50           1336          67.00       264.17
  294.29        2958.75           1339          70.00       277.25
  294.32        2959.00           1342          66.00       259.81
  294.35        2959.25           1346          65.00       255.45
  294.38        2959.50           1349          76.00       303.40
  294.41        2959.75           1352          91.00       368.79
  294.44        2960.00           1356         114.00       469.06
  294.47        2960.25           1359         134.00       556.24
  294.50        2960.50           1362         169.00       708.82
  294.53        2960.75           1366         231.00       979.10
  294.56        2961.00           1369         279.00      1188.36
  294.59        2961.25           1372         308.00      1314.79
  294.62        2961.50           1376         360.00      1541.48
  294.66        2961.75           1379         448.00      1925.13
  294.69        2962.00           1382         739.00      3193.85
  294.72        2962.25           1386        2022.00      8788.72
  294.75        2962.50           1389        3496.00     15218.81
  294.78        2962.75           1392        5007.00     21812.88
  294.81        2963.00           1396        7042.00     30697.83
  294.84        2963.25           1399        8580.00     37415.99
  294.87        2963.50           1402       10134.00     44206.80
  294.90        2963.75           1406       12174.00     53125.58
  294.93        2964.00           1409       13773.00     60119.67
  294.97        2964.25           1412       15292.00     66766.55
  295.00        2964.50           1416       17358.00     75811.28
  295.03        2964.75           1419       19097.00     83428.25
  295.06        2965.00           1422       20417.00     89212.29
  295.09        2965.25           1426       22758.00     99475.14
  295.12        2965.50           1429       24321.00    106330.80
  295.15        2965.75           1432       25873.00    113141.00
  295.18        2966.00           1436       27795.00    121578.60
  295.21        2966.25           1439       29304.00    128206.20
  295.25        2966.50           1442       30642.00    134084.90
  295.28        2966.75           1446       32277.00    141271.40
  295.31        2967.00           1449       33187.00    145272.60
  295.34        2967.25           1452       33556.00    146895.30
  295.37        2967.50           1456       33656.00    147335.10
  295.40        2967.75           1459       33630.00    147220.70
  295.43        2968.00           1462       33424.00    146314.80
  295.46        2968.25           1466       33151.00    145114.30
  295.50        2968.50           1469       32070.00    140361.40
  295.53        2968.75           1472       30464.00    133302.70
  295.56        2969.00           1476       28552.00    124903.10
  295.59        2969.25           1479       27085.00    118461.20
  295.62        2969.50           1482       25654.00    112179.90
  295.65        2969.75           1486       23606.00    103194.30
  295.68        2970.00           1489       21998.00     96142.64
  295.71        2970.25           1492       20591.00     89974.88
  295.74        2970.50           1496       18504.00     80830.47
  295.77        2970.75           1499       16882.00     73726.97
  295.80        2971.00           1502       15295.00     66779.69
  295.83        2971.25           1506       13224.00     57717.99
  295.87        2971.50           1509       11629.00     50742.40
  295.90        2971.75           1513        9770.00     42615.92
  295.93        2972.00           1516        8226.00     35869.44
  295.96        2972.25           1519        6621.00     28859.33
  295.99        2972.50           1523        4562.00     19870.61
  296.02        2972.75           1526        3115.00     13556.52
  296.05        2973.00           1529        1711.00      7432.35
  296.08        2973.25           1533         581.00      2504.98
  296.11        2973.50           1536         374.00      1602.52
  296.14        2973.75           1539         302.00      1288.63
  296.18        2974.00           1543         264.00      1122.97
  296.21        2974.25           1546         192.00       809.09
  296.24        2974.50           1549         149.00       621.63
  296.27        2974.75           1553         104.00       425.46
  296.30        2975.00           1556          96.00       390.59
  296.33        2975.25           1559          71.00       281.61
  296.36        2975.50           1563          61.00       238.01
  296.39        2975.75           1566          64.00       251.09
  296.43        2976.00           1569          62.00       242.37
  296.46        2976.25           1573          59.00       229.30
  296.49        2976.50           1576          59.00       229.30
  296.52        2976.75           1579          72.00       285.97
  296.55        2977.00           1583          62.00       242.37
  296.58        2977.25           1586          61.00       238.01
  296.61        2977.50           1590          70.00       277.25
  296.64        2977.75           1593          67.00       264.17
  296.67        2978.00           1596          58.00       224.94
  296.70        2978.25           1600          58.00       224.94
  296.73        2978.50           1603          59.00       229.30
  296.76        2978.75           1606          69.00       272.89
  296.79        2979.00           1610          59.00       229.30
  296.82        2979.25           1613          65.00       255.45
  296.86        2979.50           1616          69.00       272.89
  296.89        2979.75           1620          64.00       251.09
  296.92        2980.00           1623          61.00       238.01
  296.95        2980.25           1626          50.00       190.06
  296.98        2980.50           1630          65.00       255.45
  297.01        2980.75           1633          58.00       224.94
  297.04        2981.00           1637          53.00       203.14
  297.07        2981.25           1640          59.00       229.30
  297.10        2981.50           1643          59.00       229.30
  297.13        2981.75           1647          61.00       238.01
  297.16        2982.00           1650          59.00       229.30
  297.19        2982.25           1653          65.00       255.45
  297.23        2982.50           1657          60.00       233.65
  297.26        2982.75           1660          60.00       233.65
  297.29        2983.00           1663          59.00       229.30
  297.32        2983.25           1667          57.00       220.58
  297.35        2983.50           1670          59.00       229.30
  297.38        2983.75           1673          61.00       238.01
  297.41        2984.00           1677          59.00       229.30
HS scan finished at 04:57:38
end
************************************************************
  HS Scan of (1) Internal mercury lamp
************************************************************
Integration time is 0.2294 seconds per sample
dh211117Manchester 53.47 2.23 2.804185pr1000
************************************************************
Dead Time -------------------------  3E-08 
Number of Cycles Used -------------  4 
Starting Wavelength (Angstroms) ---  2950 
Final Wavelength (Angstoms) -------  2984 
Wavelength Increment (Angstroms) --  .25 
Filter Wheel #1 Position ---------- (1) Ground quartz diffuser (ND=2.32)
Filter Wheel #2 Position ---------- (1) Neutral Density 0.494



************************************************************
HS scan start time = 17:12:01
Dark Count =  4.3 


Time (GMT)  Wavelength (Ang)  Step Number  Raw Counts  Counts/Second

 1032.39        2950.00           1222          63.00       255.89
 1032.46        2950.25           1226          66.00       268.96
 1032.49        2950.50           1229          68.00       277.68
 1032.52        2950.75           1232          68.00       277.68
 1032.55        2951.00           1236          67.00       273.32
 1032.58        2951.25           1239          66.00       268.96
 1032.61        2951.50           1242          63.00       255.89
 1032.64        2951.75           1246          64.00       260.25
 1032.67        2952.00           1249          64.00       260.25
 1032.70        2952.25           1252          64.00       260.25
 1032.74        2952.50           1256          71.00       290.76
 1032.77        2952.75           1259          66.00       268.96
 1032.80        2953.00           1262          64.00       260.25
 1032.83        2953.25           1266          67.00       273.32
 1032.86        2953.50           1269          57.00       229.73
 1032.89        2953.75           1272          68.00       277.68
 1032.92        2954.00           1276          65.00       264.61
 1032.95        2954.25           1279          71.00       290.76
 1032.98        2954.50           1282          74.00       303.84
 1033.01        2954.75           1286          65.00       264.61
 1033.04        2955.00           1289          66.00       268.96
 1033.08        2955.25           1292          69.00       282.04
 1033.11        2955.50           1296          60.00       242.81
 1033.14        2955.75           1299          67.00       273.32
 1033.17        2956.00           1302          78.00       321.28
 1033.20        2956.25           1306          68.00       277.68
 1033.23        2956.50           1309          65.00       264.61
 1033.26        2956.75           1312          54.00       216.65
 1033.29        2957.00           1316          58.00       234.09
 1033.32        2957.25           1319          64.00       260.25
 1033.35        2957.50           1322          68.00       277.68
 1033.38        2957.75           1326          57.00       229.73
 1033.41        2958.00           1329          62.00       251.53
 1033.45        2958.25           1332          52.00       207.94
 1033.48        2958.50           1336          60.00       242.81
 1033.51        2958.75           1339          66.00       268.96
 1033.54        2959.00           1342          67.00       273.32
 1033.57        2959.25           1346          71.00       290.76
 1033.60        2959.50           1349          80.00       329.99
 1033.63        2959.75           1352          90.00       373.59
 1033.66        2960.00           1356         117.00       491.29
 1033.69        2960.25           1359         149.00       630.79
 1033.72        2960.50           1362         198.00       844.40
 1033.75        2960.75           1366         244.00      1044.93
 1033.78        2961.00           1369         281.00      1206.23
 1033.82        2961.25           1372         316.00      1358.82
 1033.85        2961.50           1376         390.00      1681.43
 1033.88        2961.75           1379         578.00      2501.06
 1033.91        2962.00           1382        1213.00      5269.80
 1033.94        2962.25           1386        3027.00     13181.76
 1033.97        2962.50           1389        4486.00     19548.08
 1034.00        2962.75           1392        5902.00     25729.09
 1034.03        2963.00           1396        7961.00     34720.98
 1034.06        2963.25           1399        9578.00     41786.01
 1034.09        2963.50           1402       11097.00     48425.58
 1034.13        2963.75           1406       13139.00     57355.36
 1034.16        2964.00           1409       14850.00     64841.36
 1034.19        2964.25           1412       16245.00     70947.28
 1034.22        2964.50           1416       18353.00     80178.25
 1034.25        2964.75           1419       19905.00     86977.74
 1034.28        2965.00           1422       21349.00     93306.59
 1034.31        2965.25           1426       23546.00    102940.30
 1034.34        2965.50           1429       25055.00    109560.50
 1034.37        2965.75           1432       26736.00    116938.30
 1034.40        2966.00           1436       28847.00    126208.00
 1034.43        2966.25           1439       30143.00    131901.50
 1034.47        2966.50           1442       31559.00    138124.40
 1034.50        2966.75           1446       32952.00    144248.40
 1034.53        2967.00           1449       33148.00    145110.30
 1034.56        2967.25           1452       33275.00    145668.80
 1034.59        2967.50           1456       33407.00    146249.30
 1034.62        2967.75           1459       33458.00    146473.50
 1034.65        2968.00           1462       33022.00    144556.20
 1034.68        2968.25           1466       31945.00    139821.10
 1034.71        2968.50           1469       30729.00    134476.50
 1034.75        2968.75           1472       29527.00    129195.10
 1034.78        2969.00           1476       27279.00    119322.20
 1034.81        2969.25           1479       25695.00    112369.00
 1034.84        2969.50           1482       24083.00    105295.90
 1034.87        2969.75           1486       22116.00     96669.22
 1034.90        2970.00           1489       20546.00     89786.86
 1034.93        2970.25           1492       19240.00     84063.96
 1034.96        2970.50           1496       17375.00     75894.93
 1034.99        2970.75           1499       15711.00     68609.69
 1035.02        2971.00           1502       14092.00     61524.53
 1035.06        2971.25           1506       12150.00     53029.81
 1035.09        2971.50           1509       10510.00     45859.48
 1035.12        2971.75           1513        8447.00     36844.10
 1035.15        2972.00           1516        7053.00     30755.04
 1035.18        2972.25           1519        5368.00     23397.85
 1035.21        2972.50           1523        3542.00     15428.68
 1035.24        2972.75           1526        1966.00      8553.63
 1035.27        2973.00           1529         828.00      3591.06
 1035.30        2973.25           1533         392.00      1690.15
 1035.34        2973.50           1536         319.00      1371.90
 1035.37        2973.75           1539         267.00      1145.20
 1035.40        2974.00           1543         210.00       896.71
 1035.43        2974.25           1546         165.00       700.54
 1035.46        2974.50           1549         130.00       547.96
 1035.49        2974.75           1553          97.00       404.10
 1035.52        2975.00           1556          83.00       343.07
 1035.55        2975.25           1559          61.00       247.17
 1035.58        2975.50           1563          62.00       251.53
 1035.61        2975.75           1566          62.00       251.53
 1035.64        2976.00           1569          64.00       260.25
 1035.67        2976.25           1573          56.00       225.37
 1035.70        2976.50           1576          67.00       273.32
 1035.74        2976.75           1579          63.00       255.89
 1035.77        2977.00           1583          62.00       251.53
 1035.80        2977.25           1586          60.00       242.81
 1035.83        2977.50           1590          57.00       229.73
 1035.86        2977.75           1593          58.00       234.09
 1035.89        2978.00           1596          63.00       255.89
 1035.92        2978.25           1600          65.00       264.61
 1035.95        2978.50           1603          59.00       238.45
 1035.98        2978.75           1606          68.00       277.68
 1036.01        2979.00           1610          61.00       247.17
 1036.04        2979.25           1613          55.00       221.01
 1036.07        2979.50           1616          58.00       234.09
 1036.11        2979.75           1620          74.00       303.84
 1036.14        2980.00           1623          59.00       238.45
 1036.17        2980.25           1626          60.00       242.81
 1036.20        2980.50           1630          62.00       251.53
 1036.23        2980.75           1633          60.00       242.81
 1036.26        2981.00           1637          57.00       229.73
 1036.29        2981.25           1640          58.00       234.09
 1036.32        2981.50           1643          56.00       225.37
 1036.35        2981.75           1647          58.00       234.09
 1036.38        2982.00           1650          60.00       242.81
 1036.41        2982.25           1653          59.00       238.45
 1036.44        2982.50           1657          58.00       234.09
 1036.47        2982.75           1660          58.00       234.09
 1036.50        2983.00           1663          66.00       268.96
 1036.53        2983.25           1667          53.00       212.29
 1036.56        2983.50           1670          54.00       216.65
 1036.60        2983.75           1673          59.00       238.45
 1036.63        2984.00           1677          64.00       260.25
HS scan finished at 17:16:50
end
