************************************************************
  HS Scan of (1) Internal mercury lamp
************************************************************
Integration time is 0.2294 seconds per sample
dh241117Manchester 53.47 2.23 2.750537pr1000
************************************************************
Dead Time -------------------------  3E-08 
Number of Cycles Used -------------  4 
Starting Wavelength (Angstroms) ---  2950 
Final Wavelength (Angstoms) -------  2984 
Wavelength Increment (Angstroms) --  .25 
Filter Wheel #1 Position ---------- (1) Ground quartz diffuser (ND=2.32)
Filter Wheel #2 Position ---------- (1) Neutral Density 0.494



************************************************************
HS scan start time = 04:56:59
Dark Count =  8.2 


Time (GMT)  Wavelength (Ang)  Step Number  Raw Counts  Counts/Second

  297.36        2950.00           1222          58.00       217.09
  297.43        2950.25           1226          67.00       256.32
  297.46        2950.50           1229          59.00       221.45
  297.49        2950.75           1232          58.00       217.09
  297.52        2951.00           1236          68.00       260.68
  297.55        2951.25           1239          59.00       221.45
  297.58        2951.50           1242          61.00       230.17
  297.61        2951.75           1246          62.00       234.53
  297.64        2952.00           1249          68.00       260.68
  297.67        2952.25           1252          58.00       217.09
  297.71        2952.50           1256          67.00       256.32
  297.74        2952.75           1259          49.00       177.86
  297.77        2953.00           1262          58.00       217.09
  297.80        2953.25           1266          69.00       265.04
  297.83        2953.50           1269          62.00       234.53
  297.86        2953.75           1272          73.00       282.48
  297.89        2954.00           1276          62.00       234.53
  297.92        2954.25           1279          56.00       208.37
  297.95        2954.50           1282          63.00       238.89
  297.98        2954.75           1286          70.00       269.40
  298.01        2955.00           1289          64.00       243.25
  298.04        2955.25           1292          62.00       234.53
  298.08        2955.50           1296          57.00       212.73
  298.11        2955.75           1299          66.00       251.96
  298.14        2956.00           1302          64.00       243.25
  298.17        2956.25           1306          60.00       225.81
  298.20        2956.50           1309          58.00       217.09
  298.23        2956.75           1312          64.00       243.25
  298.26        2957.00           1316          70.00       269.40
  298.29        2957.25           1319          66.00       251.96
  298.32        2957.50           1322          65.00       247.60
  298.35        2957.75           1326          58.00       217.09
  298.38        2958.00           1329          65.00       247.60
  298.41        2958.25           1332          65.00       247.60
  298.44        2958.50           1336          66.00       251.96
  298.47        2958.75           1339          64.00       243.25
  298.50        2959.00           1342          63.00       238.89
  298.54        2959.25           1346          71.00       273.76
  298.57        2959.50           1349          74.00       286.84
  298.60        2959.75           1352          96.00       382.74
  298.63        2960.00           1356         125.00       509.16
  298.66        2960.25           1359         162.00       670.46
  298.69        2960.50           1362         192.00       801.24
  298.72        2960.75           1366         251.00      1058.45
  298.75        2961.00           1369         302.00      1280.78
  298.78        2961.25           1372         330.00      1402.85
  298.81        2961.50           1376         394.00      1681.86
  298.84        2961.75           1379         517.00      2218.11
  298.87        2962.00           1382        1007.00      4354.54
  298.90        2962.25           1386        2498.00     10857.07
  298.94        2962.50           1389        3992.00     17375.23
  298.97        2962.75           1392        5384.00     23450.67
  299.00        2963.00           1396        7332.00     31956.52
  299.03        2963.25           1399        8969.00     39107.76
  299.06        2963.50           1402       10749.00     46887.18
  299.09        2963.75           1406       12866.00     56144.18
  299.12        2964.00           1409       14476.00     63187.67
  299.15        2964.25           1412       16074.00     70181.60
  299.18        2964.50           1416       18024.00     78720.13
  299.21        2964.75           1419       19716.00     86132.48
  299.24        2965.00           1422       21162.00     92469.78
  299.27        2965.25           1426       23159.00    101225.90
  299.31        2965.50           1429       24803.00    108437.60
  299.34        2965.75           1432       26336.00    115165.30
  299.37        2966.00           1436       28515.00    124732.70
  299.40        2966.25           1439       29690.00    129894.00
  299.43        2966.50           1442       31237.00    136691.90
  299.46        2966.75           1446       32782.00    143483.80
  299.49        2967.00           1449       33390.00    146157.30
  299.52        2967.25           1452       33390.00    146157.30
  299.55        2967.50           1456       33390.00    146157.30
  299.59        2967.75           1459       33415.00    146267.30
  299.62        2968.00           1462       33362.00    146034.20
  299.65        2968.25           1466       32730.00    143255.20
  299.68        2968.50           1469       31241.00    136709.50
  299.71        2968.75           1472       30243.00    132323.70
  299.74        2969.00           1476       28110.00    122954.00
  299.77        2969.25           1479       26594.00    116297.80
  299.80        2969.50           1482       24921.00    108955.40
  299.83        2969.75           1486       22899.00    100085.60
  299.86        2970.00           1489       21145.00     92395.25
  299.90        2970.25           1492       19719.00     86145.62
  299.93        2970.50           1496       17806.00     77765.35
  299.96        2970.75           1499       16292.00     71135.96
  299.99        2971.00           1502       14755.00     64408.56
  300.02        2971.25           1506       12667.00     55273.80
  300.05        2971.50           1509       11259.00     49116.79
  300.08        2971.75           1513        9324.00     40658.98
  300.11        2972.00           1516        7894.00     34411.27
  300.14        2972.25           1519        6260.00     27275.14
  300.17        2972.50           1523        4125.00     17955.62
  300.20        2972.75           1526        2637.00     11463.40
  300.24        2973.00           1529        1272.00      5510.07
  300.27        2973.25           1533         459.00      1965.24
  300.30        2973.50           1536         321.00      1363.61
  300.33        2973.75           1539         266.00      1123.84
  300.36        2974.00           1543         211.00       884.07
  300.39        2974.25           1546         154.00       635.58
  300.42        2974.50           1549         123.00       500.44
  300.45        2974.75           1553          91.00       360.95
  300.48        2975.00           1556          78.00       304.27
  300.51        2975.25           1559          66.00       251.96
  300.54        2975.50           1563          63.00       238.89
  300.57        2975.75           1566          66.00       251.96
  300.60        2976.00           1569          60.00       225.81
  300.64        2976.25           1573          65.00       247.60
  300.67        2976.50           1576          69.00       265.04
  300.70        2976.75           1579          52.00       190.93
  300.73        2977.00           1583          60.00       225.81
  300.76        2977.25           1586          64.00       243.25
  300.79        2977.50           1590          61.00       230.17
  300.82        2977.75           1593          58.00       217.09
  300.85        2978.00           1596          66.00       251.96
  300.88        2978.25           1600          61.00       230.17
  300.91        2978.50           1603          67.00       256.32
  300.94        2978.75           1606          68.00       260.68
  300.98        2979.00           1610          61.00       230.17
  301.01        2979.25           1613          67.00       256.32
  301.04        2979.50           1616          73.00       282.48
  301.07        2979.75           1620          55.00       204.01
  301.10        2980.00           1623          56.00       208.37
  301.13        2980.25           1626          55.00       204.01
  301.16        2980.50           1630          67.00       256.32
  301.19        2980.75           1633          54.00       199.65
  301.22        2981.00           1637          62.00       234.53
  301.25        2981.25           1640          56.00       208.37
  301.28        2981.50           1643          55.00       204.01
  301.31        2981.75           1647          57.00       212.73
  301.34        2982.00           1650          61.00       230.17
  301.37        2982.25           1653          60.00       225.81
  301.40        2982.50           1657          55.00       204.01
  301.43        2982.75           1660          59.00       221.45
  301.47        2983.00           1663          56.00       208.37
  301.50        2983.25           1667          55.00       204.01
  301.53        2983.50           1670          51.00       186.57
  301.56        2983.75           1673          63.00       238.89
  301.59        2984.00           1677          60.00       225.81
HS scan finished at 05:01:48
end
************************************************************
  HS Scan of (1) Internal mercury lamp
************************************************************
Integration time is 0.2294 seconds per sample
dh241117Manchester 53.47 2.23 2.750537pr1000
************************************************************
Dead Time -------------------------  3E-08 
Number of Cycles Used -------------  4 
Starting Wavelength (Angstroms) ---  2950 
Final Wavelength (Angstoms) -------  2984 
Wavelength Increment (Angstroms) --  .25 
Filter Wheel #1 Position ---------- (1) Ground quartz diffuser (ND=2.32)
Filter Wheel #2 Position ---------- (1) Neutral Density 0.494



************************************************************
HS scan start time = 17:12:00
Dark Count =  7.6 


Time (GMT)  Wavelength (Ang)  Step Number  Raw Counts  Counts/Second

 1032.38        2950.00           1222          61.00       232.78
 1032.44        2950.25           1226          62.00       237.14
 1032.47        2950.50           1229          62.00       237.14
 1032.51        2950.75           1232          64.00       245.86
 1032.54        2951.00           1236          69.00       267.66
 1032.57        2951.25           1239          63.00       241.50
 1032.60        2951.50           1242          63.00       241.50
 1032.63        2951.75           1246          70.00       272.02
 1032.66        2952.00           1249          66.00       254.58
 1032.69        2952.25           1252          65.00       250.22
 1032.72        2952.50           1256          57.00       215.35
 1032.75        2952.75           1259          67.00       258.94
 1032.78        2953.00           1262          69.00       267.66
 1032.81        2953.25           1266          63.00       241.50
 1032.85        2953.50           1269          55.00       206.63
 1032.88        2953.75           1272          54.00       202.27
 1032.91        2954.00           1276          62.00       237.14
 1032.94        2954.25           1279          61.00       232.78
 1032.97        2954.50           1282          73.00       285.09
 1033.00        2954.75           1286          73.00       285.09
 1033.03        2955.00           1289          61.00       232.78
 1033.06        2955.25           1292          72.00       280.73
 1033.09        2955.50           1296          67.00       258.94
 1033.12        2955.75           1299          55.00       206.63
 1033.15        2956.00           1302          65.00       250.22
 1033.18        2956.25           1306          64.00       245.86
 1033.22        2956.50           1309          64.00       245.86
 1033.25        2956.75           1312          68.00       263.30
 1033.28        2957.00           1316          60.00       228.42
 1033.31        2957.25           1319          63.00       241.50
 1033.34        2957.50           1322          70.00       272.02
 1033.37        2957.75           1326          66.00       254.58
 1033.40        2958.00           1329          69.00       267.66
 1033.43        2958.25           1332          64.00       245.86
 1033.46        2958.50           1336          67.00       258.94
 1033.49        2958.75           1339          72.00       280.73
 1033.52        2959.00           1342          73.00       285.09
 1033.56        2959.25           1346          68.00       263.30
 1033.59        2959.50           1349          71.00       276.38
 1033.62        2959.75           1352          86.00       341.76
 1033.65        2960.00           1356         109.00       442.03
 1033.68        2960.25           1359         137.00       564.09
 1033.71        2960.50           1362         179.00       747.18
 1033.74        2960.75           1366         222.00       934.64
 1033.77        2961.00           1369         262.00      1109.02
 1033.80        2961.25           1372         297.00      1261.60
 1033.83        2961.50           1376         379.00      1619.08
 1033.86        2961.75           1379         566.00      2434.35
 1033.90        2962.00           1382        1266.00      5486.52
 1033.93        2962.25           1386        3044.00     13241.53
 1033.96        2962.50           1389        4474.00     19481.31
 1033.99        2962.75           1392        5867.00     25561.88
 1034.02        2963.00           1396        7839.00     34173.64
 1034.05        2963.25           1399        9486.00     41369.53
 1034.08        2963.50           1402       11048.00     48196.93
 1034.11        2963.75           1406       13175.00     57498.40
 1034.14        2964.00           1409       14683.00     64096.11
 1034.17        2964.25           1412       16211.00     70783.98
 1034.20        2964.50           1416       18332.00     80071.81
 1034.23        2964.75           1419       19823.00     86603.98
 1034.26        2965.00           1422       21352.00     93305.28
 1034.30        2965.25           1426       23352.00    102075.00
 1034.33        2965.50           1429       25024.00    109410.00
 1034.36        2965.75           1432       26661.00    116594.60
 1034.39        2966.00           1436       28682.00    125468.80
 1034.42        2966.25           1439       30089.00    131649.70
 1034.45        2966.50           1442       31456.00    137657.10
 1034.48        2966.75           1446       32754.00    143363.30
 1034.51        2967.00           1449       33012.00    144497.70
 1034.54        2967.25           1452       33198.00    145315.60
 1034.58        2967.50           1456       33158.00    145139.80
 1034.61        2967.75           1459       32920.00    144093.20
 1034.64        2968.00           1462       32806.00    143591.90
 1034.67        2968.25           1466       31752.00    138958.20
 1034.70        2968.50           1469       30498.00    133446.90
 1034.73        2968.75           1472       28876.00    126320.90
 1034.76        2969.00           1476       26856.00    117450.60
 1034.79        2969.25           1479       25201.00    110186.70
 1034.82        2969.50           1482       24024.00    105022.60
 1034.86        2969.75           1486       21975.00     96036.54
 1034.89        2970.00           1489       20406.00     89158.83
 1034.92        2970.25           1492       18998.00     82989.28
 1034.95        2970.50           1496       17050.00     74457.33
 1034.98        2970.75           1499       15525.00     67781.11
 1035.01        2971.00           1502       13821.00     60324.42
 1035.04        2971.25           1506       11810.00     51528.60
 1035.07        2971.50           1509       10222.00     44586.19
 1035.10        2971.75           1513        8296.00     36170.00
 1035.14        2972.00           1516        6865.00     29919.61
 1035.17        2972.25           1519        5210.00     22693.74
 1035.20        2972.50           1523        3161.00     13751.97
 1035.23        2972.75           1526        1808.00      7850.15
 1035.26        2973.00           1529         803.00      3467.67
 1035.29        2973.25           1533         404.00      1728.08
 1035.32        2973.50           1536         332.00      1414.18
 1035.35        2973.75           1539         288.00      1222.36
 1035.38        2974.00           1543         242.00      1021.83
 1035.41        2974.25           1546         175.00       729.75
 1035.44        2974.50           1549         139.00       572.81
 1035.47        2974.75           1553          90.00       359.20
 1035.50        2975.00           1556          78.00       306.89
 1035.54        2975.25           1559          70.00       272.02
 1035.57        2975.50           1563          68.00       263.30
 1035.60        2975.75           1566          62.00       237.14
 1035.63        2976.00           1569          60.00       228.42
 1035.66        2976.25           1573          60.00       228.42
 1035.69        2976.50           1576          65.00       250.22
 1035.72        2976.75           1579          66.00       254.58
 1035.75        2977.00           1583          66.00       254.58
 1035.78        2977.25           1586          67.00       258.94
 1035.81        2977.50           1590          68.00       263.30
 1035.84        2977.75           1593          73.00       285.09
 1035.88        2978.00           1596          59.00       224.06
 1035.91        2978.25           1600          69.00       267.66
 1035.94        2978.50           1603          62.00       237.14
 1035.97        2978.75           1606          60.00       228.42
 1036.00        2979.00           1610          61.00       232.78
 1036.03        2979.25           1613          58.00       219.71
 1036.06        2979.50           1616          61.00       232.78
 1036.09        2979.75           1620          61.00       232.78
 1036.12        2980.00           1623          62.00       237.14
 1036.15        2980.25           1626          63.00       241.50
 1036.18        2980.50           1630          62.00       237.14
 1036.21        2980.75           1633          60.00       228.42
 1036.24        2981.00           1637          54.00       202.27
 1036.28        2981.25           1640          60.00       228.42
 1036.31        2981.50           1643          64.00       245.86
 1036.34        2981.75           1647          56.00       210.99
 1036.37        2982.00           1650          62.00       237.14
 1036.40        2982.25           1653          61.00       232.78
 1036.43        2982.50           1657          62.00       237.14
 1036.46        2982.75           1660          67.00       258.94
 1036.49        2983.00           1663          61.00       232.78
 1036.52        2983.25           1667          65.00       250.22
 1036.55        2983.50           1670          67.00       258.94
 1036.58        2983.75           1673          54.00       202.27
 1036.61        2984.00           1677          61.00       232.78
HS scan finished at 17:16:50
end
