************************************************************
  HS Scan of (1) Internal mercury lamp
************************************************************
Integration time is 0.2294 seconds per sample
dh221117Manchester 53.47 2.23 2.804185pr1000
************************************************************
Dead Time -------------------------  3E-08 
Number of Cycles Used -------------  4 
Starting Wavelength (Angstroms) ---  2950 
Final Wavelength (Angstoms) -------  2984 
Wavelength Increment (Angstroms) --  .25 
Filter Wheel #1 Position ---------- (1) Ground quartz diffuser (ND=2.32)
Filter Wheel #2 Position ---------- (1) Neutral Density 0.494



************************************************************
HS scan start time = 04:55:29
Dark Count =  5.1 


Time (GMT)  Wavelength (Ang)  Step Number  Raw Counts  Counts/Second

  295.85        2950.00           1222          67.00       269.84
  295.92        2950.25           1226          63.00       252.40
  295.95        2950.50           1229          72.00       291.63
  295.98        2950.75           1232          68.00       274.20
  296.01        2951.00           1236          61.00       243.68
  296.04        2951.25           1239          68.00       274.20
  296.07        2951.50           1242          54.00       213.17
  296.10        2951.75           1246          53.00       208.81
  296.14        2952.00           1249          56.00       221.88
  296.17        2952.25           1252          65.00       261.12
  296.20        2952.50           1256          73.00       295.99
  296.23        2952.75           1259          64.00       256.76
  296.26        2953.00           1262          67.00       269.84
  296.29        2953.25           1266          66.00       265.48
  296.32        2953.50           1269          62.00       248.04
  296.35        2953.75           1272          67.00       269.84
  296.38        2954.00           1276          64.00       256.76
  296.41        2954.25           1279          63.00       252.40
  296.44        2954.50           1282          57.00       226.24
  296.47        2954.75           1286          68.00       274.20
  296.51        2955.00           1289          71.00       287.27
  296.54        2955.25           1292          64.00       256.76
  296.57        2955.50           1296          62.00       248.04
  296.60        2955.75           1299          64.00       256.76
  296.63        2956.00           1302          61.00       243.68
  296.66        2956.25           1306          57.00       226.24
  296.69        2956.50           1309          71.00       287.27
  296.72        2956.75           1312          64.00       256.76
  296.75        2957.00           1316          62.00       248.04
  296.78        2957.25           1319          67.00       269.84
  296.81        2957.50           1322          62.00       248.04
  296.84        2957.75           1326          65.00       261.12
  296.87        2958.00           1329          65.00       261.12
  296.90        2958.25           1332          67.00       269.84
  296.93        2958.50           1336          65.00       261.12
  296.97        2958.75           1339          73.00       295.99
  297.00        2959.00           1342          63.00       252.40
  297.03        2959.25           1346          67.00       269.84
  297.06        2959.50           1349          73.00       295.99
  297.09        2959.75           1352          76.00       309.07
  297.12        2960.00           1356         101.00       418.05
  297.15        2960.25           1359         139.00       583.71
  297.18        2960.50           1362         166.00       701.41
  297.21        2960.75           1366         228.00       971.69
  297.24        2961.00           1369         269.00      1150.43
  297.27        2961.25           1372         321.00      1377.13
  297.30        2961.50           1376         367.00      1577.67
  297.33        2961.75           1379         475.00      2048.51
  297.37        2962.00           1382         958.00      4154.40
  297.40        2962.25           1386        2490.00     10835.69
  297.43        2962.50           1389        3930.00     17118.21
  297.46        2962.75           1392        5441.00     23713.03
  297.49        2963.00           1396        7488.00     32651.41
  297.52        2963.25           1399        8942.00     39003.33
  297.55        2963.50           1402       10472.00     45689.88
  297.58        2963.75           1406       12568.00     54854.37
  297.61        2964.00           1409       14126.00     61669.79
  297.64        2964.25           1412       15820.00     69083.31
  297.67        2964.50           1416       18021.00     78720.56
  297.71        2964.75           1419       19487.00     85142.66
  297.74        2965.00           1422       21218.00     92728.83
  297.77        2965.25           1426       23190.00    101375.40
  297.80        2965.50           1429       24895.00    108854.90
  297.83        2965.75           1432       26355.00    115262.30
  297.86        2966.00           1436       28516.00    124750.70
  297.89        2966.25           1439       30025.00    131379.50
  297.92        2966.50           1442       31511.00    137909.90
  297.96        2966.75           1446       33024.00    144561.50
  297.99        2967.00           1449       33476.00    146549.20
  298.02        2967.25           1452       33449.00    146430.40
  298.05        2967.50           1456       33503.00    146667.90
  298.08        2967.75           1459       33672.00    147411.10
  298.11        2968.00           1462       33570.00    146962.60
  298.14        2968.25           1466       32780.00    143488.60
  298.17        2968.50           1469       31641.00    138481.30
  298.20        2968.75           1472       30289.00    132539.50
  298.23        2969.00           1476       28104.00    122941.30
  298.27        2969.25           1479       26633.00    116482.60
  298.30        2969.50           1482       25221.00    110285.40
  298.33        2969.75           1486       23105.00    101002.60
  298.36        2970.00           1489       21528.00     94087.78
  298.39        2970.25           1492       20141.00     88008.43
  298.42        2970.50           1496       18089.00     79018.40
  298.45        2970.75           1499       16462.00     71893.78
  298.48        2971.00           1502       14766.00     64470.26
  298.51        2971.25           1506       12866.00     56157.74
  298.54        2971.50           1509       11420.00     49834.26
  298.57        2971.75           1513        9385.00     40939.10
  298.61        2972.00           1516        7906.00     34477.23
  298.64        2972.25           1519        6435.00     28052.81
  298.67        2972.50           1523        4388.00     19116.89
  298.70        2972.75           1526        2873.00     12506.44
  298.73        2973.00           1529        1459.00      6339.04
  298.76        2973.25           1533         535.00      2310.10
  298.79        2973.50           1536         368.00      1582.03
  298.82        2973.75           1539         334.00      1433.80
  298.85        2974.00           1543         264.00      1128.63
  298.88        2974.25           1546         225.00       958.62
  298.92        2974.50           1549         183.00       775.52
  298.95        2974.75           1553         124.00       518.32
  298.98        2975.00           1556          98.00       404.97
  299.01        2975.25           1559          75.00       304.71
  299.04        2975.50           1563          68.00       274.20
  299.07        2975.75           1566          59.00       234.96
  299.10        2976.00           1569          67.00       269.84
  299.13        2976.25           1573          57.00       226.24
  299.16        2976.50           1576          66.00       265.48
  299.19        2976.75           1579          70.00       282.91
  299.22        2977.00           1583          59.00       234.96
  299.26        2977.25           1586          66.00       265.48
  299.29        2977.50           1590          62.00       248.04
  299.32        2977.75           1593          53.00       208.81
  299.35        2978.00           1596          57.00       226.24
  299.38        2978.25           1600          67.00       269.84
  299.41        2978.50           1603          60.00       239.32
  299.44        2978.75           1606          62.00       248.04
  299.47        2979.00           1610          74.00       300.35
  299.50        2979.25           1613          54.00       213.17
  299.53        2979.50           1616          59.00       234.96
  299.56        2979.75           1620          57.00       226.24
  299.59        2980.00           1623          59.00       234.96
  299.62        2980.25           1626          62.00       248.04
  299.65        2980.50           1630          60.00       239.32
  299.68        2980.75           1633          60.00       239.32
  299.71        2981.00           1637          60.00       239.32
  299.75        2981.25           1640          57.00       226.24
  299.78        2981.50           1643          60.00       239.32
  299.81        2981.75           1647          58.00       230.60
  299.84        2982.00           1650          53.00       208.81
  299.87        2982.25           1653          63.00       252.40
  299.90        2982.50           1657          60.00       239.32
  299.93        2982.75           1660          59.00       234.96
  299.96        2983.00           1663          55.00       217.53
  299.99        2983.25           1667          63.00       252.40
  300.02        2983.50           1670          55.00       217.53
  300.05        2983.75           1673          64.00       256.76
  300.08        2984.00           1677          58.00       230.60
HS scan finished at 05:00:18
end
