************************************************************
  HS Scan of (1) Internal mercury lamp
************************************************************
Integration time is 0.2294 seconds per sample
dh211118Manchester 53.47 2.23 2.804185pr1000
************************************************************
Dead Time -------------------------  3E-08 
Number of Cycles Used -------------  4 
Starting Wavelength (Angstroms) ---  2950 
Final Wavelength (Angstoms) -------  2984 
Wavelength Increment (Angstroms) --  .25 
Filter Wheel #1 Position ---------- (1) Ground quartz diffuser (ND=2.32)
Filter Wheel #2 Position ---------- (1) Neutral Density 0.494



************************************************************
HS scan start time = 04:52:31
Dark Count =  5.2 


Time (GMT)  Wavelength (Ang)  Step Number  Raw Counts  Counts/Second

  292.88        2950.00           1222          55.00       217.09
  292.95        2950.25           1226          53.00       208.37
  292.98        2950.50           1229          51.00       199.65
  293.01        2950.75           1232          51.00       199.65
  293.04        2951.00           1236          51.00       199.65
  293.07        2951.25           1239          45.00       173.50
  293.10        2951.50           1242          53.00       208.37
  293.13        2951.75           1246          51.00       199.65
  293.16        2952.00           1249          44.00       169.14
  293.19        2952.25           1252          52.00       204.01
  293.22        2952.50           1256          50.00       195.29
  293.25        2952.75           1259          45.00       173.50
  293.28        2953.00           1262          49.00       190.93
  293.32        2953.25           1266          50.00       195.29
  293.35        2953.50           1269          46.00       177.86
  293.38        2953.75           1272          55.00       217.09
  293.41        2954.00           1276          48.00       186.57
  293.44        2954.25           1279          56.00       221.45
  293.47        2954.50           1282          48.00       186.57
  293.50        2954.75           1286          51.00       199.65
  293.53        2955.00           1289          41.00       156.06
  293.56        2955.25           1292          54.00       212.73
  293.59        2955.50           1296          46.00       177.86
  293.62        2955.75           1299          51.00       199.65
  293.65        2956.00           1302          49.00       190.93
  293.69        2956.25           1306          43.00       164.78
  293.72        2956.50           1309          50.00       195.29
  293.75        2956.75           1312          53.00       208.37
  293.78        2957.00           1316          58.00       230.17
  293.81        2957.25           1319          48.00       186.57
  293.84        2957.50           1322          54.00       212.73
  293.87        2957.75           1326          53.00       208.37
  293.90        2958.00           1329          49.00       190.93
  293.93        2958.25           1332          54.00       212.73
  293.96        2958.50           1336          43.00       164.78
  294.00        2958.75           1339          56.00       221.45
  294.03        2959.00           1342          50.00       195.29
  294.06        2959.25           1346          46.00       177.86
  294.09        2959.50           1349          55.00       217.09
  294.12        2959.75           1352          65.00       260.68
  294.15        2960.00           1356          86.00       352.23
  294.18        2960.25           1359          88.00       360.95
  294.21        2960.50           1362         118.00       491.72
  294.24        2960.75           1366         152.00       639.94
  294.27        2961.00           1369         189.00       801.24
  294.30        2961.25           1372         223.00       949.46
  294.33        2961.50           1376         275.00      1176.15
  294.36        2961.75           1379         359.00      1542.36
  294.39        2962.00           1382         658.00      2845.93
  294.42        2962.25           1386        1837.00      7987.09
  294.46        2962.50           1389        2965.00     12907.35
  294.49        2962.75           1392        4124.00     17964.34
  294.52        2963.00           1396        5562.00     24240.82
  294.55        2963.25           1399        6526.00     28449.73
  294.58        2963.50           1402        7737.00     33738.58
  294.61        2963.75           1406        9178.00     40034.10
  294.64        2964.00           1409       10364.00     45217.36
  294.67        2964.25           1412       11577.00     50520.28
  294.70        2964.50           1416       13087.00     57123.97
  294.74        2964.75           1419       14263.00     62268.79
  294.77        2965.00           1422       15372.00     67121.95
  294.80        2965.25           1426       16878.00     73714.71
  294.83        2965.50           1429       17916.00     78260.25
  294.86        2965.75           1432       19141.00     83626.28
  294.89        2966.00           1436       20709.00     90497.33
  294.92        2966.25           1439       21640.00     94578.35
  294.95        2966.50           1442       22715.00     99291.84
  294.98        2966.75           1446       23841.00    104230.40
  295.01        2967.00           1449       24004.00    104945.40
  295.04        2967.25           1452       24206.00    105831.60
  295.08        2967.50           1456       24260.00    106068.50
  295.11        2967.75           1459       24202.00    105814.00
  295.14        2968.00           1462       24124.00    105471.80
  295.17        2968.25           1466       23651.00    103397.00
  295.20        2968.50           1469       22617.00     98862.09
  295.23        2968.75           1472       21549.00     94179.41
  295.26        2969.00           1476       20238.00     88433.08
  295.29        2969.25           1479       19134.00     83595.62
  295.32        2969.50           1482       17957.00     78439.82
  295.35        2969.75           1486       16529.00     72186.68
  295.39        2970.00           1489       15396.00     67227.00
  295.42        2970.25           1492       14316.00     62500.69
  295.45        2970.50           1496       12904.00     56323.51
  295.48        2970.75           1499       11696.00     51040.61
  295.51        2971.00           1502       10672.00     46563.69
  295.54        2971.25           1506        9060.00     39518.49
  295.57        2971.50           1509        7972.00     34765.10
  295.60        2971.75           1513        6423.00     27999.97
  295.64        2972.00           1516        5476.00     23865.38
  295.67        2972.25           1519        4395.00     19147.00
  295.70        2972.50           1523        2859.00     12444.92
  295.73        2972.75           1526        1859.00      8083.04
  295.76        2973.00           1529         888.00      3848.74
  295.79        2973.25           1533         361.00      1551.07
  295.82        2973.50           1536         250.00      1067.17
  295.85        2973.75           1539         207.00       879.71
  295.88        2974.00           1543         178.00       753.29
  295.92        2974.25           1546         129.00       539.68
  295.95        2974.50           1549         113.00       469.93
  295.98        2974.75           1553          83.00       339.15
  296.01        2975.00           1556          58.00       230.17
  296.04        2975.25           1559          52.00       204.01
  296.07        2975.50           1563          43.00       164.78
  296.10        2975.75           1566          53.00       208.37
  296.13        2976.00           1569          49.00       190.93
  296.16        2976.25           1573          45.00       173.50
  296.19        2976.50           1576          53.00       208.37
  296.23        2976.75           1579          58.00       230.17
  296.26        2977.00           1583          50.00       195.29
  296.29        2977.25           1586          48.00       186.57
  296.32        2977.50           1590          47.00       182.22
  296.35        2977.75           1593          47.00       182.22
  296.38        2978.00           1596          50.00       195.29
  296.41        2978.25           1600          46.00       177.86
  296.44        2978.50           1603          44.00       169.14
  296.47        2978.75           1606          44.00       169.14
  296.50        2979.00           1610          47.00       182.22
  296.53        2979.25           1613          41.00       156.06
  296.56        2979.50           1616          37.00       138.62
  296.59        2979.75           1620          41.00       156.06
  296.62        2980.00           1623          49.00       190.93
  296.65        2980.25           1626          42.00       160.42
  296.68        2980.50           1630          46.00       177.86
  296.71        2980.75           1633          35.00       129.90
  296.74        2981.00           1637          49.00       190.93
  296.77        2981.25           1640          44.00       169.14
  296.80        2981.50           1643          49.00       190.93
  296.83        2981.75           1647          42.00       160.42
  296.87        2982.00           1650          44.00       169.14
  296.90        2982.25           1653          41.00       156.06
  296.93        2982.50           1657          46.00       177.86
  296.96        2982.75           1660          42.00       160.42
  296.99        2983.00           1663          45.00       173.50
  297.02        2983.25           1667          42.00       160.42
  297.05        2983.50           1670          39.00       147.34
  297.08        2983.75           1673          43.00       164.78
  297.11        2984.00           1677          41.00       156.06
HS scan finished at 04:57:20
end
************************************************************
  HS Scan of (1) Internal mercury lamp
************************************************************
Integration time is 0.2294 seconds per sample
dh211118Manchester 53.47 2.23 2.804185pr1000
************************************************************
Dead Time -------------------------  3E-08 
Number of Cycles Used -------------  4 
Starting Wavelength (Angstroms) ---  2950 
Final Wavelength (Angstoms) -------  2984 
Wavelength Increment (Angstroms) --  .25 
Filter Wheel #1 Position ---------- (1) Ground quartz diffuser (ND=2.32)
Filter Wheel #2 Position ---------- (1) Neutral Density 0.494



************************************************************
HS scan start time = 18:12:01
Dark Count =  6.9 


Time (GMT)  Wavelength (Ang)  Step Number  Raw Counts  Counts/Second

 1092.39        2950.00           1222          51.00       192.24
 1092.46        2950.25           1226          49.00       183.52
 1092.49        2950.50           1229          46.00       170.45
 1092.52        2950.75           1232          46.00       170.45
 1092.55        2951.00           1236          52.00       196.60
 1092.58        2951.25           1239          39.00       139.93
 1092.61        2951.50           1242          49.00       183.52
 1092.64        2951.75           1246          51.00       192.24
 1092.68        2952.00           1249          46.00       170.45
 1092.71        2952.25           1252          46.00       170.45
 1092.74        2952.50           1256          48.00       179.16
 1092.77        2952.75           1259          42.00       153.01
 1092.80        2953.00           1262          46.00       170.45
 1092.83        2953.25           1266          52.00       196.60
 1092.86        2953.50           1269          51.00       192.24
 1092.89        2953.75           1272          52.00       196.60
 1092.92        2954.00           1276          41.00       148.65
 1092.95        2954.25           1279          55.00       209.68
 1092.98        2954.50           1282          47.00       174.80
 1093.01        2954.75           1286          47.00       174.80
 1093.04        2955.00           1289          48.00       179.16
 1093.07        2955.25           1292          48.00       179.16
 1093.10        2955.50           1296          49.00       183.52
 1093.13        2955.75           1299          45.00       166.09
 1093.17        2956.00           1302          47.00       174.80
 1093.20        2956.25           1306          52.00       196.60
 1093.23        2956.50           1309          55.00       209.68
 1093.26        2956.75           1312          51.00       192.24
 1093.29        2957.00           1316          47.00       174.80
 1093.32        2957.25           1319          45.00       166.09
 1093.35        2957.50           1322          50.00       187.88
 1093.38        2957.75           1326          48.00       179.16
 1093.41        2958.00           1329          47.00       174.80
 1093.44        2958.25           1332          50.00       187.88
 1093.47        2958.50           1336          56.00       214.04
 1093.50        2958.75           1339          45.00       166.09
 1093.53        2959.00           1342          53.00       200.96
 1093.57        2959.25           1346          57.00       218.40
 1093.60        2959.50           1349          54.00       205.32
 1093.63        2959.75           1352          63.00       244.55
 1093.66        2960.00           1356          83.00       331.74
 1093.69        2960.25           1359          91.00       366.61
 1093.72        2960.50           1362         118.00       484.31
 1093.75        2960.75           1366         164.00       684.84
 1093.78        2961.00           1369         217.00       915.89
 1093.81        2961.25           1372         225.00       950.77
 1093.84        2961.50           1376         280.00      1190.54
 1093.87        2961.75           1379         390.00      1670.09
 1093.90        2962.00           1382         808.00      3492.52
 1093.93        2962.25           1386        2008.00      8725.47
 1093.96        2962.50           1389        3024.00     13157.33
 1093.99        2962.75           1392        4079.00     17760.55
 1094.03        2963.00           1396        5420.00     23613.50
 1094.06        2963.25           1399        6532.00     28468.51
 1094.09        2963.50           1402        7695.00     33547.70
 1094.12        2963.75           1406        9175.00     40013.57
 1094.15        2964.00           1409       10417.00     45441.60
 1094.18        2964.25           1412       11669.00     50915.12
 1094.21        2964.50           1416       13207.00     57641.44
 1094.24        2964.75           1419       14283.00     62348.86
 1094.27        2965.00           1422       15495.00     67652.87
 1094.30        2965.25           1426       16916.00     73873.66
 1094.34        2965.50           1429       18052.00     78848.46
 1094.37        2965.75           1432       19092.00     83404.16
 1094.40        2966.00           1436       20553.00     89806.14
 1094.43        2966.25           1439       21570.00     94264.02
 1094.46        2966.50           1442       22652.00     99008.12
 1094.49        2966.75           1446       23798.00    104034.30
 1094.52        2967.00           1449       23867.00    104337.00
 1094.55        2967.25           1452       23992.00    104885.30
 1094.58        2967.50           1456       23998.00    104911.60
 1094.61        2967.75           1459       24014.00    104981.80
 1094.65        2968.00           1462       23987.00    104863.40
 1094.68        2968.25           1466       23321.00    101942.10
 1094.71        2968.50           1469       22318.00     97543.53
 1094.74        2968.75           1472       21249.00     92856.83
 1094.77        2969.00           1476       19994.00     87356.36
 1094.80        2969.25           1479       18704.00     81704.38
 1094.83        2969.50           1482       17762.00     77578.34
 1094.86        2969.75           1486       16113.00     70358.03
 1094.89        2970.00           1489       15082.00     65845.28
 1094.93        2970.25           1492       14143.00     61736.30
 1094.96        2970.50           1496       12694.00     55397.57
 1094.99        2970.75           1499       11493.00     50145.57
 1095.02        2971.00           1502       10448.00     45577.10
 1095.05        2971.25           1506        8950.00     39030.42
 1095.08        2971.50           1509        7771.00     33879.67
 1095.11        2971.75           1513        6370.00     27761.12
 1095.14        2972.00           1516        5275.00     22980.53
 1095.17        2972.25           1519        4197.00     18275.49
 1095.21        2972.50           1523        2754.00     11979.46
 1095.24        2972.75           1526        1676.00      7277.53
 1095.27        2973.00           1529         758.00      3274.52
 1095.30        2973.25           1533         323.00      1378.00
 1095.33        2973.50           1536         237.00      1003.08
 1095.36        2973.75           1539         205.00       863.58
 1095.39        2974.00           1543         172.00       719.72
 1095.42        2974.25           1546         137.00       567.14
 1095.45        2974.50           1549          97.00       392.77
 1095.48        2974.75           1553          74.00       292.50
 1095.51        2975.00           1556          70.00       275.07
 1095.54        2975.25           1559          45.00       166.09
 1095.58        2975.50           1563          48.00       179.16
 1095.61        2975.75           1566          51.00       192.24
 1095.64        2976.00           1569          43.00       157.37
 1095.67        2976.25           1573          52.00       196.60
 1095.70        2976.50           1576          49.00       183.52
 1095.73        2976.75           1579          45.00       166.09
 1095.76        2977.00           1583          50.00       187.88
 1095.79        2977.25           1586          46.00       170.45
 1095.82        2977.50           1590          49.00       183.52
 1095.85        2977.75           1593          42.00       153.01
 1095.88        2978.00           1596          47.00       174.80
 1095.91        2978.25           1600          50.00       187.88
 1095.95        2978.50           1603          44.00       161.73
 1095.98        2978.75           1606          50.00       187.88
 1096.01        2979.00           1610          45.00       166.09
 1096.04        2979.25           1613          45.00       166.09
 1096.07        2979.50           1616          49.00       183.52
 1096.10        2979.75           1620          45.00       166.09
 1096.13        2980.00           1623          41.00       148.65
 1096.16        2980.25           1626          41.00       148.65
 1096.19        2980.50           1630          47.00       174.80
 1096.22        2980.75           1633          48.00       179.16
 1096.25        2981.00           1637          50.00       187.88
 1096.28        2981.25           1640          41.00       148.65
 1096.32        2981.50           1643          41.00       148.65
 1096.35        2981.75           1647          43.00       157.37
 1096.38        2982.00           1650          50.00       187.88
 1096.41        2982.25           1653          45.00       166.09
 1096.44        2982.50           1657          46.00       170.45
 1096.47        2982.75           1660          48.00       179.16
 1096.50        2983.00           1663          45.00       166.09
 1096.53        2983.25           1667          40.00       144.29
 1096.56        2983.50           1670          44.00       161.73
 1096.59        2983.75           1673          46.00       170.45
 1096.62        2984.00           1677          41.00       148.65
HS scan finished at 18:16:51
end
