************************************************************
  HS Scan of (1) Internal mercury lamp
************************************************************
Integration time is 0.2294 seconds per sample
dh231118Manchester 53.47 2.23 2.804185pr1000
************************************************************
Dead Time -------------------------  3E-08 
Number of Cycles Used -------------  4 
Starting Wavelength (Angstroms) ---  2950 
Final Wavelength (Angstoms) -------  2984 
Wavelength Increment (Angstroms) --  .25 
Filter Wheel #1 Position ---------- (1) Ground quartz diffuser (ND=2.32)
Filter Wheel #2 Position ---------- (1) Neutral Density 0.494



************************************************************
HS scan start time = 04:55:16
Dark Count =  6 


Time (GMT)  Wavelength (Ang)  Step Number  Raw Counts  Counts/Second

  295.64        2950.00           1222          49.00       187.45
  295.70        2950.25           1226          49.00       187.45
  295.73        2950.50           1229          55.00       213.60
  295.76        2950.75           1232          48.00       183.09
  295.80        2951.00           1236          51.00       196.17
  295.83        2951.25           1239          48.00       183.09
  295.86        2951.50           1242          55.00       213.60
  295.89        2951.75           1246          49.00       187.45
  295.92        2952.00           1249          50.00       191.81
  295.95        2952.25           1252          49.00       187.45
  295.98        2952.50           1256          49.00       187.45
  296.01        2952.75           1259          58.00       226.68
  296.04        2953.00           1262          53.00       204.88
  296.07        2953.25           1266          50.00       191.81
  296.10        2953.50           1269          47.00       178.73
  296.13        2953.75           1272          51.00       196.17
  296.16        2954.00           1276          51.00       196.17
  296.19        2954.25           1279          52.00       200.52
  296.22        2954.50           1282          48.00       183.09
  296.25        2954.75           1286          48.00       183.09
  296.28        2955.00           1289          56.00       217.96
  296.31        2955.25           1292          51.00       196.17
  296.35        2955.50           1296          46.00       174.37
  296.38        2955.75           1299          52.00       200.52
  296.41        2956.00           1302          47.00       178.73
  296.44        2956.25           1306          51.00       196.17
  296.47        2956.50           1309          62.00       244.12
  296.50        2956.75           1312          45.00       170.01
  296.53        2957.00           1316          50.00       191.81
  296.56        2957.25           1319          50.00       191.81
  296.59        2957.50           1322          47.00       178.73
  296.62        2957.75           1326          45.00       170.01
  296.65        2958.00           1329          54.00       209.24
  296.68        2958.25           1332          51.00       196.17
  296.71        2958.50           1336          48.00       183.09
  296.75        2958.75           1339          54.00       209.24
  296.78        2959.00           1342          54.00       209.24
  296.81        2959.25           1346          49.00       187.45
  296.84        2959.50           1349          55.00       213.60
  296.87        2959.75           1352          56.00       217.96
  296.90        2960.00           1356          68.00       270.27
  296.93        2960.25           1359          91.00       370.54
  296.96        2960.50           1362         109.00       449.00
  296.99        2960.75           1366         142.00       592.86
  297.02        2961.00           1369         172.00       723.64
  297.05        2961.25           1372         211.00       893.66
  297.08        2961.50           1376         238.00      1011.36
  297.11        2961.75           1379         350.00      1499.63
  297.15        2962.00           1382         656.00      2833.72
  297.18        2962.25           1386        1837.00      7983.60
  297.21        2962.50           1389        2795.00     12162.24
  297.24        2962.75           1392        3890.00     16939.73
  297.27        2963.00           1396        5383.00     23455.91
  297.30        2963.25           1399        6361.00     27725.76
  297.33        2963.50           1402        7494.00     32673.69
  297.36        2963.75           1406        9010.00     39296.52
  297.39        2964.00           1409       10189.00     44448.95
  297.42        2964.25           1412       11443.00     49930.89
  297.45        2964.50           1416       12916.00     56372.51
  297.49        2964.75           1419       13970.00     60983.31
  297.52        2965.00           1422       15086.00     65866.73
  297.55        2965.25           1426       16584.00     72423.97
  297.58        2965.50           1429       17672.00     77188.13
  297.61        2965.75           1432       18804.00     82146.40
  297.64        2966.00           1436       20431.00     89275.40
  297.67        2966.25           1439       21409.00     93562.16
  297.70        2966.50           1442       22629.00     98911.21
  297.73        2966.75           1446       23876.00    104380.40
  297.77        2967.00           1449       24132.00    105503.40
  297.80        2967.25           1452       24251.00    106025.50
  297.83        2967.50           1456       24217.00    105876.30
  297.86        2967.75           1459       24237.00    105964.00
  297.89        2968.00           1462       24165.00    105648.20
  297.92        2968.25           1466       23630.00    103301.30
  297.95        2968.50           1469       22997.00    100525.00
  297.98        2968.75           1472       21800.00     95276.30
  298.01        2969.00           1476       20484.00     89507.69
  298.05        2969.25           1479       19293.00     84288.72
  298.08        2969.50           1482       18185.00     79434.93
  298.11        2969.75           1486       16623.00     72594.73
  298.14        2970.00           1489       15540.00     67853.77
  298.17        2970.25           1492       14422.00     62961.01
  298.20        2970.50           1496       13055.00     56980.50
  298.23        2970.75           1499       11880.00     51841.69
  298.26        2971.00           1502       10873.00     47438.87
  298.29        2971.25           1506        9441.00     41179.88
  298.32        2971.50           1509        8090.00     35277.07
  298.35        2971.75           1513        6670.00     29075.05
  298.38        2972.00           1516        5572.00     24280.98
  298.41        2972.25           1519        4476.00     19497.02
  298.44        2972.50           1523        2950.00     12838.42
  298.48        2972.75           1526        1863.00      8097.00
  298.51        2973.00           1529         922.00      3993.50
  298.54        2973.25           1533         360.00      1543.23
  298.57        2973.50           1536         253.00      1076.76
  298.60        2973.75           1539         207.00       876.22
  298.63        2974.00           1543         192.00       810.83
  298.66        2974.25           1546         153.00       640.81
  298.69        2974.50           1549         126.00       523.11
  298.72        2974.75           1553          96.00       392.33
  298.75        2975.00           1556          74.00       296.43
  298.78        2975.25           1559          51.00       196.17
  298.81        2975.50           1563          48.00       183.09
  298.84        2975.75           1566          47.00       178.73
  298.88        2976.00           1569          48.00       183.09
  298.91        2976.25           1573          54.00       209.24
  298.94        2976.50           1576          44.00       165.65
  298.97        2976.75           1579          55.00       213.60
  299.00        2977.00           1583          43.00       161.29
  299.03        2977.25           1586          45.00       170.01
  299.06        2977.50           1590          47.00       178.73
  299.09        2977.75           1593          50.00       191.81
  299.12        2978.00           1596          48.00       183.09
  299.15        2978.25           1600          50.00       191.81
  299.18        2978.50           1603          41.00       152.57
  299.21        2978.75           1606          51.00       196.17
  299.25        2979.00           1610          40.00       148.21
  299.28        2979.25           1613          47.00       178.73
  299.31        2979.50           1616          51.00       196.17
  299.34        2979.75           1620          47.00       178.73
  299.37        2980.00           1623          40.00       148.21
  299.40        2980.25           1626          44.00       165.65
  299.43        2980.50           1630          41.00       152.57
  299.46        2980.75           1633          47.00       178.73
  299.49        2981.00           1637          41.00       152.57
  299.52        2981.25           1640          44.00       165.65
  299.55        2981.50           1643          39.00       143.85
  299.58        2981.75           1647          47.00       178.73
  299.61        2982.00           1650          42.00       156.93
  299.65        2982.25           1653          35.00       126.42
  299.68        2982.50           1657          44.00       165.65
  299.71        2982.75           1660          42.00       156.93
  299.74        2983.00           1663          48.00       183.09
  299.77        2983.25           1667          43.00       161.29
  299.80        2983.50           1670          44.00       165.65
  299.83        2983.75           1673          47.00       178.73
  299.86        2984.00           1677          44.00       165.65
HS scan finished at 05:00:05
end
************************************************************
  HS Scan of (1) Internal mercury lamp
************************************************************
Integration time is 0.2294 seconds per sample
dh231118Manchester 53.47 2.23 2.804185pr1000
************************************************************
Dead Time -------------------------  3E-08 
Number of Cycles Used -------------  4 
Starting Wavelength (Angstroms) ---  2950 
Final Wavelength (Angstoms) -------  2984 
Wavelength Increment (Angstroms) --  .25 
Filter Wheel #1 Position ---------- (1) Ground quartz diffuser (ND=2.32)
Filter Wheel #2 Position ---------- (1) Neutral Density 0.494



************************************************************
HS scan start time = 17:12:00
Dark Count =  7.5 


Time (GMT)  Wavelength (Ang)  Step Number  Raw Counts  Counts/Second

 1032.37        2950.00           1222          52.00       193.99
 1032.43        2950.25           1226          52.00       193.99
 1032.47        2950.50           1229          47.00       172.19
 1032.50        2950.75           1232          49.00       180.91
 1032.53        2951.00           1236          50.00       185.27
 1032.56        2951.25           1239          52.00       193.99
 1032.59        2951.50           1242          51.00       189.63
 1032.62        2951.75           1246          55.00       207.06
 1032.65        2952.00           1249          51.00       189.63
 1032.68        2952.25           1252          43.00       154.75
 1032.71        2952.50           1256          49.00       180.91
 1032.74        2952.75           1259          52.00       193.99
 1032.77        2953.00           1262          48.00       176.55
 1032.80        2953.25           1266          43.00       154.75
 1032.83        2953.50           1269          46.00       167.83
 1032.86        2953.75           1272          50.00       185.27
 1032.89        2954.00           1276          51.00       189.63
 1032.93        2954.25           1279          53.00       198.34
 1032.96        2954.50           1282          43.00       154.75
 1032.99        2954.75           1286          52.00       193.99
 1033.02        2955.00           1289          59.00       224.50
 1033.05        2955.25           1292          48.00       176.55
 1033.08        2955.50           1296          44.00       159.11
 1033.11        2955.75           1299          47.00       172.19
 1033.14        2956.00           1302          49.00       180.91
 1033.17        2956.25           1306          49.00       180.91
 1033.20        2956.50           1309          41.00       146.03
 1033.23        2956.75           1312          46.00       167.83
 1033.26        2957.00           1316          48.00       176.55
 1033.29        2957.25           1319          49.00       180.91
 1033.32        2957.50           1322          54.00       202.70
 1033.35        2957.75           1326          48.00       176.55
 1033.39        2958.00           1329          48.00       176.55
 1033.42        2958.25           1332          50.00       185.27
 1033.45        2958.50           1336          46.00       167.83
 1033.48        2958.75           1339          51.00       189.63
 1033.51        2959.00           1342          52.00       193.99
 1033.54        2959.25           1346          54.00       202.70
 1033.57        2959.50           1349          51.00       189.63
 1033.60        2959.75           1352          60.00       228.86
 1033.63        2960.00           1356          88.00       350.92
 1033.66        2960.25           1359         108.00       438.11
 1033.69        2960.50           1362         134.00       551.45
 1033.72        2960.75           1366         173.00       721.46
 1033.75        2961.00           1369         213.00       895.84
 1033.79        2961.25           1372         233.00       983.03
 1033.82        2961.50           1376         288.00      1222.80
 1033.85        2961.75           1379         385.00      1645.68
 1033.88        2962.00           1382         772.00      3332.94
 1033.91        2962.25           1386        2043.00      8875.51
 1033.94        2962.50           1389        3068.00     13346.67
 1033.97        2962.75           1392        4124.00     17954.31
 1034.00        2963.00           1396        5588.00     24344.28
 1034.03        2963.25           1399        6718.00     29278.10
 1034.06        2963.50           1402        7742.00     33750.38
 1034.10        2963.75           1406        9311.00     40605.23
 1034.13        2964.00           1409       10524.00     45906.69
 1034.16        2964.25           1412       11692.00     51013.07
 1034.19        2964.50           1416       13286.00     57984.39
 1034.22        2964.75           1419       14242.00     62166.84
 1034.25        2965.00           1422       15419.00     67317.60
 1034.28        2965.25           1426       16936.00     73958.60
 1034.31        2965.50           1429       18102.00     79064.82
 1034.34        2965.75           1432       19127.00     83554.88
 1034.38        2966.00           1436       20408.00     89168.03
 1034.41        2966.25           1439       21566.00     94243.86
 1034.44        2966.50           1442       22701.00     99220.37
 1034.47        2966.75           1446       23816.00    104110.60
 1034.50        2967.00           1449       24128.00    105479.30
 1034.53        2967.25           1452       24003.00    104930.90
 1034.56        2967.50           1456       24108.00    105391.60
 1034.59        2967.75           1459       23967.00    104773.00
 1034.62        2968.00           1462       24028.00    105040.60
 1034.65        2968.25           1466       23401.00    102290.30
 1034.69        2968.50           1469       22151.00     96808.65
 1034.72        2968.75           1472       21323.00     93178.59
 1034.75        2969.00           1476       19792.00     86468.57
 1034.78        2969.25           1479       18644.00     81438.93
 1034.81        2969.50           1482       17726.00     77418.06
 1034.84        2969.75           1486       16269.00     71038.33
 1034.87        2970.00           1489       14985.00     65418.15
 1034.90        2970.25           1492       14080.00     61458.03
 1034.93        2970.50           1496       12557.00     54795.76
 1034.97        2970.75           1499       11363.00     49574.55
 1035.00        2971.00           1502       10270.00     44796.43
 1035.03        2971.25           1506        8764.00     38215.11
 1035.06        2971.50           1509        7642.00     33313.58
 1035.09        2971.75           1513        6202.00     27024.96
 1035.12        2972.00           1516        5213.00     22707.27
 1035.15        2972.25           1519        4044.00     17605.20
 1035.18        2972.50           1523        2635.00     11457.73
 1035.21        2972.75           1526        1618.00      7021.97
 1035.24        2973.00           1529         690.00      2975.42
 1035.27        2973.25           1533         326.00      1388.46
 1035.31        2973.50           1536         232.00       978.67
 1035.34        2973.75           1539         200.00       839.17
 1035.37        2974.00           1543         173.00       721.46
 1035.40        2974.25           1546         141.00       581.96
 1035.43        2974.50           1549         118.00       481.70
 1035.46        2974.75           1553          69.00       268.09
 1035.49        2975.00           1556          59.00       224.50
 1035.52        2975.25           1559          50.00       185.27
 1035.55        2975.50           1563          52.00       193.99
 1035.58        2975.75           1566          50.00       185.27
 1035.61        2976.00           1569          55.00       207.06
 1035.65        2976.25           1573          45.00       163.47
 1035.68        2976.50           1576          38.00       132.96
 1035.71        2976.75           1579          57.00       215.78
 1035.74        2977.00           1583          48.00       176.55
 1035.77        2977.25           1586          54.00       202.70
 1035.80        2977.50           1590          49.00       180.91
 1035.83        2977.75           1593          46.00       167.83
 1035.86        2978.00           1596          49.00       180.91
 1035.89        2978.25           1600          44.00       159.11
 1035.92        2978.50           1603          42.00       150.39
 1035.95        2978.75           1606          39.00       137.32
 1035.98        2979.00           1610          42.00       150.39
 1036.02        2979.25           1613          51.00       189.63
 1036.05        2979.50           1616          52.00       193.99
 1036.08        2979.75           1620          47.00       172.19
 1036.11        2980.00           1623          40.00       141.67
 1036.14        2980.25           1626          44.00       159.11
 1036.17        2980.50           1630          38.00       132.96
 1036.20        2980.75           1633          58.00       220.14
 1036.23        2981.00           1637          42.00       150.39
 1036.26        2981.25           1640          38.00       132.96
 1036.29        2981.50           1643          47.00       172.19
 1036.32        2981.75           1647          46.00       167.83
 1036.35        2982.00           1650          42.00       150.39
 1036.38        2982.25           1653          38.00       132.96
 1036.42        2982.50           1657          41.00       146.03
 1036.45        2982.75           1660          47.00       172.19
 1036.48        2983.00           1663          42.00       150.39
 1036.51        2983.25           1667          46.00       167.83
 1036.54        2983.50           1670          45.00       163.47
 1036.57        2983.75           1673          48.00       176.55
 1036.60        2984.00           1677          38.00       132.96
HS scan finished at 17:16:49
end
