************************************************************
  HS Scan of (1) Internal mercury lamp
************************************************************
Integration time is 0.2294 seconds per sample
dh171118Manchester 53.47 2.23 2.804185pr1000
************************************************************
Dead Time -------------------------  3E-08 
Number of Cycles Used -------------  4 
Starting Wavelength (Angstroms) ---  2950 
Final Wavelength (Angstoms) -------  2984 
Wavelength Increment (Angstroms) --  .25 
Filter Wheel #1 Position ---------- (1) Ground quartz diffuser (ND=2.32)
Filter Wheel #2 Position ---------- (1) Neutral Density 0.494



************************************************************
HS scan start time = 04:46:41
Dark Count =  7.4 


Time (GMT)  Wavelength (Ang)  Step Number  Raw Counts  Counts/Second

  287.06        2950.00           1222          43.00       155.19
  287.13        2950.25           1226          47.00       172.63
  287.16        2950.50           1229          52.00       194.42
  287.19        2950.75           1232          47.00       172.63
  287.22        2951.00           1236          46.00       168.27
  287.25        2951.25           1239          49.00       181.34
  287.28        2951.50           1242          47.00       172.63
  287.31        2951.75           1246          48.00       176.98
  287.34        2952.00           1249          51.00       190.06
  287.38        2952.25           1252          42.00       150.83
  287.41        2952.50           1256          60.00       229.30
  287.44        2952.75           1259          43.00       155.19
  287.47        2953.00           1262          44.00       159.55
  287.50        2953.25           1266          52.00       194.42
  287.53        2953.50           1269          45.00       163.91
  287.56        2953.75           1272          50.00       185.70
  287.59        2954.00           1276          51.00       190.06
  287.62        2954.25           1279          49.00       181.34
  287.65        2954.50           1282          49.00       181.34
  287.69        2954.75           1286          49.00       181.34
  287.72        2955.00           1289          44.00       159.55
  287.75        2955.25           1292          54.00       203.14
  287.78        2955.50           1296          45.00       163.91
  287.81        2955.75           1299          49.00       181.34
  287.84        2956.00           1302          49.00       181.34
  287.87        2956.25           1306          42.00       150.83
  287.90        2956.50           1309          53.00       198.78
  287.93        2956.75           1312          49.00       181.34
  287.96        2957.00           1316          48.00       176.98
  287.99        2957.25           1319          49.00       181.34
  288.03        2957.50           1322          54.00       203.14
  288.06        2957.75           1326          46.00       168.27
  288.09        2958.00           1329          42.00       150.83
  288.12        2958.25           1332          51.00       190.06
  288.15        2958.50           1336          49.00       181.34
  288.18        2958.75           1339          46.00       168.27
  288.21        2959.00           1342          47.00       172.63
  288.24        2959.25           1346          60.00       229.30
  288.27        2959.50           1349          52.00       194.42
  288.30        2959.75           1352          66.00       255.45
  288.33        2960.00           1356          82.00       325.20
  288.36        2960.25           1359         105.00       425.46
  288.39        2960.50           1362         148.00       612.91
  288.42        2960.75           1366         167.00       695.74
  288.45        2961.00           1369         186.00       778.57
  288.49        2961.25           1372         218.00       918.07
  288.52        2961.50           1376         281.00      1192.72
  288.55        2961.75           1379         347.00      1480.45
  288.58        2962.00           1382         690.00      2975.85
  288.61        2962.25           1386        1790.00      7772.52
  288.64        2962.50           1389        2951.00     12836.68
  288.67        2962.75           1392        3992.00     17378.72
  288.70        2963.00           1396        5447.00     23729.18
  288.73        2963.25           1399        6480.00     28239.26
  288.76        2963.50           1402        7682.00     33488.73
  288.80        2963.75           1406        9293.00     40527.01
  288.83        2964.00           1409       10239.00     44661.37
  288.86        2964.25           1412       11506.00     50200.22
  288.89        2964.50           1416       13120.00     57258.69
  288.92        2964.75           1419       14243.00     62171.65
  288.95        2965.00           1422       15344.00     66989.77
  288.98        2965.25           1426       17106.00     74703.41
  289.01        2965.50           1429       18036.00     78776.19
  289.04        2965.75           1432       19236.00     84032.85
  289.07        2966.00           1436       20520.00     89659.33
  289.10        2966.25           1439       21679.00     94739.68
  289.14        2966.50           1442       22568.00     98637.58
  289.17        2966.75           1446       23827.00    104159.30
  289.20        2967.00           1449       24159.00    105615.70
  289.23        2967.25           1452       24300.00    106234.30
  289.26        2967.50           1456       24301.00    106238.70
  289.29        2967.75           1459       24319.00    106317.60
  289.32        2968.00           1462       24138.00    105523.60
  289.35        2968.25           1466       23759.00    103861.00
  289.38        2968.50           1469       22670.00     99084.86
  289.41        2968.75           1472       21739.00     95002.72
  289.44        2969.00           1476       20287.00     88638.18
  289.48        2969.25           1479       19221.00     83967.13
  289.51        2969.50           1482       18102.00     79065.27
  289.54        2969.75           1486       16586.00     72426.60
  289.57        2970.00           1489       15502.00     67681.31
  289.60        2970.25           1492       14335.00     62574.20
  289.63        2970.50           1496       12831.00     55994.59
  289.66        2970.75           1499       11629.00     50738.03
  289.69        2971.00           1502       10496.00     45784.73
  289.73        2971.25           1506        9005.00     39268.56
  289.76        2971.50           1509        7874.00     34327.40
  289.79        2971.75           1513        6603.00     28776.36
  289.82        2972.00           1516        5416.00     23593.85
  289.85        2972.25           1519        4352.00     18949.74
  289.88        2972.50           1523        2862.00     12448.42
  289.91        2972.75           1526        1778.00      7720.18
  289.94        2973.00           1529         878.00      3795.55
  289.97        2973.25           1533         332.00      1415.06
  290.00        2973.50           1536         228.00       961.67
  290.03        2973.75           1539         195.00       817.81
  290.06        2974.00           1543         160.00       665.23
  290.10        2974.25           1546         125.00       512.65
  290.13        2974.50           1549          92.00       368.79
  290.16        2974.75           1553          67.00       259.81
  290.19        2975.00           1556          51.00       190.06
  290.22        2975.25           1559          52.00       194.42
  290.25        2975.50           1563          43.00       155.19
  290.28        2975.75           1566          46.00       168.27
  290.31        2976.00           1569          51.00       190.06
  290.34        2976.25           1573          50.00       185.70
  290.37        2976.50           1576          47.00       172.63
  290.40        2976.75           1579          45.00       163.91
  290.43        2977.00           1583          47.00       172.63
  290.47        2977.25           1586          45.00       163.91
  290.50        2977.50           1590          44.00       159.55
  290.53        2977.75           1593          45.00       163.91
  290.56        2978.00           1596          63.00       242.37
  290.59        2978.25           1600          43.00       155.19
  290.62        2978.50           1603          47.00       172.63
  290.65        2978.75           1606          51.00       190.06
  290.68        2979.00           1610          49.00       181.34
  290.71        2979.25           1613          44.00       159.55
  290.75        2979.50           1616          48.00       176.98
  290.78        2979.75           1620          44.00       159.55
  290.81        2980.00           1623          42.00       150.83
  290.84        2980.25           1626          41.00       146.47
  290.87        2980.50           1630          56.00       211.86
  290.90        2980.75           1633          50.00       185.70
  290.93        2981.00           1637          45.00       163.91
  290.96        2981.25           1640          47.00       172.63
  290.99        2981.50           1643          41.00       146.47
  291.02        2981.75           1647          49.00       181.34
  291.05        2982.00           1650          46.00       168.27
  291.08        2982.25           1653          52.00       194.42
  291.11        2982.50           1657          46.00       168.27
  291.14        2982.75           1660          39.00       137.75
  291.18        2983.00           1663          39.00       137.75
  291.21        2983.25           1667          47.00       172.63
  291.24        2983.50           1670          43.00       155.19
  291.27        2983.75           1673          41.00       146.47
  291.30        2984.00           1677          40.00       142.11
HS scan finished at 04:51:31
end
************************************************************
  HS Scan of (1) Internal mercury lamp
************************************************************
Integration time is 0.2294 seconds per sample
dh171118Manchester 53.47 2.23 2.804185pr1000
************************************************************
Dead Time -------------------------  3E-08 
Number of Cycles Used -------------  4 
Starting Wavelength (Angstroms) ---  2950 
Final Wavelength (Angstoms) -------  2984 
Wavelength Increment (Angstroms) --  .25 
Filter Wheel #1 Position ---------- (1) Ground quartz diffuser (ND=2.32)
Filter Wheel #2 Position ---------- (1) Neutral Density 0.494



************************************************************
HS scan start time = 17:12:04
Dark Count =  6.3 


Time (GMT)  Wavelength (Ang)  Step Number  Raw Counts  Counts/Second

 1032.43        2950.00           1222          44.00       164.34
 1032.50        2950.25           1226          50.00       190.50
 1032.53        2950.50           1229          53.00       203.58
 1032.56        2950.75           1232          57.00       221.01
 1032.59        2951.00           1236          45.00       168.70
 1032.62        2951.25           1239          48.00       181.78
 1032.65        2951.50           1242          54.00       207.94
 1032.68        2951.75           1246          49.00       186.14
 1032.71        2952.00           1249          47.00       177.42
 1032.74        2952.25           1252          53.00       203.58
 1032.77        2952.50           1256          49.00       186.14
 1032.80        2952.75           1259          42.00       155.62
 1032.83        2953.00           1262          57.00       221.01
 1032.86        2953.25           1266          54.00       207.94
 1032.90        2953.50           1269          56.00       216.65
 1032.93        2953.75           1272          49.00       186.14
 1032.96        2954.00           1276          41.00       151.26
 1032.99        2954.25           1279          50.00       190.50
 1033.02        2954.50           1282          48.00       181.78
 1033.05        2954.75           1286          63.00       247.17
 1033.08        2955.00           1289          44.00       164.34
 1033.11        2955.25           1292          48.00       181.78
 1033.14        2955.50           1296          53.00       203.58
 1033.17        2955.75           1299          53.00       203.58
 1033.20        2956.00           1302          46.00       173.06
 1033.23        2956.25           1306          47.00       177.42
 1033.26        2956.50           1309          43.00       159.98
 1033.29        2956.75           1312          45.00       168.70
 1033.33        2957.00           1316          50.00       190.50
 1033.36        2957.25           1319          53.00       203.58
 1033.39        2957.50           1322          47.00       177.42
 1033.42        2957.75           1326          50.00       190.50
 1033.45        2958.00           1329          51.00       194.86
 1033.48        2958.25           1332          44.00       164.34
 1033.51        2958.50           1336          51.00       194.86
 1033.54        2958.75           1339          57.00       221.01
 1033.57        2959.00           1342          48.00       181.78
 1033.60        2959.25           1346          49.00       186.14
 1033.64        2959.50           1349          60.00       234.09
 1033.67        2959.75           1352          57.00       221.01
 1033.70        2960.00           1356          78.00       312.56
 1033.73        2960.25           1359         104.00       425.90
 1033.76        2960.50           1362         130.00       539.24
 1033.79        2960.75           1366         177.00       744.13
 1033.82        2961.00           1369         195.00       822.60
 1033.85        2961.25           1372         234.00       992.62
 1033.88        2961.50           1376         277.00      1180.08
 1033.91        2961.75           1379         359.00      1537.56
 1033.94        2962.00           1382         762.00      3294.57
 1033.98        2962.25           1386        2033.00      8837.13
 1034.01        2962.50           1389        3075.00     13382.44
 1034.04        2962.75           1392        4091.00     17815.54
 1034.07        2963.00           1396        5460.00     23790.73
 1034.10        2963.25           1399        6567.00     28623.96
 1034.13        2963.50           1402        7721.00     33663.89
 1034.16        2963.75           1406        9254.00     40361.40
 1034.19        2964.00           1409       10360.00     45195.07
 1034.22        2964.25           1412       11530.00     50309.96
 1034.25        2964.50           1416       12990.00     56694.87
 1034.29        2964.75           1419       14103.00     61563.91
 1034.32        2965.00           1422       15318.00     66880.79
 1034.35        2965.25           1426       16854.00     73604.81
 1034.38        2965.50           1429       17884.00     78115.28
 1034.41        2965.75           1432       18904.00     82583.16
 1034.44        2966.00           1436       20546.00     89778.09
 1034.47        2966.25           1439       21502.00     93968.53
 1034.50        2966.50           1442       22416.00     97975.88
 1034.53        2966.75           1446       23594.00    103142.10
 1034.57        2967.00           1449       24178.00    105703.90
 1034.60        2967.25           1452       24295.00    106217.20
 1034.63        2967.50           1456       24406.00    106704.10
 1034.66        2967.75           1459       24181.00    105717.10
 1034.69        2968.00           1462       24275.00    106129.40
 1034.72        2968.25           1466       23680.00    103519.30
 1034.75        2968.50           1469       22735.00     99374.72
 1034.78        2968.75           1472       21776.00     95169.76
 1034.81        2969.00           1476       20138.00     87990.02
 1034.84        2969.25           1479       19052.00     83231.54
 1034.88        2969.50           1482       18130.00     79192.72
 1034.91        2969.75           1486       16568.00     72352.60
 1034.94        2970.00           1489       15476.00     67572.32
 1034.97        2970.25           1492       14425.00     62972.83
 1035.00        2970.50           1496       13030.00     56869.83
 1035.03        2970.75           1499       11867.00     51783.53
 1035.06        2971.00           1502       10643.00     46432.12
 1035.09        2971.25           1506        9036.00     39408.81
 1035.12        2971.50           1509        7861.00     34275.42
 1035.15        2971.75           1513        6502.00     28340.13
 1035.18        2972.00           1516        5472.00     23843.12
 1035.22        2972.25           1519        4367.00     19020.01
 1035.25        2972.50           1523        2879.00     12527.38
 1035.28        2972.75           1526        1851.00      8043.35
 1035.31        2973.00           1529         927.00      4014.00
 1035.34        2973.25           1533         338.00      1446.01
 1035.37        2973.50           1536         247.00      1049.29
 1035.40        2973.75           1539         212.00       896.71
 1035.43        2974.00           1543         172.00       722.33
 1035.46        2974.25           1546         126.00       521.80
 1035.49        2974.50           1549         105.00       430.26
 1035.52        2974.75           1553          80.00       321.28
 1035.55        2975.00           1556          55.00       212.29
 1035.58        2975.25           1559          51.00       194.86
 1035.62        2975.50           1563          45.00       168.70
 1035.65        2975.75           1566          46.00       173.06
 1035.68        2976.00           1569          42.00       155.62
 1035.71        2976.25           1573          50.00       190.50
 1035.74        2976.50           1576          49.00       186.14
 1035.77        2976.75           1579          44.00       164.34
 1035.80        2977.00           1583          45.00       168.70
 1035.83        2977.25           1586          56.00       216.65
 1035.86        2977.50           1590          42.00       155.62
 1035.89        2977.75           1593          43.00       159.98
 1035.92        2978.00           1596          47.00       177.42
 1035.96        2978.25           1600          43.00       159.98
 1035.99        2978.50           1603          42.00       155.62
 1036.02        2978.75           1606          60.00       234.09
 1036.05        2979.00           1610          48.00       181.78
 1036.08        2979.25           1613          41.00       151.26
 1036.11        2979.50           1616          43.00       159.98
 1036.14        2979.75           1620          50.00       190.50
 1036.17        2980.00           1623          39.00       142.55
 1036.20        2980.25           1626          48.00       181.78
 1036.23        2980.50           1630          50.00       190.50
 1036.27        2980.75           1633          46.00       173.06
 1036.30        2981.00           1637          47.00       177.42
 1036.33        2981.25           1640          46.00       173.06
 1036.36        2981.50           1643          46.00       173.06
 1036.39        2981.75           1647          51.00       194.86
 1036.42        2982.00           1650          43.00       159.98
 1036.45        2982.25           1653          50.00       190.50
 1036.48        2982.50           1657          50.00       190.50
 1036.51        2982.75           1660          39.00       142.55
 1036.54        2983.00           1663          41.00       151.26
 1036.57        2983.25           1667          46.00       173.06
 1036.60        2983.50           1670          47.00       177.42
 1036.64        2983.75           1673          44.00       164.34
 1036.67        2984.00           1677          42.00       155.62
HS scan finished at 17:16:53
end
