************************************************************
  HS Scan of (1) Internal mercury lamp
************************************************************
Integration time is 0.2294 seconds per sample
dh171117Manchester 53.47 2.23 2.750537pr1000
************************************************************
Dead Time -------------------------  3E-08 
Number of Cycles Used -------------  4 
Starting Wavelength (Angstroms) ---  2950 
Final Wavelength (Angstoms) -------  2984 
Wavelength Increment (Angstroms) --  .25 
Filter Wheel #1 Position ---------- (1) Ground quartz diffuser (ND=2.32)
Filter Wheel #2 Position ---------- (1) Neutral Density 0.494



************************************************************
HS scan start time = 04:46:59
Dark Count =  6.9 


Time (GMT)  Wavelength (Ang)  Step Number  Raw Counts  Counts/Second

  287.35        2950.00           1222          67.00       261.99
  287.41        2950.25           1226          66.00       257.63
  287.45        2950.50           1229          71.00       279.43
  287.48        2950.75           1232          64.00       248.91
  287.51        2951.00           1236          74.00       292.50
  287.54        2951.25           1239          58.00       222.76
  287.57        2951.50           1242          62.00       240.19
  287.60        2951.75           1246          70.00       275.07
  287.63        2952.00           1249          77.00       305.58
  287.66        2952.25           1252          60.00       231.48
  287.69        2952.50           1256          70.00       275.07
  287.72        2952.75           1259          61.00       235.83
  287.76        2953.00           1262          73.00       288.15
  287.79        2953.25           1266          69.00       270.71
  287.82        2953.50           1269          66.00       257.63
  287.85        2953.75           1272          66.00       257.63
  287.88        2954.00           1276          58.00       222.76
  287.91        2954.25           1279          67.00       261.99
  287.94        2954.50           1282          69.00       270.71
  287.97        2954.75           1286          57.00       218.40
  288.00        2955.00           1289          60.00       231.48
  288.03        2955.25           1292          62.00       240.19
  288.06        2955.50           1296          71.00       279.43
  288.09        2955.75           1299          69.00       270.71
  288.12        2956.00           1302          70.00       275.07
  288.16        2956.25           1306          60.00       231.48
  288.19        2956.50           1309          69.00       270.71
  288.22        2956.75           1312          63.00       244.55
  288.25        2957.00           1316          71.00       279.43
  288.28        2957.25           1319          67.00       261.99
  288.31        2957.50           1322          62.00       240.19
  288.34        2957.75           1326          62.00       240.19
  288.37        2958.00           1329          63.00       244.55
  288.40        2958.25           1332          70.00       275.07
  288.43        2958.50           1336          63.00       244.55
  288.46        2958.75           1339          68.00       266.35
  288.49        2959.00           1342          70.00       275.07
  288.52        2959.25           1346          64.00       248.91
  288.55        2959.50           1349          70.00       275.07
  288.59        2959.75           1352          90.00       362.25
  288.62        2960.00           1356         110.00       449.44
  288.65        2960.25           1359         141.00       584.58
  288.68        2960.50           1362         189.00       793.83
  288.71        2960.75           1366         232.00       981.28
  288.74        2961.00           1369         265.00      1125.15
  288.77        2961.25           1372         301.00      1282.09
  288.80        2961.50           1376         363.00      1552.38
  288.83        2961.75           1379         538.00      2315.33
  288.86        2962.00           1382        1156.00      5009.91
  288.89        2962.25           1386        2787.00     12123.42
  288.93        2962.50           1389        4264.00     18567.88
  288.96        2962.75           1392        5727.00     24953.72
  288.99        2963.00           1396        7672.00     33447.23
  289.02        2963.25           1399        9152.00     39913.06
  289.05        2963.50           1402       10526.00     45918.05
  289.08        2963.75           1406       12622.00     55082.67
  289.11        2964.00           1409       14246.00     62186.96
  289.14        2964.25           1412       16007.00     69894.00
  289.17        2964.50           1416       18257.00     79746.35
  289.20        2964.75           1419       19907.00     86975.12
  289.23        2965.00           1422       21471.00     93830.00
  289.27        2965.25           1426       23466.00    102578.00
  289.30        2965.50           1429       25054.00    109544.70
  289.33        2965.75           1432       26624.00    116435.20
  289.36        2966.00           1436       28706.00    125577.30
  289.39        2966.25           1439       29815.00    130448.90
  289.42        2966.50           1442       31477.00    137752.50
  289.45        2966.75           1446       32996.00    144430.50
  289.48        2967.00           1449       33188.00    145274.80
  289.51        2967.25           1452       33466.00    146497.30
  289.54        2967.50           1456       33322.00    145864.00
  289.57        2967.75           1459       33235.00    145481.40
  289.60        2968.00           1462       33268.00    145626.60
  289.64        2968.25           1466       32172.00    140807.60
  289.67        2968.50           1469       30886.00    135155.00
  289.70        2968.75           1472       29516.00    129135.30
  289.73        2969.00           1476       27763.00    121435.90
  289.76        2969.25           1479       26263.00    114850.60
  289.79        2969.50           1482       24687.00    107934.40
  289.82        2969.75           1486       22641.00     98959.88
  289.85        2970.00           1489       21102.00     92212.46
  289.88        2970.25           1492       19340.00     84490.71
  289.91        2970.50           1496       17576.00     76763.76
  289.95        2970.75           1499       15900.00     69425.62
  289.98        2971.00           1502       14342.00     62607.02
  290.01        2971.25           1506       12188.00     53184.62
  290.04        2971.50           1509       10651.00     46464.46
  290.07        2971.75           1513        8758.00     38191.51
  290.10        2972.00           1516        7204.00     31403.16
  290.13        2972.25           1519        5761.00     25102.16
  290.16        2972.50           1523        3747.00     16311.82
  290.19        2972.75           1526        2397.00     10422.18
  290.22        2973.00           1529        1166.00      5053.51
  290.25        2973.25           1533         455.00      1953.47
  290.28        2973.50           1536         335.00      1430.31
  290.32        2973.75           1539         288.00      1225.42
  290.35        2974.00           1543         224.00       946.41
  290.38        2974.25           1546         188.00       789.47
  290.41        2974.50           1549         143.00       593.30
  290.44        2974.75           1553          98.00       397.13
  290.47        2975.00           1556          85.00       340.46
  290.50        2975.25           1559          77.00       305.58
  290.53        2975.50           1563          60.00       231.48
  290.56        2975.75           1566          60.00       231.48
  290.59        2976.00           1569          64.00       248.91
  290.62        2976.25           1573          57.00       218.40
  290.65        2976.50           1576          56.00       214.04
  290.68        2976.75           1579          66.00       257.63
  290.72        2977.00           1583          59.00       227.12
  290.75        2977.25           1586          63.00       244.55
  290.78        2977.50           1590          59.00       227.12
  290.81        2977.75           1593          64.00       248.91
  290.84        2978.00           1596          64.00       248.91
  290.87        2978.25           1600          63.00       244.55
  290.90        2978.50           1603          59.00       227.12
  290.93        2978.75           1606          57.00       218.40
  290.96        2979.00           1610          63.00       244.55
  290.99        2979.25           1613          58.00       222.76
  291.02        2979.50           1616          62.00       240.19
  291.05        2979.75           1620          62.00       240.19
  291.08        2980.00           1623          57.00       218.40
  291.11        2980.25           1626          53.00       200.96
  291.15        2980.50           1630          56.00       214.04
  291.18        2980.75           1633          61.00       235.83
  291.21        2981.00           1637          54.00       205.32
  291.24        2981.25           1640          56.00       214.04
  291.27        2981.50           1643          62.00       240.19
  291.30        2981.75           1647          64.00       248.91
  291.33        2982.00           1650          69.00       270.71
  291.36        2982.25           1653          50.00       187.88
  291.39        2982.50           1657          59.00       227.12
  291.43        2982.75           1660          63.00       244.55
  291.46        2983.00           1663          56.00       214.04
  291.49        2983.25           1667          55.00       209.68
  291.52        2983.50           1670          61.00       235.83
  291.55        2983.75           1673          52.00       196.60
  291.58        2984.00           1677          66.00       257.63
HS scan finished at 04:51:48
end
************************************************************
  HS Scan of (1) Internal mercury lamp
************************************************************
Integration time is 0.2294 seconds per sample
dh171117Manchester 53.47 2.23 2.804185pr1000
************************************************************
Dead Time -------------------------  3E-08 
Number of Cycles Used -------------  4 
Starting Wavelength (Angstroms) ---  2950 
Final Wavelength (Angstoms) -------  2984 
Wavelength Increment (Angstroms) --  .25 
Filter Wheel #1 Position ---------- (1) Ground quartz diffuser (ND=2.32)
Filter Wheel #2 Position ---------- (1) Neutral Density 0.494



************************************************************
HS scan start time = 17:12:00
Dark Count =  5.2 


Time (GMT)  Wavelength (Ang)  Step Number  Raw Counts  Counts/Second

 1032.38        2950.00           1222          67.00       269.40
 1032.44        2950.25           1226          69.00       278.12
 1032.47        2950.50           1229          68.00       273.76
 1032.51        2950.75           1232          69.00       278.12
 1032.54        2951.00           1236          72.00       291.20
 1032.57        2951.25           1239          70.00       282.48
 1032.60        2951.50           1242          61.00       243.25
 1032.63        2951.75           1246          72.00       291.20
 1032.66        2952.00           1249          69.00       278.12
 1032.69        2952.25           1252          71.00       286.84
 1032.72        2952.50           1256          72.00       291.20
 1032.75        2952.75           1259          69.00       278.12
 1032.78        2953.00           1262          69.00       278.12
 1032.81        2953.25           1266          63.00       251.96
 1032.84        2953.50           1269          68.00       273.76
 1032.87        2953.75           1272          63.00       251.96
 1032.91        2954.00           1276          75.00       304.27
 1032.94        2954.25           1279          71.00       286.84
 1032.97        2954.50           1282          68.00       273.76
 1033.00        2954.75           1286          64.00       256.32
 1033.03        2955.00           1289          64.00       256.32
 1033.06        2955.25           1292          70.00       282.48
 1033.09        2955.50           1296          71.00       286.84
 1033.12        2955.75           1299          67.00       269.40
 1033.15        2956.00           1302          69.00       278.12
 1033.18        2956.25           1306          68.00       273.76
 1033.21        2956.50           1309          61.00       243.25
 1033.24        2956.75           1312          63.00       251.96
 1033.27        2957.00           1316          60.00       238.89
 1033.30        2957.25           1319          69.00       278.12
 1033.33        2957.50           1322          71.00       286.84
 1033.36        2957.75           1326          68.00       273.76
 1033.40        2958.00           1329          74.00       299.92
 1033.43        2958.25           1332          56.00       221.45
 1033.46        2958.50           1336          69.00       278.12
 1033.49        2958.75           1339          60.00       238.89
 1033.52        2959.00           1342          64.00       256.32
 1033.55        2959.25           1346          69.00       278.12
 1033.58        2959.50           1349          72.00       291.20
 1033.61        2959.75           1352          87.00       356.59
 1033.64        2960.00           1356         121.00       504.80
 1033.67        2960.25           1359         150.00       631.22
 1033.70        2960.50           1362         197.00       836.12
 1033.74        2960.75           1366         242.00      1032.29
 1033.77        2961.00           1369         279.00      1193.59
 1033.80        2961.25           1372         306.00      1311.30
 1033.83        2961.50           1376         389.00      1673.14
 1033.86        2961.75           1379         545.00      2353.26
 1033.89        2962.00           1382        1180.00      5121.97
 1033.92        2962.25           1386        2832.00     12327.14
 1033.95        2962.50           1389        4453.00     19400.13
 1033.98        2962.75           1392        5963.00     25991.49
 1034.01        2963.00           1396        7908.00     34485.53
 1034.04        2963.25           1399        9561.00     41707.78
 1034.07        2963.50           1402       11095.00     48412.90
 1034.11        2963.75           1406       13230.00     57749.49
 1034.14        2964.00           1409       14768.00     64478.57
 1034.17        2964.25           1412       16411.00     71670.06
 1034.20        2964.50           1416       18313.00     79999.10
 1034.23        2964.75           1419       19912.00     87004.49
 1034.26        2965.00           1422       21511.00     94012.82
 1034.29        2965.25           1426       23486.00    102673.20
 1034.32        2965.50           1429       24831.00    108573.70
 1034.35        2965.75           1432       26530.00    116030.10
 1034.38        2966.00           1436       28662.00    125391.50
 1034.42        2966.25           1439       30306.00    132613.70
 1034.45        2966.50           1442       31577.00    138199.50
 1034.48        2966.75           1446       32816.00    143646.50
 1034.51        2967.00           1449       33022.00    144552.30
 1034.54        2967.25           1452       32952.00    144244.50
 1034.57        2967.50           1456       32978.00    144358.80
 1034.60        2967.75           1459       33095.00    144873.30
 1034.63        2968.00           1462       32611.00    142745.10
 1034.66        2968.25           1466       31683.00    138665.50
 1034.70        2968.50           1469       30212.00    132200.70
 1034.73        2968.75           1472       28808.00    126032.70
 1034.76        2969.00           1476       26818.00    117294.30
 1034.79        2969.25           1479       25275.00    110521.90
 1034.82        2969.50           1482       23824.00    104155.80
 1034.85        2969.75           1486       21776.00     95174.59
 1034.88        2970.00           1489       20180.00     88178.91
 1034.91        2970.25           1492       18906.00     82596.75
 1034.94        2970.50           1496       16887.00     73754.12
 1034.97        2970.75           1499       15420.00     67332.04
 1035.00        2971.00           1502       13853.00     60474.92
 1035.04        2971.25           1506       11896.00     51915.15
 1035.07        2971.50           1509       10245.00     44697.21
 1035.10        2971.75           1513        8179.00     35669.36
 1035.13        2972.00           1516        6734.00     29358.01
 1035.16        2972.25           1519        5149.00     22437.94
 1035.19        2972.50           1523        3217.00     14006.76
 1035.22        2972.75           1526        1726.00      7503.00
 1035.25        2973.00           1529         732.00      3168.57
 1035.28        2973.25           1533         401.00      1725.46
 1035.31        2973.50           1536         309.00      1324.38
 1035.34        2973.75           1539         287.00      1228.47
 1035.37        2974.00           1543         217.00       923.30
 1035.41        2974.25           1546         173.00       731.49
 1035.44        2974.50           1549         131.00       548.40
 1035.47        2974.75           1553         102.00       421.98
 1035.50        2975.00           1556          86.00       352.23
 1035.53        2975.25           1559          63.00       251.96
 1035.56        2975.50           1563          61.00       243.25
 1035.59        2975.75           1566          56.00       221.45
 1035.62        2976.00           1569          60.00       238.89
 1035.65        2976.25           1573          54.00       212.73
 1035.68        2976.50           1576          56.00       221.45
 1035.71        2976.75           1579          60.00       238.89
 1035.75        2977.00           1583          55.00       217.09
 1035.78        2977.25           1586          51.00       199.65
 1035.81        2977.50           1590          65.00       260.68
 1035.84        2977.75           1593          57.00       225.81
 1035.87        2978.00           1596          69.00       278.12
 1035.90        2978.25           1600          59.00       234.53
 1035.93        2978.50           1603          60.00       238.89
 1035.96        2978.75           1606          55.00       217.09
 1035.99        2979.00           1610          66.00       265.04
 1036.02        2979.25           1613          58.00       230.17
 1036.05        2979.50           1616          63.00       251.96
 1036.08        2979.75           1620          62.00       247.60
 1036.11        2980.00           1623          63.00       251.96
 1036.14        2980.25           1626          63.00       251.96
 1036.18        2980.50           1630          66.00       265.04
 1036.21        2980.75           1633          61.00       243.25
 1036.24        2981.00           1637          70.00       282.48
 1036.27        2981.25           1640          58.00       230.17
 1036.30        2981.50           1643          63.00       251.96
 1036.33        2981.75           1647          59.00       234.53
 1036.36        2982.00           1650          61.00       243.25
 1036.39        2982.25           1653          60.00       238.89
 1036.42        2982.50           1657          59.00       234.53
 1036.45        2982.75           1660          58.00       230.17
 1036.49        2983.00           1663          58.00       230.17
 1036.52        2983.25           1667          60.00       238.89
 1036.55        2983.50           1670          63.00       251.96
 1036.58        2983.75           1673          52.00       204.01
 1036.61        2984.00           1677          58.00       230.17
HS scan finished at 17:16:50
end
