************************************************************
  HS Scan of (1) Internal mercury lamp
************************************************************
Integration time is 0.2294 seconds per sample
dh201118Manchester 53.47 2.23 2.804185pr1000
************************************************************
Dead Time -------------------------  3E-08 
Number of Cycles Used -------------  4 
Starting Wavelength (Angstroms) ---  2950 
Final Wavelength (Angstoms) -------  2984 
Wavelength Increment (Angstroms) --  .25 
Filter Wheel #1 Position ---------- (1) Ground quartz diffuser (ND=2.32)
Filter Wheel #2 Position ---------- (1) Neutral Density 0.494



************************************************************
HS scan start time = 04:51:02
Dark Count =  5 


Time (GMT)  Wavelength (Ang)  Step Number  Raw Counts  Counts/Second

  291.41        2950.00           1222          50.00       196.17
  291.48        2950.25           1226          51.00       200.52
  291.51        2950.50           1229          44.00       170.01
  291.54        2950.75           1232          48.00       187.45
  291.57        2951.00           1236          57.00       226.68
  291.60        2951.25           1239          50.00       196.17
  291.63        2951.50           1242          46.00       178.73
  291.66        2951.75           1246          49.00       191.81
  291.69        2952.00           1249          56.00       222.32
  291.72        2952.25           1252          53.00       209.24
  291.75        2952.50           1256          46.00       178.73
  291.78        2952.75           1259          49.00       191.81
  291.81        2953.00           1262          52.00       204.88
  291.84        2953.25           1266          44.00       170.01
  291.87        2953.50           1269          50.00       196.17
  291.90        2953.75           1272          56.00       222.32
  291.94        2954.00           1276          47.00       183.09
  291.97        2954.25           1279          51.00       200.52
  292.00        2954.50           1282          49.00       191.81
  292.03        2954.75           1286          51.00       200.52
  292.06        2955.00           1289          53.00       209.24
  292.09        2955.25           1292          49.00       191.81
  292.12        2955.50           1296          45.00       174.37
  292.15        2955.75           1299          48.00       187.45
  292.18        2956.00           1302          47.00       183.09
  292.21        2956.25           1306          52.00       204.88
  292.24        2956.50           1309          42.00       161.29
  292.27        2956.75           1312          47.00       183.09
  292.30        2957.00           1316          47.00       183.09
  292.33        2957.25           1319          51.00       200.52
  292.36        2957.50           1322          53.00       209.24
  292.39        2957.75           1326          57.00       226.68
  292.43        2958.00           1329          54.00       213.60
  292.46        2958.25           1332          51.00       200.52
  292.49        2958.50           1336          48.00       187.45
  292.52        2958.75           1339          47.00       183.09
  292.55        2959.00           1342          60.00       239.76
  292.58        2959.25           1346          47.00       183.09
  292.61        2959.50           1349          60.00       239.76
  292.64        2959.75           1352          64.00       257.19
  292.67        2960.00           1356          85.00       348.74
  292.70        2960.25           1359          97.00       401.05
  292.73        2960.50           1362         122.00       510.03
  292.76        2960.75           1366         158.00       666.97
  292.79        2961.00           1369         193.00       819.55
  292.82        2961.25           1372         220.00       937.25
  292.86        2961.50           1376         294.00      1259.86
  292.89        2961.75           1379         525.00      2266.94
  292.92        2962.00           1382        1188.00      5157.73
  292.95        2962.25           1386        2510.00     10923.37
  292.98        2962.50           1389        3462.00     15076.57
  293.01        2962.75           1392        4607.00     20073.11
  293.04        2963.00           1396        6012.00     26206.30
  293.07        2963.25           1399        7117.00     31031.49
  293.10        2963.50           1402        8272.00     36076.51
  293.13        2963.75           1406        9768.00     42613.30
  293.16        2964.00           1409       10965.00     47845.44
  293.20        2964.25           1412       12185.00     53179.81
  293.23        2964.50           1416       13719.00     59889.55
  293.26        2964.75           1419       14874.00     64943.32
  293.29        2965.00           1422       15867.00     69289.48
  293.32        2965.25           1426       17377.00     75900.62
  293.35        2965.50           1429       18560.00     81081.91
  293.38        2965.75           1432       19525.00     85309.59
  293.41        2966.00           1436       21137.00     92374.21
  293.44        2966.25           1439       22141.00     96775.78
  293.48        2966.50           1442       23029.00    100669.80
  293.51        2966.75           1446       23986.00    104867.30
  293.54        2967.00           1449       24118.00    105446.40
  293.57        2967.25           1452       24176.00    105700.80
  293.60        2967.50           1456       24236.00    105964.00
  293.63        2967.75           1459       24143.00    105556.10
  293.66        2968.00           1462       23926.00    104604.10
  293.69        2968.25           1466       23137.00    101143.40
  293.72        2968.50           1469       22161.00     96863.46
  293.75        2968.75           1472       21140.00     92387.35
  293.79        2969.00           1476       19769.00     86378.74
  293.82        2969.25           1479       18736.00     81852.90
  293.85        2969.50           1482       17557.00     76688.88
  293.88        2969.75           1486       15913.00     69490.85
  293.91        2970.00           1489       14921.00     65149.00
  293.94        2970.25           1492       13866.00     60532.67
  293.97        2970.50           1496       12361.00     53949.50
  294.00        2970.75           1499       11269.00     49174.50
  294.03        2971.00           1502       10118.00     44142.99
  294.07        2971.25           1506        8685.00     37880.86
  294.10        2971.50           1509        7603.00     33154.15
  294.13        2971.75           1513        6071.00     26463.90
  294.16        2972.00           1516        5120.00     22312.23
  294.19        2972.25           1519        4092.00     17825.57
  294.22        2972.50           1523        2623.00     11416.29
  294.25        2972.75           1526        1577.00      6854.07
  294.28        2973.00           1529         693.00      2999.40
  294.31        2973.25           1533         317.00      1360.13
  294.34        2973.50           1536         246.00      1050.60
  294.38        2973.75           1539         209.00       889.30
  294.41        2974.00           1543         187.00       793.39
  294.44        2974.25           1546         153.00       645.17
  294.47        2974.50           1549         114.00       475.16
  294.50        2974.75           1553          80.00       326.94
  294.53        2975.00           1556          64.00       257.19
  294.56        2975.25           1559          51.00       200.52
  294.59        2975.50           1563          46.00       178.73
  294.62        2975.75           1566          66.00       265.91
  294.65        2976.00           1569          47.00       183.09
  294.68        2976.25           1573          54.00       213.60
  294.72        2976.50           1576          52.00       204.88
  294.75        2976.75           1579          43.00       165.65
  294.78        2977.00           1583          42.00       161.29
  294.81        2977.25           1586          44.00       170.01
  294.84        2977.50           1590          43.00       165.65
  294.87        2977.75           1593          49.00       191.81
  294.90        2978.00           1596          44.00       170.01
  294.93        2978.25           1600          42.00       161.29
  294.96        2978.50           1603          45.00       174.37
  294.99        2978.75           1606          44.00       170.01
  295.02        2979.00           1610          46.00       178.73
  295.05        2979.25           1613          52.00       204.88
  295.09        2979.50           1616          45.00       174.37
  295.12        2979.75           1620          44.00       170.01
  295.15        2980.00           1623          45.00       174.37
  295.18        2980.25           1626          44.00       170.01
  295.21        2980.50           1630          46.00       178.73
  295.24        2980.75           1633          51.00       200.52
  295.27        2981.00           1637          41.00       156.93
  295.30        2981.25           1640          45.00       174.37
  295.33        2981.50           1643          39.00       148.21
  295.36        2981.75           1647          50.00       196.17
  295.39        2982.00           1650          44.00       170.01
  295.42        2982.25           1653          43.00       165.65
  295.46        2982.50           1657          48.00       187.45
  295.49        2982.75           1660          47.00       183.09
  295.52        2983.00           1663          43.00       165.65
  295.55        2983.25           1667          49.00       191.81
  295.58        2983.50           1670          42.00       161.29
  295.61        2983.75           1673          38.00       143.85
  295.64        2984.00           1677          38.00       143.85
HS scan finished at 04:55:51
end
************************************************************
  HS Scan of (1) Internal mercury lamp
************************************************************
Integration time is 0.2294 seconds per sample
dh201118Manchester 53.47 2.23 2.804185pr1000
************************************************************
Dead Time -------------------------  3E-08 
Number of Cycles Used -------------  4 
Starting Wavelength (Angstroms) ---  2950 
Final Wavelength (Angstoms) -------  2984 
Wavelength Increment (Angstroms) --  .25 
Filter Wheel #1 Position ---------- (1) Ground quartz diffuser (ND=2.32)
Filter Wheel #2 Position ---------- (1) Neutral Density 0.494



************************************************************
HS scan start time = 17:12:05
Dark Count =  6.7 


Time (GMT)  Wavelength (Ang)  Step Number  Raw Counts  Counts/Second

 1032.46        2950.00           1222          57.00       219.27
 1032.53        2950.25           1226          49.00       184.40
 1032.56        2950.50           1229          45.00       166.96
 1032.59        2950.75           1232          50.00       188.75
 1032.62        2951.00           1236          43.00       158.24
 1032.65        2951.25           1239          45.00       166.96
 1032.68        2951.50           1242          48.00       180.04
 1032.71        2951.75           1246          46.00       171.32
 1032.74        2952.00           1249          49.00       184.40
 1032.77        2952.25           1252          59.00       227.99
 1032.81        2952.50           1256          48.00       180.04
 1032.84        2952.75           1259          50.00       188.75
 1032.87        2953.00           1262          53.00       201.83
 1032.90        2953.25           1266          49.00       184.40
 1032.93        2953.50           1269          50.00       188.75
 1032.96        2953.75           1272          57.00       219.27
 1032.99        2954.00           1276          56.00       214.91
 1033.02        2954.25           1279          43.00       158.24
 1033.05        2954.50           1282          49.00       184.40
 1033.08        2954.75           1286          52.00       197.47
 1033.11        2955.00           1289          44.00       162.60
 1033.14        2955.25           1292          46.00       171.32
 1033.17        2955.50           1296          46.00       171.32
 1033.20        2955.75           1299          50.00       188.75
 1033.24        2956.00           1302          51.00       193.11
 1033.27        2956.25           1306          50.00       188.75
 1033.30        2956.50           1309          48.00       180.04
 1033.33        2956.75           1312          47.00       175.68
 1033.36        2957.00           1316          52.00       197.47
 1033.39        2957.25           1319          49.00       184.40
 1033.42        2957.50           1322          48.00       180.04
 1033.45        2957.75           1326          49.00       184.40
 1033.48        2958.00           1329          45.00       166.96
 1033.51        2958.25           1332          53.00       201.83
 1033.54        2958.50           1336          56.00       214.91
 1033.57        2958.75           1339          44.00       162.60
 1033.60        2959.00           1342          51.00       193.11
 1033.64        2959.25           1346          51.00       193.11
 1033.67        2959.50           1349          54.00       206.19
 1033.70        2959.75           1352          67.00       262.86
 1033.73        2960.00           1356          85.00       341.33
 1033.76        2960.25           1359         104.00       424.16
 1033.79        2960.50           1362         124.00       511.34
 1033.82        2960.75           1366         169.00       707.51
 1033.85        2961.00           1369         196.00       825.22
 1033.88        2961.25           1372         234.00       990.88
 1033.91        2961.50           1376         292.00      1243.73
 1033.94        2961.75           1379         527.00      2268.24
 1033.97        2962.00           1382        1215.00      5268.05
 1034.00        2962.25           1386        2562.00     11142.78
 1034.04        2962.50           1389        3676.00     16002.89
 1034.07        2962.75           1392        4741.00     20650.54
 1034.10        2963.00           1396        6120.00     26670.42
 1034.13        2963.25           1399        7169.00     31251.17
 1034.16        2963.50           1402        8332.00     36331.21
 1034.19        2963.75           1406        9804.00     42763.20
 1034.22        2964.00           1409       10828.00     47239.09
 1034.25        2964.25           1412       12048.00     52573.26
 1034.28        2964.50           1416       13642.00     59545.24
 1034.31        2964.75           1419       14736.00     64331.97
 1034.34        2965.00           1422       15845.00     69185.74
 1034.38        2965.25           1426       17464.00     76274.16
 1034.41        2965.50           1429       18544.00     81004.38
 1034.44        2965.75           1432       19601.00     85635.15
 1034.47        2966.00           1436       21052.00     91994.18
 1034.50        2966.25           1439       22121.00     96680.62
 1034.53        2966.50           1442       23058.00    100789.50
 1034.56        2966.75           1446       23851.00    104267.70
 1034.59        2967.00           1449       24019.00    105004.60
 1034.62        2967.25           1452       24085.00    105294.20
 1034.65        2967.50           1456       24002.00    104930.10
 1034.69        2967.75           1459       23946.00    104684.40
 1034.72        2968.00           1462       23761.00    103872.90
 1034.75        2968.25           1466       22820.00     99745.72
 1034.78        2968.50           1469       21666.00     94685.76
 1034.81        2968.75           1472       20729.00     90578.41
 1034.84        2969.00           1476       19152.00     83667.90
 1034.87        2969.25           1479       18321.00     80027.57
 1034.90        2969.50           1482       17191.00     75078.68
 1034.93        2969.75           1486       15734.00     68699.86
 1034.97        2970.00           1489       14643.00     63925.01
 1035.00        2970.25           1492       13477.00     58823.42
 1035.03        2970.50           1496       12077.00     52700.08
 1035.06        2970.75           1499       10878.00     47457.67
 1035.09        2971.00           1502        9713.00     42365.49
 1035.12        2971.25           1506        8279.00     36099.67
 1035.15        2971.50           1509        7189.00     31338.51
 1035.18        2971.75           1513        5649.00     24614.07
 1035.21        2972.00           1516        4550.00     19816.92
 1035.24        2972.25           1519        3476.00     15130.23
 1035.27        2972.50           1523        2131.00      9262.82
 1035.31        2972.75           1526        1124.00      4871.24
 1035.34        2973.00           1529         548.00      2359.80
 1035.37        2973.25           1533         279.00      1187.05
 1035.40        2973.50           1536         224.00       947.28
 1035.43        2973.75           1539         200.00       842.65
 1035.46        2974.00           1543         175.00       733.67
 1035.49        2974.25           1546         133.00       550.58
 1035.52        2974.50           1549         102.00       415.44
 1035.55        2974.75           1553          77.00       306.45
 1035.58        2975.00           1556          62.00       241.07
 1035.61        2975.25           1559          47.00       175.68
 1035.64        2975.50           1563          48.00       180.04
 1035.68        2975.75           1566          48.00       180.04
 1035.71        2976.00           1569          52.00       197.47
 1035.74        2976.25           1573          46.00       171.32
 1035.77        2976.50           1576          51.00       193.11
 1035.80        2976.75           1579          53.00       201.83
 1035.83        2977.00           1583          40.00       145.16
 1035.86        2977.25           1586          48.00       180.04
 1035.89        2977.50           1590          43.00       158.24
 1035.92        2977.75           1593          49.00       184.40
 1035.95        2978.00           1596          51.00       193.11
 1035.98        2978.25           1600          45.00       166.96
 1036.01        2978.50           1603          43.00       158.24
 1036.04        2978.75           1606          40.00       145.16
 1036.08        2979.00           1610          40.00       145.16
 1036.11        2979.25           1613          48.00       180.04
 1036.14        2979.50           1616          45.00       166.96
 1036.17        2979.75           1620          55.00       210.55
 1036.20        2980.00           1623          39.00       140.80
 1036.23        2980.25           1626          50.00       188.75
 1036.26        2980.50           1630          45.00       166.96
 1036.29        2980.75           1633          47.00       175.68
 1036.32        2981.00           1637          50.00       188.75
 1036.35        2981.25           1640          44.00       162.60
 1036.38        2981.50           1643          44.00       162.60
 1036.41        2981.75           1647          42.00       153.88
 1036.45        2982.00           1650          50.00       188.75
 1036.48        2982.25           1653          49.00       184.40
 1036.51        2982.50           1657          42.00       153.88
 1036.54        2982.75           1660          45.00       166.96
 1036.57        2983.00           1663          36.00       127.72
 1036.60        2983.25           1667          50.00       188.75
 1036.63        2983.50           1670          42.00       153.88
 1036.66        2983.75           1673          37.00       132.08
 1036.69        2984.00           1677          47.00       175.68
HS scan finished at 17:16:55
end
