************************************************************
  HS Scan of (1) Internal mercury lamp
************************************************************
Integration time is 0.2294 seconds per sample
dh181117Manchester 53.47 2.23 2.804185pr1000
************************************************************
Dead Time -------------------------  3E-08 
Number of Cycles Used -------------  4 
Starting Wavelength (Angstroms) ---  2950 
Final Wavelength (Angstoms) -------  2984 
Wavelength Increment (Angstroms) --  .25 
Filter Wheel #1 Position ---------- (1) Ground quartz diffuser (ND=2.32)
Filter Wheel #2 Position ---------- (1) Neutral Density 0.494



************************************************************
HS scan start time = 04:48:31
Dark Count =  6.3 


Time (GMT)  Wavelength (Ang)  Step Number  Raw Counts  Counts/Second

  288.89        2950.00           1222          65.00       255.89
  288.95        2950.25           1226          66.00       260.25
  288.99        2950.50           1229          72.00       286.40
  289.02        2950.75           1232          65.00       255.89
  289.05        2951.00           1236          61.00       238.45
  289.08        2951.25           1239          67.00       264.61
  289.11        2951.50           1242          64.00       251.53
  289.14        2951.75           1246          70.00       277.68
  289.17        2952.00           1249          80.00       321.28
  289.20        2952.25           1252          62.00       242.81
  289.24        2952.50           1256          66.00       260.25
  289.27        2952.75           1259          65.00       255.89
  289.30        2953.00           1262          66.00       260.25
  289.33        2953.25           1266          65.00       255.89
  289.36        2953.50           1269          69.00       273.32
  289.39        2953.75           1272          59.00       229.73
  289.42        2954.00           1276          64.00       251.53
  289.45        2954.25           1279          67.00       264.61
  289.48        2954.50           1282          74.00       295.12
  289.51        2954.75           1286          61.00       238.45
  289.54        2955.00           1289          68.00       268.96
  289.58        2955.25           1292          64.00       251.53
  289.61        2955.50           1296          61.00       238.45
  289.64        2955.75           1299          65.00       255.89
  289.67        2956.00           1302          76.00       303.84
  289.70        2956.25           1306          72.00       286.40
  289.73        2956.50           1309          65.00       255.89
  289.76        2956.75           1312          65.00       255.89
  289.79        2957.00           1316          66.00       260.25
  289.82        2957.25           1319          70.00       277.68
  289.85        2957.50           1322          70.00       277.68
  289.88        2957.75           1326          69.00       273.32
  289.92        2958.00           1329          68.00       268.96
  289.95        2958.25           1332          54.00       207.94
  289.98        2958.50           1336          74.00       295.12
  290.01        2958.75           1339          63.00       247.17
  290.04        2959.00           1342          63.00       247.17
  290.07        2959.25           1346          69.00       273.32
  290.10        2959.50           1349          84.00       338.71
  290.13        2959.75           1352          79.00       316.92
  290.16        2960.00           1356         112.00       460.77
  290.19        2960.25           1359         154.00       643.87
  290.22        2960.50           1362         187.00       787.73
  290.26        2960.75           1366         216.00       914.15
  290.29        2961.00           1369         248.00      1053.65
  290.32        2961.25           1372         290.00      1236.75
  290.35        2961.50           1376         358.00      1533.20
  290.38        2961.75           1379         468.00      2012.76
  290.41        2962.00           1382         820.00      3547.46
  290.44        2962.25           1386        2364.00     10280.85
  290.47        2962.50           1389        3816.00     16615.52
  290.50        2962.75           1392        5171.00     22529.18
  290.53        2963.00           1396        7091.00     30912.27
  290.56        2963.25           1399        8495.00     37045.08
  290.60        2963.50           1402       10051.00     43844.47
  290.63        2963.75           1406       12109.00     52841.77
  290.66        2964.00           1409       13679.00     59708.87
  290.69        2964.25           1412       15274.00     66688.21
  290.72        2964.50           1416       17495.00     76411.66
  290.75        2964.75           1419       19077.00     83341.07
  290.78        2965.00           1422       20746.00     90654.66
  290.81        2965.25           1426       22810.00     99703.62
  290.84        2965.50           1429       24270.00    106107.50
  290.87        2965.75           1432       25875.00    113150.20
  290.91        2966.00           1436       27916.00    122110.40
  290.94        2966.25           1439       29380.00    128540.50
  290.97        2966.50           1442       30798.00    134770.90
  291.00        2966.75           1446       32471.00    142124.70
  291.03        2967.00           1449       33292.00    145734.70
  291.06        2967.25           1452       33564.00    146930.90
  291.09        2967.50           1456       33600.00    147089.20
  291.12        2967.75           1459       33387.00    146152.50
  291.15        2968.00           1462       33463.00    146486.70
  291.18        2968.25           1466       32803.00    143584.50
  291.21        2968.50           1469       31960.00    139878.20
  291.25        2968.75           1472       30402.00    133030.70
  291.28        2969.00           1476       28382.00    124156.90
  291.31        2969.25           1479       26842.00    117394.80
  291.34        2969.50           1482       25541.00    111684.40
  291.37        2969.75           1486       23327.00    101971.00
  291.40        2970.00           1489       21883.00     95638.88
  291.43        2970.25           1492       20431.00     89274.09
  291.46        2970.50           1496       18266.00     79788.40
  291.49        2970.75           1499       16729.00     73057.50
  291.53        2971.00           1502       15185.00     66298.70
  291.56        2971.25           1506       13074.00     57062.29
  291.59        2971.50           1509       11497.00     50165.68
  291.62        2971.75           1513        9415.00     41064.95
  291.65        2972.00           1516        7915.00     34511.31
  291.68        2972.25           1519        6411.00     27942.77
  291.71        2972.50           1523        4399.00     19159.66
  291.74        2972.75           1526        2953.00     12850.20
  291.77        2973.00           1529        1529.00      6639.07
  291.80        2973.25           1533         556.00      2396.42
  291.84        2973.50           1536         377.00      1616.03
  291.87        2973.75           1539         296.00      1262.91
  291.90        2974.00           1543         241.00      1023.14
  291.93        2974.25           1546         196.00       826.96
  291.96        2974.50           1549         160.00       670.02
  291.99        2974.75           1553         111.00       456.41
  292.02        2975.00           1556          94.00       382.31
  292.05        2975.25           1559          70.00       277.68
  292.08        2975.50           1563          67.00       264.61
  292.11        2975.75           1566          62.00       242.81
  292.14        2976.00           1569          71.00       282.04
  292.17        2976.25           1573          66.00       260.25
  292.21        2976.50           1576          63.00       247.17
  292.24        2976.75           1579          64.00       251.53
  292.27        2977.00           1583          64.00       251.53
  292.30        2977.25           1586          64.00       251.53
  292.33        2977.50           1590          68.00       268.96
  292.36        2977.75           1593          68.00       268.96
  292.39        2978.00           1596          60.00       234.09
  292.42        2978.25           1600          57.00       221.01
  292.45        2978.50           1603          58.00       225.37
  292.48        2978.75           1606          56.00       216.65
  292.51        2979.00           1610          62.00       242.81
  292.55        2979.25           1613          60.00       234.09
  292.58        2979.50           1616          58.00       225.37
  292.61        2979.75           1620          60.00       234.09
  292.64        2980.00           1623          55.00       212.29
  292.67        2980.25           1626          63.00       247.17
  292.70        2980.50           1630          64.00       251.53
  292.73        2980.75           1633          62.00       242.81
  292.76        2981.00           1637          54.00       207.94
  292.79        2981.25           1640          63.00       247.17
  292.82        2981.50           1643          59.00       229.73
  292.85        2981.75           1647          62.00       242.81
  292.88        2982.00           1650          59.00       229.73
  292.91        2982.25           1653          57.00       221.01
  292.94        2982.50           1657          57.00       221.01
  292.97        2982.75           1660          61.00       238.45
  293.00        2983.00           1663          60.00       234.09
  293.03        2983.25           1667          51.00       194.86
  293.07        2983.50           1670          51.00       194.86
  293.10        2983.75           1673          63.00       247.17
  293.13        2984.00           1677          48.00       181.78
HS scan finished at 04:53:21
end
************************************************************
  HS Scan of (1) Internal mercury lamp
************************************************************
Integration time is 0.2294 seconds per sample
dh181117Manchester 53.47 2.23 2.804185pr1000
************************************************************
Dead Time -------------------------  3E-08 
Number of Cycles Used -------------  4 
Starting Wavelength (Angstroms) ---  2950 
Final Wavelength (Angstoms) -------  2984 
Wavelength Increment (Angstroms) --  .25 
Filter Wheel #1 Position ---------- (1) Ground quartz diffuser (ND=2.32)
Filter Wheel #2 Position ---------- (1) Neutral Density 0.494



************************************************************
HS scan start time = 17:12:00
Dark Count =  6.6 


Time (GMT)  Wavelength (Ang)  Step Number  Raw Counts  Counts/Second

 1032.37        2950.00           1222          75.00       298.17
 1032.44        2950.25           1226          69.00       272.02
 1032.47        2950.50           1229          64.00       250.22
 1032.50        2950.75           1232          66.00       258.94
 1032.53        2951.00           1236          63.00       245.86
 1032.56        2951.25           1239          69.00       272.02
 1032.60        2951.50           1242          55.00       210.99
 1032.63        2951.75           1246          62.00       241.50
 1032.66        2952.00           1249          61.00       237.14
 1032.69        2952.25           1252          64.00       250.22
 1032.72        2952.50           1256          69.00       272.02
 1032.75        2952.75           1259          63.00       245.86
 1032.78        2953.00           1262          78.00       311.25
 1032.81        2953.25           1266          75.00       298.17
 1032.85        2953.50           1269          65.00       254.58
 1032.88        2953.75           1272          64.00       250.22
 1032.91        2954.00           1276          67.00       263.30
 1032.94        2954.25           1279          66.00       258.94
 1032.97        2954.50           1282          74.00       293.81
 1033.00        2954.75           1286          63.00       245.86
 1033.03        2955.00           1289          61.00       237.14
 1033.06        2955.25           1292          67.00       263.30
 1033.09        2955.50           1296          60.00       232.78
 1033.12        2955.75           1299          82.00       328.69
 1033.15        2956.00           1302          69.00       272.02
 1033.18        2956.25           1306          74.00       293.81
 1033.21        2956.50           1309          68.00       267.66
 1033.25        2956.75           1312          62.00       241.50
 1033.28        2957.00           1316          68.00       267.66
 1033.31        2957.25           1319          66.00       258.94
 1033.34        2957.50           1322          62.00       241.50
 1033.37        2957.75           1326          70.00       276.38
 1033.40        2958.00           1329          63.00       245.86
 1033.43        2958.25           1332          64.00       250.22
 1033.46        2958.50           1336          69.00       272.02
 1033.49        2958.75           1339          65.00       254.58
 1033.52        2959.00           1342          66.00       258.94
 1033.55        2959.25           1346          67.00       263.30
 1033.59        2959.50           1349          78.00       311.25
 1033.62        2959.75           1352          95.00       385.36
 1033.65        2960.00           1356         137.00       568.45
 1033.68        2960.25           1359         161.00       673.07
 1033.71        2960.50           1362         203.00       856.17
 1033.74        2960.75           1366         254.00      1078.50
 1033.77        2961.00           1369         306.00      1305.20
 1033.80        2961.25           1372         343.00      1466.50
 1033.83        2961.50           1376         414.00      1776.03
 1033.86        2961.75           1379         520.00      2238.16
 1033.89        2962.00           1382         975.00      4221.98
 1033.92        2962.25           1386        2546.00     11073.43
 1033.96        2962.50           1389        3998.00     17408.39
 1033.99        2962.75           1392        5389.00     23479.48
 1034.02        2963.00           1396        7294.00     31797.54
 1034.05        2963.25           1399        8959.00     39071.06
 1034.08        2963.50           1402       10694.00     46653.75
 1034.11        2963.75           1406       12855.00     56103.07
 1034.14        2964.00           1409       14373.00     62743.98
 1034.17        2964.25           1412       16079.00     70210.51
 1034.20        2964.50           1416       18135.00     79213.31
 1034.23        2964.75           1419       19653.00     85863.44
 1034.27        2965.00           1422       21210.00     92687.19
 1034.30        2965.25           1426       23143.00    101162.70
 1034.33        2965.50           1429       24687.00    107935.70
 1034.36        2965.75           1432       26325.00    115124.00
 1034.39        2966.00           1436       28262.00    123628.60
 1034.42        2966.25           1439       29632.00    129646.30
 1034.45        2966.50           1442       31044.00    135850.70
 1034.48        2966.75           1446       32547.00    142457.60
 1034.51        2967.00           1449       33253.00    145561.90
 1034.54        2967.25           1452       33145.00    145087.00
 1034.58        2967.50           1456       33266.00    145619.10
 1034.61        2967.75           1459       33292.00    145733.40
 1034.64        2968.00           1462       33185.00    145262.90
 1034.67        2968.25           1466       32388.00    141758.50
 1034.70        2968.50           1469       30930.00    135349.70
 1034.73        2968.75           1472       29731.00    130081.20
 1034.76        2969.00           1476       27628.00    120844.50
 1034.79        2969.25           1479       26214.00    114636.80
 1034.82        2969.50           1482       24785.00    108365.70
 1034.86        2969.75           1486       22562.00     98614.77
 1034.89        2970.00           1489       21059.00     92025.30
 1034.92        2970.25           1492       19417.00     84829.38
 1034.95        2970.50           1496       17496.00     76414.73
 1034.98        2970.75           1499       15925.00     69536.38
 1035.01        2971.00           1502       14494.00     63273.44
 1035.04        2971.25           1506       12372.00     53990.61
 1035.07        2971.50           1509       10982.00     47912.76
 1035.10        2971.75           1513        9027.00     39368.18
 1035.14        2972.00           1516        7509.00     32736.58
 1035.17        2972.25           1519        6033.00     26291.00
 1035.20        2972.50           1523        3995.00     17395.30
 1035.23        2972.75           1526        2522.00     10968.74
 1035.26        2973.00           1529        1170.00      5072.26
 1035.29        2973.25           1533         461.00      1980.94
 1035.32        2973.50           1536         330.00      1409.82
 1035.35        2973.75           1539         283.00      1204.93
 1035.38        2974.00           1543         223.00       943.36
 1035.41        2974.25           1546         171.00       716.67
 1035.45        2974.50           1549         139.00       577.17
 1035.48        2974.75           1553          92.00       372.28
 1035.51        2975.00           1556          81.00       324.33
 1035.54        2975.25           1559          69.00       272.02
 1035.57        2975.50           1563          63.00       245.86
 1035.60        2975.75           1566          62.00       241.50
 1035.63        2976.00           1569          69.00       272.02
 1035.66        2976.25           1573          60.00       232.78
 1035.69        2976.50           1576          66.00       258.94
 1035.72        2976.75           1579          65.00       254.58
 1035.75        2977.00           1583          75.00       298.17
 1035.78        2977.25           1586          68.00       267.66
 1035.81        2977.50           1590          72.00       285.09
 1035.84        2977.75           1593          66.00       258.94
 1035.88        2978.00           1596          57.00       219.71
 1035.91        2978.25           1600          55.00       210.99
 1035.94        2978.50           1603          63.00       245.86
 1035.97        2978.75           1606          58.00       224.06
 1036.00        2979.00           1610          66.00       258.94
 1036.03        2979.25           1613          60.00       232.78
 1036.06        2979.50           1616          54.00       206.63
 1036.09        2979.75           1620          66.00       258.94
 1036.12        2980.00           1623          62.00       241.50
 1036.15        2980.25           1626          60.00       232.78
 1036.18        2980.50           1630          64.00       250.22
 1036.22        2980.75           1633          62.00       241.50
 1036.25        2981.00           1637          56.00       215.35
 1036.28        2981.25           1640          62.00       241.50
 1036.31        2981.50           1643          62.00       241.50
 1036.34        2981.75           1647          55.00       210.99
 1036.37        2982.00           1650          56.00       215.35
 1036.40        2982.25           1653          50.00       189.19
 1036.43        2982.50           1657          55.00       210.99
 1036.46        2982.75           1660          67.00       263.30
 1036.49        2983.00           1663          60.00       232.78
 1036.53        2983.25           1667          61.00       237.14
 1036.56        2983.50           1670          59.00       228.42
 1036.59        2983.75           1673          56.00       215.35
 1036.62        2984.00           1677          55.00       210.99
HS scan finished at 17:16:50
end
