************************************************************
  HS Scan of (1) Internal mercury lamp
************************************************************
Integration time is 0.2294 seconds per sample
dh251117Manchester 53.47 2.23 2.750537pr1000
************************************************************
Dead Time -------------------------  3E-08 
Number of Cycles Used -------------  4 
Starting Wavelength (Angstroms) ---  2950 
Final Wavelength (Angstoms) -------  2984 
Wavelength Increment (Angstroms) --  .25 
Filter Wheel #1 Position ---------- (1) Ground quartz diffuser (ND=2.32)
Filter Wheel #2 Position ---------- (1) Neutral Density 0.494



************************************************************
HS scan start time = 04:58:19
Dark Count =  5.4 


Time (GMT)  Wavelength (Ang)  Step Number  Raw Counts  Counts/Second

  298.69        2950.00           1222          71.00       285.97
  298.76        2950.25           1226          63.00       251.09
  298.79        2950.50           1229          61.00       242.37
  298.82        2950.75           1232          64.00       255.45
  298.85        2951.00           1236          67.00       268.53
  298.88        2951.25           1239          75.00       303.40
  298.91        2951.50           1242          72.00       290.33
  298.95        2951.75           1246          67.00       268.53
  298.98        2952.00           1249          68.00       272.89
  299.01        2952.25           1252          64.00       255.45
  299.04        2952.50           1256          66.00       264.17
  299.07        2952.75           1259          70.00       281.61
  299.10        2953.00           1262          60.00       238.01
  299.13        2953.25           1266          73.00       294.68
  299.16        2953.50           1269          66.00       264.17
  299.19        2953.75           1272          67.00       268.53
  299.22        2954.00           1276          78.00       316.48
  299.25        2954.25           1279          67.00       268.53
  299.28        2954.50           1282          59.00       233.65
  299.31        2954.75           1286          70.00       281.61
  299.34        2955.00           1289          65.00       259.81
  299.37        2955.25           1292          71.00       285.97
  299.40        2955.50           1296          64.00       255.45
  299.44        2955.75           1299          62.00       246.73
  299.47        2956.00           1302          67.00       268.53
  299.50        2956.25           1306          63.00       251.09
  299.53        2956.50           1309          61.00       242.37
  299.56        2956.75           1312          59.00       233.65
  299.59        2957.00           1316          65.00       259.81
  299.62        2957.25           1319          61.00       242.37
  299.65        2957.50           1322          57.00       224.94
  299.68        2957.75           1326          63.00       251.09
  299.71        2958.00           1329          70.00       281.61
  299.74        2958.25           1332          61.00       242.37
  299.77        2958.50           1336          64.00       255.45
  299.80        2958.75           1339          66.00       264.17
  299.83        2959.00           1342          61.00       242.37
  299.87        2959.25           1346          77.00       312.12
  299.90        2959.50           1349          73.00       294.68
  299.93        2959.75           1352          85.00       347.00
  299.96        2960.00           1356         116.00       482.13
  299.99        2960.25           1359         131.00       547.52
  300.02        2960.50           1362         159.00       669.59
  300.05        2960.75           1366         220.00       935.51
  300.08        2961.00           1369         268.00      1144.76
  300.11        2961.25           1372         311.00      1332.22
  300.14        2961.50           1376         359.00      1541.48
  300.18        2961.75           1379         429.00      1846.66
  300.21        2962.00           1382         727.00      3145.89
  300.24        2962.25           1386        1967.00      8553.20
  300.27        2962.50           1389        3252.00     14158.59
  300.30        2962.75           1392        4726.00     20590.75
  300.33        2963.00           1396        6699.00     29204.31
  300.36        2963.25           1399        8213.00     35817.02
  300.39        2963.50           1402        9741.00     42493.55
  300.42        2963.75           1406       11975.00     52259.73
  300.46        2964.00           1409       13514.00     58990.97
  300.49        2964.25           1412       15124.00     66035.66
  300.52        2964.50           1416       17156.00     74931.11
  300.55        2964.75           1419       18831.00     82267.31
  300.58        2965.00           1422       20394.00     89115.88
  300.61        2965.25           1426       22398.00     97900.89
  300.64        2965.50           1429       23878.00    104391.80
  300.67        2965.75           1432       25287.00    110573.70
  300.70        2966.00           1436       27361.00    119677.40
  300.73        2966.25           1439       28965.00    126721.50
  300.76        2966.50           1442       30407.00    133056.70
  300.80        2966.75           1446       32218.00    141016.40
  300.83        2967.00           1449       32912.00    144067.70
  300.86        2967.25           1452       33385.00    146147.70
  300.89        2967.50           1456       33468.00    146512.70
  300.92        2967.75           1459       33434.00    146363.10
  300.95        2968.00           1462       33437.00    146376.40
  300.98        2968.25           1466       33033.00    144599.80
  301.01        2968.50           1469       32177.00    140836.20
  301.04        2968.75           1472       30768.00    134643.00
  301.07        2969.00           1476       28637.00    125280.80
  301.11        2969.25           1479       27090.00    118487.60
  301.14        2969.50           1482       25689.00    112337.90
  301.17        2969.75           1486       23501.00    102738.10
  301.20        2970.00           1489       22070.00     96462.71
  301.23        2970.25           1492       20445.00     89339.39
  301.26        2970.50           1496       18551.00     81040.72
  301.29        2970.75           1499       17033.00     74392.52
  301.32        2971.00           1502       15509.00     67720.71
  301.35        2971.25           1506       13542.00     59113.46
  301.38        2971.50           1509       12042.00     52552.71
  301.42        2971.75           1513       10002.00     43634.24
  301.45        2972.00           1516        8534.00     37219.39
  301.48        2972.25           1519        7005.00     30540.61
  301.51        2972.50           1523        5060.00     22048.58
  301.54        2972.75           1526        3531.00     15375.88
  301.57        2973.00           1529        2130.00      9264.13
  301.60        2973.25           1533         716.00      3097.93
  301.63        2973.50           1536         384.00      1650.47
  301.66        2973.75           1539         298.00      1275.55
  301.69        2974.00           1543         246.00      1048.86
  301.73        2974.25           1546         173.00       730.62
  301.76        2974.50           1549         138.00       578.04
  301.79        2974.75           1553         104.00       429.82
  301.82        2975.00           1556          70.00       281.61
  301.85        2975.25           1559          69.00       277.25
  301.88        2975.50           1563          67.00       268.53
  301.91        2975.75           1566          63.00       251.09
  301.94        2976.00           1569          62.00       246.73
  301.97        2976.25           1573          66.00       264.17
  302.00        2976.50           1576          62.00       246.73
  302.03        2976.75           1579          66.00       264.17
  302.06        2977.00           1583          61.00       242.37
  302.09        2977.25           1586          63.00       251.09
  302.12        2977.50           1590          61.00       242.37
  302.15        2977.75           1593          63.00       251.09
  302.18        2978.00           1596          68.00       272.89
  302.22        2978.25           1600          67.00       268.53
  302.25        2978.50           1603          59.00       233.65
  302.28        2978.75           1606          55.00       216.22
  302.31        2979.00           1610          60.00       238.01
  302.34        2979.25           1613          63.00       251.09
  302.37        2979.50           1616          60.00       238.01
  302.40        2979.75           1620          62.00       246.73
  302.43        2980.00           1623          55.00       216.22
  302.46        2980.25           1626          53.00       207.50
  302.49        2980.50           1630          59.00       233.65
  302.52        2980.75           1633          59.00       233.65
  302.56        2981.00           1637          58.00       229.30
  302.59        2981.25           1640          65.00       259.81
  302.62        2981.50           1643          59.00       233.65
  302.65        2981.75           1647          63.00       251.09
  302.68        2982.00           1650          57.00       224.94
  302.71        2982.25           1653          57.00       224.94
  302.74        2982.50           1657          53.00       207.50
  302.77        2982.75           1660          53.00       207.50
  302.80        2983.00           1663          69.00       277.25
  302.83        2983.25           1667          61.00       242.37
  302.86        2983.50           1670          59.00       233.65
  302.89        2983.75           1673          57.00       224.94
  302.92        2984.00           1677          53.00       207.50
HS scan finished at 05:03:08
end
************************************************************
  HS Scan of (1) Internal mercury lamp
************************************************************
Integration time is 0.2294 seconds per sample
dh251117Manchester 53.47 2.23 2.750537pr1000
************************************************************
Dead Time -------------------------  3E-08 
Number of Cycles Used -------------  4 
Starting Wavelength (Angstroms) ---  2950 
Final Wavelength (Angstoms) -------  2984 
Wavelength Increment (Angstroms) --  .25 
Filter Wheel #1 Position ---------- (1) Ground quartz diffuser (ND=2.32)
Filter Wheel #2 Position ---------- (1) Neutral Density 0.494



************************************************************
HS scan start time = 17:12:02
Dark Count =  6.7 


Time (GMT)  Wavelength (Ang)  Step Number  Raw Counts  Counts/Second

 1032.40        2950.00           1222          68.00       267.22
 1032.46        2950.25           1226          62.00       241.07
 1032.49        2950.50           1229          65.00       254.14
 1032.53        2950.75           1232          65.00       254.14
 1032.56        2951.00           1236          67.00       262.86
 1032.59        2951.25           1239          68.00       267.22
 1032.62        2951.50           1242          67.00       262.86
 1032.65        2951.75           1246          64.00       249.78
 1032.68        2952.00           1249          69.00       271.58
 1032.71        2952.25           1252          53.00       201.83
 1032.74        2952.50           1256          63.00       245.42
 1032.77        2952.75           1259          66.00       258.50
 1032.80        2953.00           1262          62.00       241.07
 1032.83        2953.25           1266          66.00       258.50
 1032.87        2953.50           1269          71.00       280.30
 1032.90        2953.75           1272          66.00       258.50
 1032.93        2954.00           1276          70.00       275.94
 1032.96        2954.25           1279          69.00       271.58
 1032.99        2954.50           1282          63.00       245.42
 1033.02        2954.75           1286          71.00       280.30
 1033.05        2955.00           1289          67.00       262.86
 1033.08        2955.25           1292          64.00       249.78
 1033.11        2955.50           1296          67.00       262.86
 1033.14        2955.75           1299          64.00       249.78
 1033.17        2956.00           1302          70.00       275.94
 1033.20        2956.25           1306          68.00       267.22
 1033.24        2956.50           1309          62.00       241.07
 1033.27        2956.75           1312          67.00       262.86
 1033.30        2957.00           1316          59.00       227.99
 1033.33        2957.25           1319          67.00       262.86
 1033.36        2957.50           1322          63.00       245.42
 1033.39        2957.75           1326          70.00       275.94
 1033.42        2958.00           1329          61.00       236.71
 1033.45        2958.25           1332          70.00       275.94
 1033.48        2958.50           1336          75.00       297.74
 1033.51        2958.75           1339          73.00       289.02
 1033.54        2959.00           1342          58.00       223.63
 1033.57        2959.25           1346          74.00       293.38
 1033.60        2959.50           1349          80.00       319.53
 1033.63        2959.75           1352          79.00       315.17
 1033.67        2960.00           1356         118.00       485.19
 1033.70        2960.25           1359         149.00       620.33
 1033.73        2960.50           1362         175.00       733.67
 1033.76        2960.75           1366         226.00       956.00
 1033.79        2961.00           1369         256.00      1086.78
 1033.82        2961.25           1372         300.00      1278.60
 1033.85        2961.50           1376         360.00      1540.18
 1033.88        2961.75           1379         492.00      2115.65
 1033.91        2962.00           1382         971.00      4204.11
 1033.94        2962.25           1386        2581.00     11225.66
 1033.97        2962.50           1389        4048.00     17626.15
 1034.00        2962.75           1392        5511.00     24011.62
 1034.03        2963.00           1396        7417.00     32334.32
 1034.07        2963.25           1399        8937.00     38974.49
 1034.10        2963.50           1402       10509.00     45844.62
 1034.13        2963.75           1406       12564.00     54829.88
 1034.16        2964.00           1409       14077.00     61448.40
 1034.19        2964.25           1412       15692.00     68516.02
 1034.22        2964.50           1416       17606.00     76896.03
 1034.25        2964.75           1419       19202.00     83886.96
 1034.28        2965.00           1422       20793.00     90858.93
 1034.31        2965.25           1426       22739.00     99390.52
 1034.34        2965.50           1429       24397.00    106662.90
 1034.37        2965.75           1432       25871.00    113130.90
 1034.40        2966.00           1436       28221.00    123448.10
 1034.43        2966.25           1439       29463.00    128903.40
 1034.47        2966.50           1442       30715.00    134404.40
 1034.50        2966.75           1446       32303.00    141384.40
 1034.53        2967.00           1449       32694.00    143103.50
 1034.56        2967.25           1452       32843.00    143758.60
 1034.59        2967.50           1456       33045.00    144646.80
 1034.62        2967.75           1459       32921.00    144101.60
 1034.65        2968.00           1462       32855.00    143811.40
 1034.68        2968.25           1466       32044.00    140245.80
 1034.71        2968.50           1469       30882.00    135138.30
 1034.74        2968.75           1472       29492.00    129030.80
 1034.77        2969.00           1476       27457.00    120093.20
 1034.81        2969.25           1479       25952.00    113486.40
 1034.84        2969.50           1482       24577.00    107452.60
 1034.87        2969.75           1486       22497.00     98329.31
 1034.90        2970.00           1489       21033.00     91910.89
 1034.93        2970.25           1492       19637.00     85792.89
 1034.96        2970.50           1496       17542.00     76615.75
 1034.99        2970.75           1499       16077.00     70201.31
 1035.02        2971.00           1502       14453.00     63093.60
 1035.05        2971.25           1506       12503.00     54563.08
 1035.08        2971.50           1509       10843.00     47304.67
 1035.11        2971.75           1513        8869.00     38677.37
 1035.15        2972.00           1516        7496.00     32679.36
 1035.18        2972.25           1519        5865.00     25557.08
 1035.21        2972.50           1523        3930.00     17111.22
 1035.24        2972.75           1526        2555.00     11112.25
 1035.27        2973.00           1529        1221.00      5294.22
 1035.30        2973.25           1533         484.00      2080.78
 1035.33        2973.50           1536         336.00      1435.55
 1035.36        2973.75           1539         275.00      1169.61
 1035.39        2974.00           1543         233.00       986.52
 1035.42        2974.25           1546         179.00       751.11
 1035.45        2974.50           1549         145.00       602.89
 1035.49        2974.75           1553          96.00       389.28
 1035.52        2975.00           1556          72.00       284.66
 1035.55        2975.25           1559          67.00       262.86
 1035.58        2975.50           1563          60.00       232.35
 1035.61        2975.75           1566          67.00       262.86
 1035.64        2976.00           1569          66.00       258.50
 1035.67        2976.25           1573          66.00       258.50
 1035.70        2976.50           1576          64.00       249.78
 1035.73        2976.75           1579          63.00       245.42
 1035.76        2977.00           1583          58.00       223.63
 1035.79        2977.25           1586          62.00       241.07
 1035.82        2977.50           1590          61.00       236.71
 1035.85        2977.75           1593          59.00       227.99
 1035.88        2978.00           1596          62.00       241.07
 1035.91        2978.25           1600          58.00       223.63
 1035.95        2978.50           1603          62.00       241.07
 1035.98        2978.75           1606          65.00       254.14
 1036.01        2979.00           1610          57.00       219.27
 1036.04        2979.25           1613          59.00       227.99
 1036.07        2979.50           1616          60.00       232.35
 1036.10        2979.75           1620          58.00       223.63
 1036.13        2980.00           1623          54.00       206.19
 1036.16        2980.25           1626          62.00       241.07
 1036.19        2980.50           1630          56.00       214.91
 1036.22        2980.75           1633          54.00       206.19
 1036.25        2981.00           1637          61.00       236.71
 1036.29        2981.25           1640          58.00       223.63
 1036.32        2981.50           1643          57.00       219.27
 1036.35        2981.75           1647          64.00       249.78
 1036.38        2982.00           1650          56.00       214.91
 1036.41        2982.25           1653          64.00       249.78
 1036.44        2982.50           1657          53.00       201.83
 1036.47        2982.75           1660          55.00       210.55
 1036.50        2983.00           1663          60.00       232.35
 1036.53        2983.25           1667          65.00       254.14
 1036.56        2983.50           1670          55.00       210.55
 1036.59        2983.75           1673          57.00       219.27
 1036.62        2984.00           1677          57.00       219.27
HS scan finished at 17:16:50
end
