************************************************************
  HS Scan of (1) Internal mercury lamp
************************************************************
Integration time is 0.2294 seconds per sample
dh161118Manchester 53.47 2.23 2.804185pr1000
************************************************************
Dead Time -------------------------  3E-08 
Number of Cycles Used -------------  4 
Starting Wavelength (Angstroms) ---  2950 
Final Wavelength (Angstoms) -------  2984 
Wavelength Increment (Angstroms) --  .25 
Filter Wheel #1 Position ---------- (1) Ground quartz diffuser (ND=2.32)
Filter Wheel #2 Position ---------- (1) Neutral Density 0.494



************************************************************
HS scan start time = 04:45:10
Dark Count =  6 


Time (GMT)  Wavelength (Ang)  Step Number  Raw Counts  Counts/Second

  285.54        2950.00           1222          46.00       174.37
  285.60        2950.25           1226          44.00       165.65
  285.63        2950.50           1229          52.00       200.52
  285.66        2950.75           1232          51.00       196.17
  285.70        2951.00           1236          50.00       191.81
  285.73        2951.25           1239          50.00       191.81
  285.76        2951.50           1242          51.00       196.17
  285.79        2951.75           1246          47.00       178.73
  285.82        2952.00           1249          56.00       217.96
  285.85        2952.25           1252          55.00       213.60
  285.88        2952.50           1256          44.00       165.65
  285.91        2952.75           1259          45.00       170.01
  285.94        2953.00           1262          45.00       170.01
  285.97        2953.25           1266          44.00       165.65
  286.00        2953.50           1269          48.00       183.09
  286.04        2953.75           1272          49.00       187.45
  286.07        2954.00           1276          43.00       161.29
  286.10        2954.25           1279          50.00       191.81
  286.13        2954.50           1282          44.00       165.65
  286.16        2954.75           1286          53.00       204.88
  286.19        2955.00           1289          45.00       170.01
  286.22        2955.25           1292          41.00       152.57
  286.25        2955.50           1296          44.00       165.65
  286.28        2955.75           1299          43.00       161.29
  286.31        2956.00           1302          51.00       196.17
  286.35        2956.25           1306          45.00       170.01
  286.38        2956.50           1309          45.00       170.01
  286.41        2956.75           1312          57.00       222.32
  286.44        2957.00           1316          54.00       209.24
  286.47        2957.25           1319          58.00       226.68
  286.50        2957.50           1322          53.00       204.88
  286.53        2957.75           1326          50.00       191.81
  286.56        2958.00           1329          48.00       183.09
  286.59        2958.25           1332          56.00       217.96
  286.62        2958.50           1336          44.00       165.65
  286.65        2958.75           1339          42.00       156.93
  286.69        2959.00           1342          47.00       178.73
  286.72        2959.25           1346          51.00       196.17
  286.75        2959.50           1349          54.00       209.24
  286.78        2959.75           1352          57.00       222.32
  286.81        2960.00           1356          69.00       274.63
  286.84        2960.25           1359         102.00       418.49
  286.87        2960.50           1362         121.00       501.32
  286.90        2960.75           1366         164.00       688.77
  286.93        2961.00           1369         179.00       754.16
  286.96        2961.25           1372         224.00       950.33
  286.99        2961.50           1376         263.00      1120.35
  287.02        2961.75           1379         369.00      1582.46
  287.06        2962.00           1382         703.00      3038.64
  287.09        2962.25           1386        1846.00      8022.86
  287.12        2962.50           1389        2969.00     12921.31
  287.15        2962.75           1392        4040.00     17594.29
  287.18        2963.00           1396        5581.00     24320.27
  287.21        2963.25           1399        6756.00     29450.60
  287.24        2963.50           1402        7843.00     34198.10
  287.27        2963.75           1406        9360.00     40825.91
  287.30        2964.00           1409       10505.00     45830.19
  287.33        2964.25           1412       11656.00     50862.21
  287.37        2964.50           1416       13128.00     57299.81
  287.40        2964.75           1419       14320.00     62514.69
  287.43        2965.00           1422       15445.00     67437.96
  287.46        2965.25           1426       16882.00     73728.73
  287.49        2965.50           1429       18021.00     78716.63
  287.52        2965.75           1432       19191.00     83841.83
  287.55        2966.00           1436       20717.00     90528.88
  287.58        2966.25           1439       21727.00     94956.26
  287.61        2966.50           1442       22849.00     99875.97
  287.64        2966.75           1446       24033.00    105069.10
  287.68        2967.00           1449       24246.00    106003.50
  287.71        2967.25           1452       24513.00    107174.90
  287.74        2967.50           1456       24504.00    107135.40
  287.77        2967.75           1459       24499.00    107113.50
  287.80        2968.00           1462       24428.00    106802.00
  287.83        2968.25           1466       23801.00    104051.40
  287.86        2968.50           1469       23053.00    100770.60
  287.89        2968.75           1472       21956.00     95960.25
  287.92        2969.00           1476       20409.00     89178.99
  287.96        2969.25           1479       19281.00     84236.15
  287.99        2969.50           1482       18289.00     79890.46
  288.02        2969.75           1486       16734.00     73080.72
  288.05        2970.00           1489       15519.00     67761.85
  288.08        2970.25           1492       14501.00     63306.70
  288.11        2970.50           1496       13011.00     56788.03
  288.14        2970.75           1499       11975.00     52257.10
  288.17        2971.00           1502       10773.00     47001.72
  288.20        2971.25           1506        9247.00     40332.12
  288.23        2971.50           1509        8116.00     35390.65
  288.27        2971.75           1513        6532.00     28472.44
  288.30        2972.00           1516        5493.00     23936.10
  288.33        2972.25           1519        4370.00     19034.41
  288.36        2972.50           1523        2843.00     12371.64
  288.39        2972.75           1526        1826.00      7935.63
  288.42        2973.00           1529         841.00      3640.33
  288.45        2973.25           1533         373.00      1599.90
  288.48        2973.50           1536         257.00      1094.19
  288.51        2973.75           1539         209.00       884.94
  288.55        2974.00           1543         185.00       780.31
  288.58        2974.25           1546         156.00       653.89
  288.61        2974.50           1549         109.00       449.00
  288.64        2974.75           1553          83.00       335.66
  288.67        2975.00           1556          63.00       248.48
  288.70        2975.25           1559          54.00       209.24
  288.73        2975.50           1563          51.00       196.17
  288.76        2975.75           1566          46.00       174.37
  288.79        2976.00           1569          55.00       213.60
  288.82        2976.25           1573          50.00       191.81
  288.85        2976.50           1576          43.00       161.29
  288.88        2976.75           1579          48.00       183.09
  288.91        2977.00           1583          47.00       178.73
  288.94        2977.25           1586          42.00       156.93
  288.98        2977.50           1590          49.00       187.45
  289.01        2977.75           1593          47.00       178.73
  289.04        2978.00           1596          43.00       161.29
  289.07        2978.25           1600          40.00       148.21
  289.10        2978.50           1603          41.00       152.57
  289.13        2978.75           1606          47.00       178.73
  289.16        2979.00           1610          46.00       174.37
  289.19        2979.25           1613          47.00       178.73
  289.22        2979.50           1616          45.00       170.01
  289.25        2979.75           1620          43.00       161.29
  289.28        2980.00           1623          38.00       139.49
  289.31        2980.25           1626          40.00       148.21
  289.34        2980.50           1630          46.00       174.37
  289.37        2980.75           1633          45.00       170.01
  289.41        2981.00           1637          50.00       191.81
  289.44        2981.25           1640          44.00       165.65
  289.47        2981.50           1643          42.00       156.93
  289.50        2981.75           1647          45.00       170.01
  289.53        2982.00           1650          51.00       196.17
  289.56        2982.25           1653          47.00       178.73
  289.59        2982.50           1657          40.00       148.21
  289.62        2982.75           1660          46.00       174.37
  289.65        2983.00           1663          46.00       174.37
  289.68        2983.25           1667          37.00       135.14
  289.71        2983.50           1670          46.00       174.37
  289.74        2983.75           1673          52.00       200.52
  289.77        2984.00           1677          45.00       170.01
HS scan finished at 04:49:59
end
************************************************************
  HS Scan of (1) Internal mercury lamp
************************************************************
Integration time is 0.2294 seconds per sample
dh161118Manchester 53.47 2.23 2.804185pr1000
************************************************************
Dead Time -------------------------  3E-08 
Number of Cycles Used -------------  4 
Starting Wavelength (Angstroms) ---  2950 
Final Wavelength (Angstoms) -------  2984 
Wavelength Increment (Angstroms) --  .25 
Filter Wheel #1 Position ---------- (1) Ground quartz diffuser (ND=2.32)
Filter Wheel #2 Position ---------- (1) Neutral Density 0.494



************************************************************
HS scan start time = 17:12:02
Dark Count =  5.2 


Time (GMT)  Wavelength (Ang)  Step Number  Raw Counts  Counts/Second

 1032.40        2950.00           1222          48.00       186.57
 1032.46        2950.25           1226          44.00       169.14
 1032.49        2950.50           1229          48.00       186.57
 1032.52        2950.75           1232          51.00       199.65
 1032.56        2951.00           1236          46.00       177.86
 1032.59        2951.25           1239          50.00       195.29
 1032.62        2951.50           1242          47.00       182.22
 1032.65        2951.75           1246          46.00       177.86
 1032.68        2952.00           1249          43.00       164.78
 1032.71        2952.25           1252          46.00       177.86
 1032.74        2952.50           1256          44.00       169.14
 1032.77        2952.75           1259          44.00       169.14
 1032.80        2953.00           1262          45.00       173.50
 1032.83        2953.25           1266          40.00       151.70
 1032.86        2953.50           1269          44.00       169.14
 1032.90        2953.75           1272          57.00       225.81
 1032.93        2954.00           1276          50.00       195.29
 1032.96        2954.25           1279          52.00       204.01
 1032.99        2954.50           1282          46.00       177.86
 1033.02        2954.75           1286          45.00       173.50
 1033.05        2955.00           1289          39.00       147.34
 1033.08        2955.25           1292          44.00       169.14
 1033.11        2955.50           1296          47.00       182.22
 1033.14        2955.75           1299          47.00       182.22
 1033.17        2956.00           1302          39.00       147.34
 1033.20        2956.25           1306          42.00       160.42
 1033.24        2956.50           1309          49.00       190.93
 1033.27        2956.75           1312          56.00       221.45
 1033.30        2957.00           1316          45.00       173.50
 1033.33        2957.25           1319          48.00       186.57
 1033.36        2957.50           1322          46.00       177.86
 1033.39        2957.75           1326          52.00       204.01
 1033.42        2958.00           1329          46.00       177.86
 1033.45        2958.25           1332          53.00       208.37
 1033.48        2958.50           1336          54.00       212.73
 1033.51        2958.75           1339          57.00       225.81
 1033.54        2959.00           1342          54.00       212.73
 1033.58        2959.25           1346          51.00       199.65
 1033.61        2959.50           1349          50.00       195.29
 1033.64        2959.75           1352          60.00       238.89
 1033.67        2960.00           1356          81.00       330.43
 1033.70        2960.25           1359          91.00       374.02
 1033.73        2960.50           1362         129.00       539.68
 1033.76        2960.75           1366         142.00       596.35
 1033.79        2961.00           1369         192.00       814.32
 1033.82        2961.25           1372         226.00       962.54
 1033.85        2961.50           1376         272.00      1163.07
 1033.88        2961.75           1379         426.00      1834.45
 1033.91        2962.00           1382         944.00      4092.92
 1033.94        2962.25           1386        2191.00      9531.06
 1033.97        2962.50           1389        3291.00     14329.61
 1034.01        2962.75           1392        4293.00     18701.86
 1034.04        2963.00           1396        5732.00     24982.97
 1034.07        2963.25           1399        6828.00     29768.51
 1034.10        2963.50           1402        7944.00     34642.79
 1034.13        2963.75           1406        9595.00     41856.36
 1034.16        2964.00           1409       10805.00     47145.10
 1034.19        2964.25           1412       12058.00     52623.56
 1034.22        2964.50           1416       13561.00     59197.46
 1034.25        2964.75           1419       14667.00     64036.59
 1034.28        2965.00           1422       15677.00     68456.93
 1034.31        2965.25           1426       17215.00     75190.35
 1034.34        2965.50           1429       18392.00     80345.13
 1034.38        2965.75           1432       19585.00     85571.62
 1034.41        2966.00           1436       20969.00     91636.94
 1034.44        2966.25           1439       22131.00     96731.06
 1034.47        2966.50           1442       23068.00    100839.90
 1034.50        2966.75           1446       24121.00    105458.70
 1034.53        2967.00           1449       24412.00    106735.30
 1034.56        2967.25           1452       24447.00    106888.90
 1034.59        2967.50           1456       24445.00    106880.10
 1034.62        2967.75           1459       24164.00    105647.30
 1034.65        2968.00           1462       24087.00    105309.50
 1034.68        2968.25           1466       23191.00    101379.40
 1034.71        2968.50           1469       22383.00     97836.00
 1034.75        2968.75           1472       21298.00     93079.08
 1034.78        2969.00           1476       19852.00     86741.56
 1034.81        2969.25           1479       18696.00     81676.79
 1034.84        2969.50           1482       17548.00     76648.58
 1034.87        2969.75           1486       16071.00     70181.60
 1034.90        2970.00           1489       14852.00     64846.17
 1034.93        2970.25           1492       14006.00     61144.32
 1034.96        2970.50           1496       12443.00     54307.24
 1034.99        2970.75           1499       11301.00     49313.53
 1035.02        2971.00           1502       10249.00     44714.69
 1035.05        2971.25           1506        8642.00     37692.12
 1035.09        2971.50           1509        7504.00     32720.86
 1035.12        2971.75           1513        6088.00     26537.25
 1035.15        2972.00           1516        5020.00     21874.86
 1035.18        2972.25           1519        3956.00     17231.23
 1035.21        2972.50           1523        2449.00     10656.42
 1035.24        2972.75           1526        1467.00      6373.49
 1035.27        2973.00           1529         656.00      2837.21
 1035.30        2973.25           1533         330.00      1415.93
 1035.33        2973.50           1536         265.00      1132.56
 1035.37        2973.75           1539         218.00       927.66
 1035.40        2974.00           1543         183.00       775.08
 1035.43        2974.25           1546         143.00       600.71
 1035.46        2974.50           1549         105.00       435.05
 1035.49        2974.75           1553          76.00       308.63
 1035.52        2975.00           1556          58.00       230.17
 1035.55        2975.25           1559          42.00       160.42
 1035.58        2975.50           1563          45.00       173.50
 1035.61        2975.75           1566          42.00       160.42
 1035.64        2976.00           1569          46.00       177.86
 1035.67        2976.25           1573          48.00       186.57
 1035.70        2976.50           1576          49.00       190.93
 1035.74        2976.75           1579          49.00       190.93
 1035.77        2977.00           1583          46.00       177.86
 1035.80        2977.25           1586          52.00       204.01
 1035.83        2977.50           1590          45.00       173.50
 1035.86        2977.75           1593          53.00       208.37
 1035.89        2978.00           1596          50.00       195.29
 1035.92        2978.25           1600          39.00       147.34
 1035.95        2978.50           1603          58.00       230.17
 1035.98        2978.75           1606          51.00       199.65
 1036.01        2979.00           1610          43.00       164.78
 1036.04        2979.25           1613          47.00       182.22
 1036.08        2979.50           1616          50.00       195.29
 1036.11        2979.75           1620          43.00       164.78
 1036.14        2980.00           1623          45.00       173.50
 1036.17        2980.25           1626          48.00       186.57
 1036.20        2980.50           1630          48.00       186.57
 1036.23        2980.75           1633          49.00       190.93
 1036.26        2981.00           1637          42.00       160.42
 1036.29        2981.25           1640          45.00       173.50
 1036.32        2981.50           1643          42.00       160.42
 1036.35        2981.75           1647          49.00       190.93
 1036.38        2982.00           1650          46.00       177.86
 1036.42        2982.25           1653          52.00       204.01
 1036.45        2982.50           1657          48.00       186.57
 1036.48        2982.75           1660          44.00       169.14
 1036.51        2983.00           1663          44.00       169.14
 1036.54        2983.25           1667          37.00       138.62
 1036.57        2983.50           1670          36.00       134.26
 1036.60        2983.75           1673          45.00       173.50
 1036.63        2984.00           1677          44.00       169.14
HS scan finished at 17:16:51
end
