************************************************************
  HS Scan of (1) Internal mercury lamp
************************************************************
Integration time is 0.2294 seconds per sample
dh191118Manchester 53.47 2.23 2.804185pr1000
************************************************************
Dead Time -------------------------  3E-08 
Number of Cycles Used -------------  4 
Starting Wavelength (Angstroms) ---  2950 
Final Wavelength (Angstoms) -------  2984 
Wavelength Increment (Angstroms) --  .25 
Filter Wheel #1 Position ---------- (1) Ground quartz diffuser (ND=2.32)
Filter Wheel #2 Position ---------- (1) Neutral Density 0.494



************************************************************
HS scan start time = 04:49:37
Dark Count =  5.7 


Time (GMT)  Wavelength (Ang)  Step Number  Raw Counts  Counts/Second

  289.98        2950.00           1222          49.00       188.75
  290.05        2950.25           1226          46.00       175.68
  290.08        2950.50           1229          52.00       201.83
  290.11        2950.75           1232          50.00       193.11
  290.14        2951.00           1236          48.00       184.40
  290.17        2951.25           1239          50.00       193.11
  290.20        2951.50           1242          47.00       180.04
  290.23        2951.75           1246          54.00       210.55
  290.26        2952.00           1249          49.00       188.75
  290.29        2952.25           1252          49.00       188.75
  290.32        2952.50           1256          47.00       180.04
  290.35        2952.75           1259          40.00       149.52
  290.38        2953.00           1262          47.00       180.04
  290.42        2953.25           1266          47.00       180.04
  290.45        2953.50           1269          50.00       193.11
  290.48        2953.75           1272          54.00       210.55
  290.51        2954.00           1276          49.00       188.75
  290.54        2954.25           1279          54.00       210.55
  290.57        2954.50           1282          50.00       193.11
  290.60        2954.75           1286          54.00       210.55
  290.63        2955.00           1289          51.00       197.47
  290.66        2955.25           1292          54.00       210.55
  290.69        2955.50           1296          43.00       162.60
  290.72        2955.75           1299          47.00       180.04
  290.75        2956.00           1302          41.00       153.88
  290.78        2956.25           1306          51.00       197.47
  290.81        2956.50           1309          47.00       180.04
  290.85        2956.75           1312          46.00       175.68
  290.88        2957.00           1316          48.00       184.40
  290.91        2957.25           1319          53.00       206.19
  290.94        2957.50           1322          54.00       210.55
  290.97        2957.75           1326          44.00       166.96
  291.00        2958.00           1329          54.00       210.55
  291.03        2958.25           1332          46.00       175.68
  291.06        2958.50           1336          45.00       171.32
  291.09        2958.75           1339          45.00       171.32
  291.12        2959.00           1342          43.00       162.60
  291.15        2959.25           1346          44.00       166.96
  291.18        2959.50           1349          45.00       171.32
  291.22        2959.75           1352          56.00       219.27
  291.25        2960.00           1356          79.00       319.53
  291.28        2960.25           1359          86.00       350.05
  291.31        2960.50           1362         123.00       511.34
  291.34        2960.75           1366         155.00       650.84
  291.37        2961.00           1369         174.00       733.67
  291.40        2961.25           1372         214.00       908.05
  291.43        2961.50           1376         261.00      1112.94
  291.46        2961.75           1379         402.00      1727.64
  291.49        2962.00           1382         879.00      3807.32
  291.52        2962.25           1386        2132.00      9271.54
  291.55        2962.50           1389        3167.00     13786.43
  291.58        2962.75           1392        4236.00     18450.93
  291.62        2963.00           1396        5788.00     25225.27
  291.65        2963.25           1399        6967.00     30373.35
  291.68        2963.50           1402        8149.00     35536.13
  291.71        2963.75           1406        9458.00     41255.48
  291.74        2964.00           1409       10798.00     47112.32
  291.77        2964.25           1412       11928.00     52052.89
  291.80        2964.50           1416       13528.00     59050.90
  291.83        2964.75           1419       14737.00     64340.73
  291.86        2965.00           1422       15508.00     67715.01
  291.90        2965.25           1426       17221.00     75214.44
  291.93        2965.50           1429       18325.00     80049.46
  291.96        2965.75           1432       19515.00     85262.72
  291.99        2966.00           1436       21175.00     92537.71
  292.02        2966.25           1439       22122.00     96689.39
  292.05        2966.50           1442       23230.00    101548.20
  292.08        2966.75           1446       23976.00    104820.40
  292.11        2967.00           1449       24341.00    106421.60
  292.14        2967.25           1452       24261.00    106070.70
  292.18        2967.50           1456       24350.00    106461.10
  292.21        2967.75           1459       24182.00    105724.10
  292.24        2968.00           1462       24150.00    105583.70
  292.27        2968.25           1466       23281.00    101771.90
  292.30        2968.50           1469       22154.00     96829.69
  292.33        2968.75           1472       21175.00     92537.71
  292.36        2969.00           1476       19654.00     85871.77
  292.39        2969.25           1479       18549.00     81030.66
  292.42        2969.50           1482       17469.00     76300.44
  292.45        2969.75           1486       15847.00     69198.87
  292.49        2970.00           1489       14685.00     64113.17
  292.52        2970.25           1492       13742.00     59987.11
  292.55        2970.50           1496       12282.00     53600.94
  292.58        2970.75           1499       11213.00     48926.60
  292.61        2971.00           1502       10165.00     44345.35
  292.64        2971.25           1506        8649.00     37720.52
  292.67        2971.50           1509        7494.00     32675.00
  292.70        2971.75           1513        5999.00     26146.48
  292.73        2972.00           1516        4792.00     20877.50
  292.76        2972.25           1519        3731.00     16247.24
  292.79        2972.50           1523        2301.00     10008.67
  292.82        2972.75           1526        1292.00      5608.18
  292.85        2973.00           1529         637.00      2752.19
  292.89        2973.25           1533         328.00      1405.03
  292.92        2973.50           1536         257.00      1095.50
  292.95        2973.75           1539         228.00       969.08
  292.98        2974.00           1543         193.00       816.50
  293.01        2974.25           1546         165.00       694.43
  293.04        2974.50           1549         132.00       550.58
  293.07        2974.75           1553          84.00       341.33
  293.10        2975.00           1556          72.00       289.02
  293.13        2975.25           1559          59.00       232.35
  293.16        2975.50           1563          52.00       201.83
  293.19        2975.75           1566          47.00       180.04
  293.22        2976.00           1569          47.00       180.04
  293.25        2976.25           1573          42.00       158.24
  293.28        2976.50           1576          47.00       180.04
  293.32        2976.75           1579          43.00       162.60
  293.35        2977.00           1583          47.00       180.04
  293.38        2977.25           1586          51.00       197.47
  293.41        2977.50           1590          51.00       197.47
  293.44        2977.75           1593          53.00       206.19
  293.47        2978.00           1596          47.00       180.04
  293.50        2978.25           1600          49.00       188.75
  293.53        2978.50           1603          41.00       153.88
  293.56        2978.75           1606          51.00       197.47
  293.59        2979.00           1610          49.00       188.75
  293.62        2979.25           1613          46.00       175.68
  293.65        2979.50           1616          45.00       171.32
  293.69        2979.75           1620          51.00       197.47
  293.72        2980.00           1623          50.00       193.11
  293.75        2980.25           1626          35.00       127.72
  293.78        2980.50           1630          46.00       175.68
  293.81        2980.75           1633          44.00       166.96
  293.84        2981.00           1637          46.00       175.68
  293.87        2981.25           1640          39.00       145.16
  293.90        2981.50           1643          45.00       171.32
  293.93        2981.75           1647          48.00       184.40
  293.96        2982.00           1650          50.00       193.11
  293.99        2982.25           1653          47.00       180.04
  294.02        2982.50           1657          44.00       166.96
  294.06        2982.75           1660          46.00       175.68
  294.09        2983.00           1663          48.00       184.40
  294.12        2983.25           1667          41.00       153.88
  294.15        2983.50           1670          47.00       180.04
  294.18        2983.75           1673          41.00       153.88
  294.21        2984.00           1677          38.00       140.80
HS scan finished at 04:54:26
end
************************************************************
  HS Scan of (1) Internal mercury lamp
************************************************************
Integration time is 0.2294 seconds per sample
dh191118Manchester 53.47 2.23 2.804185pr1000
************************************************************
Dead Time -------------------------  3E-08 
Number of Cycles Used -------------  4 
Starting Wavelength (Angstroms) ---  2950 
Final Wavelength (Angstoms) -------  2984 
Wavelength Increment (Angstroms) --  .25 
Filter Wheel #1 Position ---------- (1) Ground quartz diffuser (ND=2.32)
Filter Wheel #2 Position ---------- (1) Neutral Density 0.494



************************************************************
HS scan start time = 17:12:00
Dark Count =  5.3 


Time (GMT)  Wavelength (Ang)  Step Number  Raw Counts  Counts/Second

 1032.38        2950.00           1222          55.00       216.65
 1032.44        2950.25           1226          50.00       194.86
 1032.47        2950.50           1229          49.00       190.50
 1032.50        2950.75           1232          53.00       207.94
 1032.54        2951.00           1236          49.00       190.50
 1032.57        2951.25           1239          47.00       181.78
 1032.60        2951.50           1242          55.00       216.65
 1032.63        2951.75           1246          47.00       181.78
 1032.66        2952.00           1249          44.00       168.70
 1032.69        2952.25           1252          43.00       164.34
 1032.72        2952.50           1256          50.00       194.86
 1032.75        2952.75           1259          48.00       186.14
 1032.78        2953.00           1262          42.00       159.98
 1032.81        2953.25           1266          51.00       199.22
 1032.84        2953.50           1269          53.00       207.94
 1032.87        2953.75           1272          51.00       199.22
 1032.90        2954.00           1276          48.00       186.14
 1032.94        2954.25           1279          49.00       190.50
 1032.97        2954.50           1282          54.00       212.29
 1033.00        2954.75           1286          44.00       168.70
 1033.03        2955.00           1289          50.00       194.86
 1033.06        2955.25           1292          52.00       203.58
 1033.09        2955.50           1296          47.00       181.78
 1033.12        2955.75           1299          55.00       216.65
 1033.15        2956.00           1302          48.00       186.14
 1033.18        2956.25           1306          51.00       199.22
 1033.21        2956.50           1309          45.00       173.06
 1033.24        2956.75           1312          52.00       203.58
 1033.27        2957.00           1316          44.00       168.70
 1033.31        2957.25           1319          52.00       203.58
 1033.34        2957.50           1322          55.00       216.65
 1033.37        2957.75           1326          52.00       203.58
 1033.40        2958.00           1329          47.00       181.78
 1033.43        2958.25           1332          50.00       194.86
 1033.46        2958.50           1336          50.00       194.86
 1033.49        2958.75           1339          50.00       194.86
 1033.52        2959.00           1342          51.00       199.22
 1033.55        2959.25           1346          50.00       194.86
 1033.58        2959.50           1349          55.00       216.65
 1033.61        2959.75           1352          65.00       260.25
 1033.64        2960.00           1356          87.00       356.15
 1033.68        2960.25           1359          97.00       399.74
 1033.71        2960.50           1362         124.00       517.44
 1033.74        2960.75           1366         161.00       678.74
 1033.77        2961.00           1369         188.00       796.44
 1033.80        2961.25           1372         218.00       927.23
 1033.83        2961.50           1376         267.00      1140.84
 1033.86        2961.75           1379         347.00      1489.60
 1033.89        2962.00           1382         650.00      2810.61
 1033.92        2962.25           1386        1709.00      7428.42
 1033.95        2962.50           1389        2694.00     11724.70
 1033.98        2962.75           1392        3785.00     16484.61
 1034.01        2963.00           1396        5237.00     22821.64
 1034.04        2963.25           1399        6382.00     27820.51
 1034.07        2963.50           1402        7430.00     32397.21
 1034.11        2963.75           1406        8955.00     39059.26
 1034.14        2964.00           1409       10080.00     43975.59
 1034.17        2964.25           1412       11316.00     49378.68
 1034.20        2964.50           1416       12787.00     55811.33
 1034.23        2964.75           1419       13910.00     60723.87
 1034.26        2965.00           1422       15071.00     65804.15
 1034.29        2965.25           1426       16485.00     71993.60
 1034.32        2965.50           1429       17582.00     76797.05
 1034.35        2965.75           1432       18540.00     80992.98
 1034.39        2966.00           1436       19984.00     87319.55
 1034.42        2966.25           1439       21196.00     92631.52
 1034.45        2966.50           1442       22127.00     96713.06
 1034.48        2966.75           1446       23413.00    102352.60
 1034.51        2967.00           1449       23867.00    104344.00
 1034.54        2967.25           1452       24083.00    105291.50
 1034.57        2967.50           1456       24098.00    105357.30
 1034.60        2967.75           1459       24096.00    105348.60
 1034.63        2968.00           1462       23976.00    104822.10
 1034.66        2968.25           1466       23566.00    103023.70
 1034.69        2968.50           1469       22674.00     99111.60
 1034.72        2968.75           1472       21688.00     94788.34
 1034.75        2969.00           1476       20342.00     88888.41
 1034.79        2969.25           1479       19132.00     83586.41
 1034.82        2969.50           1482       18149.00     79280.31
 1034.85        2969.75           1486       16677.00     72834.21
 1034.88        2970.00           1489       15506.00     67708.02
 1034.91        2970.25           1492       14368.00     62727.79
 1034.94        2970.50           1496       12988.00     56690.49
 1034.97        2970.75           1499       11790.00     51451.20
 1035.00        2971.00           1502       10721.00     46777.46
 1035.03        2971.25           1506        9204.00     40147.28
 1035.06        2971.50           1509        8118.00     35402.45
 1035.09        2971.75           1513        6714.00     29270.24
 1035.13        2972.00           1516        5692.00     24807.91
 1035.16        2972.25           1519        4501.00     19609.18
 1035.19        2972.50           1523        3131.00     13631.12
 1035.22        2972.75           1526        2013.00      8754.26
 1035.25        2973.00           1529         965.00      4184.05
 1035.28        2973.25           1533         355.00      1524.48
 1035.31        2973.50           1536         263.00      1123.40
 1035.34        2973.75           1539         222.00       944.67
 1035.37        2974.00           1543         193.00       818.24
 1035.40        2974.25           1546         141.00       591.55
 1035.44        2974.50           1549          96.00       395.38
 1035.47        2974.75           1553          68.00       273.32
 1035.50        2975.00           1556          56.00       221.01
 1035.53        2975.25           1559          50.00       194.86
 1035.56        2975.50           1563          40.00       151.26
 1035.59        2975.75           1566          42.00       159.98
 1035.62        2976.00           1569          51.00       199.22
 1035.65        2976.25           1573          41.00       155.62
 1035.68        2976.50           1576          51.00       199.22
 1035.71        2976.75           1579          48.00       186.14
 1035.74        2977.00           1583          55.00       216.65
 1035.77        2977.25           1586          44.00       168.70
 1035.80        2977.50           1590          43.00       164.34
 1035.84        2977.75           1593          40.00       151.26
 1035.87        2978.00           1596          45.00       173.06
 1035.90        2978.25           1600          43.00       164.34
 1035.93        2978.50           1603          46.00       177.42
 1035.96        2978.75           1606          46.00       177.42
 1035.99        2979.00           1610          46.00       177.42
 1036.02        2979.25           1613          40.00       151.26
 1036.05        2979.50           1616          49.00       190.50
 1036.08        2979.75           1620          41.00       155.62
 1036.11        2980.00           1623          52.00       203.58
 1036.14        2980.25           1626          40.00       151.26
 1036.17        2980.50           1630          54.00       212.29
 1036.21        2980.75           1633          43.00       164.34
 1036.24        2981.00           1637          44.00       168.70
 1036.27        2981.25           1640          35.00       129.47
 1036.30        2981.50           1643          49.00       190.50
 1036.33        2981.75           1647          41.00       155.62
 1036.36        2982.00           1650          47.00       181.78
 1036.39        2982.25           1653          31.00       112.03
 1036.42        2982.50           1657          43.00       164.34
 1036.45        2982.75           1660          43.00       164.34
 1036.48        2983.00           1663          41.00       155.62
 1036.51        2983.25           1667          49.00       190.50
 1036.55        2983.50           1670          45.00       173.06
 1036.58        2983.75           1673          36.00       133.83
 1036.61        2984.00           1677          50.00       194.86
HS scan finished at 17:16:49
end
