************************************************************
  HS Scan of (1) Internal mercury lamp
************************************************************
Integration time is 0.2294 seconds per sample
dh241118Manchester 53.47 2.23 2.804185pr1000
************************************************************
Dead Time -------------------------  3E-08 
Number of Cycles Used -------------  4 
Starting Wavelength (Angstroms) ---  2950 
Final Wavelength (Angstoms) -------  2984 
Wavelength Increment (Angstroms) --  .25 
Filter Wheel #1 Position ---------- (1) Ground quartz diffuser (ND=2.32)
Filter Wheel #2 Position ---------- (1) Neutral Density 0.494



************************************************************
HS scan start time = 04:58:32
Dark Count =  5.4 


Time (GMT)  Wavelength (Ang)  Step Number  Raw Counts  Counts/Second

  298.90        2950.00           1222          44.00       168.27
  298.96        2950.25           1226          47.00       181.34
  298.99        2950.50           1229          49.00       190.06
  299.02        2950.75           1232          50.00       194.42
  299.05        2951.00           1236          48.00       185.70
  299.09        2951.25           1239          53.00       207.50
  299.12        2951.50           1242          47.00       181.34
  299.15        2951.75           1246          51.00       198.78
  299.18        2952.00           1249          54.00       211.86
  299.21        2952.25           1252          48.00       185.70
  299.24        2952.50           1256          55.00       216.22
  299.27        2952.75           1259          49.00       190.06
  299.30        2953.00           1262          46.00       176.98
  299.33        2953.25           1266          50.00       194.42
  299.36        2953.50           1269          47.00       181.34
  299.40        2953.75           1272          52.00       203.14
  299.43        2954.00           1276          42.00       159.55
  299.46        2954.25           1279          54.00       211.86
  299.49        2954.50           1282          55.00       216.22
  299.52        2954.75           1286          45.00       172.63
  299.55        2955.00           1289          49.00       190.06
  299.58        2955.25           1292          48.00       185.70
  299.61        2955.50           1296          54.00       211.86
  299.64        2955.75           1299          55.00       216.22
  299.67        2956.00           1302          45.00       172.63
  299.70        2956.25           1306          49.00       190.06
  299.73        2956.50           1309          44.00       168.27
  299.76        2956.75           1312          57.00       224.94
  299.79        2957.00           1316          56.00       220.58
  299.82        2957.25           1319          52.00       203.14
  299.86        2957.50           1322          46.00       176.98
  299.89        2957.75           1326          44.00       168.27
  299.92        2958.00           1329          47.00       181.34
  299.95        2958.25           1332          50.00       194.42
  299.98        2958.50           1336          46.00       176.98
  300.01        2958.75           1339          57.00       224.94
  300.04        2959.00           1342          43.00       163.91
  300.07        2959.25           1346          52.00       203.14
  300.10        2959.50           1349          53.00       207.50
  300.13        2959.75           1352          56.00       220.58
  300.16        2960.00           1356          93.00       381.87
  300.19        2960.25           1359         104.00       429.82
  300.22        2960.50           1362         124.00       517.01
  300.25        2960.75           1366         155.00       652.15
  300.28        2961.00           1369         190.00       804.73
  300.31        2961.25           1372         203.00       861.40
  300.35        2961.50           1376         256.00      1092.45
  300.38        2961.75           1379         302.00      1292.99
  300.41        2962.00           1382         489.00      2108.24
  300.44        2962.25           1386        1414.00      6141.50
  300.47        2962.50           1389        2464.00     10720.97
  300.50        2962.75           1392        3516.00     15310.43
  300.53        2963.00           1396        4916.00     21420.04
  300.56        2963.25           1399        6086.00     26527.64
  300.59        2963.50           1402        7275.00     31719.80
  300.62        2963.75           1406        8933.00     38962.69
  300.65        2964.00           1409       10074.00     43948.93
  300.68        2964.25           1412       11128.00     48556.29
  300.72        2964.50           1416       12660.00     55255.43
  300.75        2964.75           1419       13891.00     60640.30
  300.78        2965.00           1422       15121.00     66022.53
  300.81        2965.25           1426       16467.00     71914.35
  300.84        2965.50           1429       17684.00     77243.30
  300.87        2965.75           1432       18831.00     82267.31
  300.90        2966.00           1436       20342.00     88887.98
  300.93        2966.25           1439       21219.00     92731.90
  300.96        2966.50           1442       22477.00     98247.31
  301.00        2966.75           1446       23895.00    104466.40
  301.03        2967.00           1449       24215.00    105870.20
  301.06        2967.25           1452       24372.00    106558.90
  301.09        2967.50           1456       24355.00    106484.40
  301.12        2967.75           1459       24408.00    106716.90
  301.15        2968.00           1462       24464.00    106962.60
  301.18        2968.25           1466       23956.00    104734.00
  301.21        2968.50           1469       23190.00    101374.10
  301.24        2968.75           1472       22361.00     97738.65
  301.27        2969.00           1476       20852.00     91123.21
  301.30        2969.25           1479       19868.00     86810.80
  301.34        2969.50           1482       18512.00     80869.90
  301.37        2969.75           1486       16963.00     74086.01
  301.40        2970.00           1489       16141.00     70487.16
  301.43        2970.25           1492       14885.00     64989.71
  301.46        2970.50           1496       13290.00     58011.07
  301.49        2970.75           1499       12330.00     53812.17
  301.52        2971.00           1502       11206.00     48897.31
  301.55        2971.25           1506        9707.00     42344.96
  301.58        2971.50           1509        8665.00     37791.73
  301.61        2971.75           1513        7190.00     31348.56
  301.64        2972.00           1516        6193.00     26994.83
  301.68        2972.25           1519        5024.00     21891.45
  301.71        2972.50           1523        3470.00     15109.73
  301.74        2972.75           1526        2407.00     10472.34
  301.77        2973.00           1529        1390.00      6036.84
  301.80        2973.25           1533         472.00      2034.13
  301.83        2973.50           1536         284.00      1214.52
  301.86        2973.75           1539         244.00      1040.14
  301.89        2974.00           1543         190.00       804.73
  301.92        2974.25           1546         157.00       660.87
  301.95        2974.50           1549         121.00       503.93
  301.98        2974.75           1553          77.00       312.12
  302.02        2975.00           1556          65.00       259.81
  302.05        2975.25           1559          59.00       233.65
  302.08        2975.50           1563          48.00       185.70
  302.11        2975.75           1566          47.00       181.34
  302.14        2976.00           1569          48.00       185.70
  302.17        2976.25           1573          52.00       203.14
  302.20        2976.50           1576          42.00       159.55
  302.23        2976.75           1579          49.00       190.06
  302.26        2977.00           1583          44.00       168.27
  302.29        2977.25           1586          43.00       163.91
  302.32        2977.50           1590          49.00       190.06
  302.35        2977.75           1593          46.00       176.98
  302.38        2978.00           1596          45.00       172.63
  302.41        2978.25           1600          51.00       198.78
  302.44        2978.50           1603          49.00       190.06
  302.48        2978.75           1606          42.00       159.55
  302.51        2979.00           1610          38.00       142.11
  302.54        2979.25           1613          46.00       176.98
  302.57        2979.50           1616          45.00       172.63
  302.60        2979.75           1620          42.00       159.55
  302.63        2980.00           1623          45.00       172.63
  302.66        2980.25           1626          40.00       150.83
  302.69        2980.50           1630          44.00       168.27
  302.72        2980.75           1633          45.00       172.63
  302.75        2981.00           1637          39.00       146.47
  302.78        2981.25           1640          41.00       155.19
  302.81        2981.50           1643          51.00       198.78
  302.84        2981.75           1647          43.00       163.91
  302.88        2982.00           1650          42.00       159.55
  302.91        2982.25           1653          52.00       203.14
  302.94        2982.50           1657          37.00       137.75
  302.97        2982.75           1660          42.00       159.55
  303.00        2983.00           1663          42.00       159.55
  303.03        2983.25           1667          43.00       163.91
  303.06        2983.50           1670          45.00       172.63
  303.09        2983.75           1673          51.00       198.78
  303.12        2984.00           1677          46.00       176.98
HS scan finished at 05:03:20
end
************************************************************
  HS Scan of (1) Internal mercury lamp
************************************************************
Integration time is 0.2294 seconds per sample
dh241118Manchester 53.47 2.23 2.804185pr1000
************************************************************
Dead Time -------------------------  3E-08 
Number of Cycles Used -------------  4 
Starting Wavelength (Angstroms) ---  2950 
Final Wavelength (Angstoms) -------  2984 
Wavelength Increment (Angstroms) --  .25 
Filter Wheel #1 Position ---------- (1) Ground quartz diffuser (ND=2.32)
Filter Wheel #2 Position ---------- (1) Neutral Density 0.494



************************************************************
HS scan start time = 17:12:02
Dark Count =  7.2 


Time (GMT)  Wavelength (Ang)  Step Number  Raw Counts  Counts/Second

 1032.40        2950.00           1222          59.00       225.81
 1032.47        2950.25           1226          46.00       169.14
 1032.50        2950.50           1229          50.00       186.57
 1032.53        2950.75           1232          49.00       182.22
 1032.56        2951.00           1236          52.00       195.29
 1032.59        2951.25           1239          48.00       177.86
 1032.62        2951.50           1242          41.00       147.34
 1032.66        2951.75           1246          49.00       182.22
 1032.69        2952.00           1249          50.00       186.57
 1032.72        2952.25           1252          55.00       208.37
 1032.75        2952.50           1256          51.00       190.93
 1032.78        2952.75           1259          44.00       160.42
 1032.81        2953.00           1262          49.00       182.22
 1032.84        2953.25           1266          60.00       230.17
 1032.87        2953.50           1269          50.00       186.57
 1032.90        2953.75           1272          61.00       234.53
 1032.93        2954.00           1276          48.00       177.86
 1032.96        2954.25           1279          50.00       186.57
 1032.99        2954.50           1282          45.00       164.78
 1033.02        2954.75           1286          46.00       169.14
 1033.06        2955.00           1289          53.00       199.65
 1033.09        2955.25           1292          47.00       173.50
 1033.12        2955.50           1296          53.00       199.65
 1033.15        2955.75           1299          52.00       195.29
 1033.18        2956.00           1302          42.00       151.70
 1033.21        2956.25           1306          46.00       169.14
 1033.24        2956.50           1309          48.00       177.86
 1033.27        2956.75           1312          48.00       177.86
 1033.30        2957.00           1316          48.00       177.86
 1033.33        2957.25           1319          43.00       156.06
 1033.36        2957.50           1322          49.00       182.22
 1033.39        2957.75           1326          52.00       195.29
 1033.42        2958.00           1329          45.00       164.78
 1033.46        2958.25           1332          48.00       177.86
 1033.49        2958.50           1336          43.00       156.06
 1033.52        2958.75           1339          46.00       169.14
 1033.55        2959.00           1342          49.00       182.22
 1033.58        2959.25           1346          52.00       195.29
 1033.61        2959.50           1349          55.00       208.37
 1033.64        2959.75           1352          57.00       217.09
 1033.67        2960.00           1356          64.00       247.60
 1033.70        2960.25           1359          83.00       330.43
 1033.73        2960.50           1362         117.00       478.65
 1033.76        2960.75           1366         155.00       644.30
 1033.79        2961.00           1369         174.00       727.13
 1033.83        2961.25           1372         213.00       897.15
 1033.86        2961.50           1376         245.00      1036.65
 1033.89        2961.75           1379         360.00      1538.00
 1033.92        2962.00           1382         802.00      3465.05
 1033.95        2962.25           1386        1965.00      8536.63
 1033.98        2962.50           1389        3013.00     13108.03
 1034.01        2962.75           1392        4200.00     18287.27
 1034.04        2963.00           1396        5526.00     24074.93
 1034.07        2963.25           1399        6638.00     28930.07
 1034.10        2963.50           1402        7861.00     34271.49
 1034.13        2963.75           1406        9318.00     40637.13
 1034.16        2964.00           1409       10437.00     45527.71
 1034.19        2964.25           1412       11594.00     50585.87
 1034.22        2964.50           1416       13074.00     57058.36
 1034.26        2964.75           1419       14229.00     62111.27
 1034.29        2965.00           1422       15421.00     67327.66
 1034.32        2965.25           1426       16818.00     73443.25
 1034.35        2965.50           1429       17956.00     78426.68
 1034.38        2965.75           1432       18826.00     82237.52
 1034.41        2966.00           1436       20422.00     89230.71
 1034.44        2966.25           1439       21455.00     93758.56
 1034.47        2966.50           1442       22584.00     98708.62
 1034.50        2966.75           1446       23694.00    103576.80
 1034.54        2967.00           1449       24005.00    104941.00
 1034.57        2967.25           1452       24087.00    105300.70
 1034.60        2967.50           1456       23966.00    104769.90
 1034.63        2967.75           1459       24048.00    105129.70
 1034.66        2968.00           1462       23916.00    104550.60
 1034.69        2968.25           1466       23205.00    101432.00
 1034.72        2968.50           1469       22330.00     97594.84
 1034.75        2968.75           1472       21381.00     93434.16
 1034.78        2969.00           1476       20029.00     87508.42
 1034.81        2969.25           1479       18706.00     81711.84
 1034.84        2969.50           1482       17779.00     77651.48
 1034.87        2969.75           1486       16395.00     71591.27
 1034.91        2970.00           1489       15196.00     66342.90
 1034.94        2970.25           1492       14163.00     61822.49
 1034.97        2970.50           1496       12618.00     55063.86
 1035.00        2970.75           1499       11361.00     49567.11
 1035.03        2971.00           1502       10325.00     45038.15
 1035.06        2971.25           1506        8814.00     38434.88
 1035.09        2971.50           1509        7719.00     33651.22
 1035.12        2971.75           1513        6244.00     27209.65
 1035.15        2972.00           1516        5195.00     22630.01
 1035.19        2972.25           1519        4142.00     18034.16
 1035.22        2972.50           1523        2785.00     12113.38
 1035.25        2972.75           1526        1671.00      7254.41
 1035.28        2973.00           1529         789.00      3408.37
 1035.31        2973.25           1533         347.00      1481.32
 1035.34        2973.50           1536         257.00      1088.96
 1035.37        2973.75           1539         224.00       945.10
 1035.40        2974.00           1543         173.00       722.77
 1035.43        2974.25           1546         143.00       591.99
 1035.46        2974.50           1549         123.00       504.80
 1035.50        2974.75           1553          87.00       347.87
 1035.53        2975.00           1556          73.00       286.84
 1035.56        2975.25           1559          60.00       230.17
 1035.59        2975.50           1563          50.00       186.57
 1035.62        2975.75           1566          44.00       160.42
 1035.65        2976.00           1569          52.00       195.29
 1035.68        2976.25           1573          44.00       160.42
 1035.71        2976.50           1576          38.00       134.26
 1035.74        2976.75           1579          47.00       173.50
 1035.77        2977.00           1583          54.00       204.01
 1035.80        2977.25           1586          43.00       156.06
 1035.83        2977.50           1590          51.00       190.93
 1035.87        2977.75           1593          51.00       190.93
 1035.90        2978.00           1596          50.00       186.57
 1035.93        2978.25           1600          48.00       177.86
 1035.96        2978.50           1603          50.00       186.57
 1035.99        2978.75           1606          48.00       177.86
 1036.02        2979.00           1610          50.00       186.57
 1036.05        2979.25           1613          48.00       177.86
 1036.08        2979.50           1616          46.00       169.14
 1036.11        2979.75           1620          50.00       186.57
 1036.14        2980.00           1623          40.00       142.98
 1036.17        2980.25           1626          42.00       151.70
 1036.21        2980.50           1630          40.00       142.98
 1036.24        2980.75           1633          45.00       164.78
 1036.27        2981.00           1637          42.00       151.70
 1036.30        2981.25           1640          43.00       156.06
 1036.33        2981.50           1643          43.00       156.06
 1036.36        2981.75           1647          43.00       156.06
 1036.39        2982.00           1650          42.00       151.70
 1036.42        2982.25           1653          47.00       173.50
 1036.45        2982.50           1657          43.00       156.06
 1036.48        2982.75           1660          48.00       177.86
 1036.51        2983.00           1663          51.00       190.93
 1036.54        2983.25           1667          45.00       164.78
 1036.57        2983.50           1670          46.00       169.14
 1036.61        2983.75           1673          39.00       138.62
 1036.64        2984.00           1677          49.00       182.22
HS scan finished at 17:16:51
end
