************************************************************
  HS Scan of (1) Internal mercury lamp
************************************************************
Integration time is 0.2294 seconds per sample
dh181118Manchester 53.47 2.23 2.804185pr1000
************************************************************
Dead Time -------------------------  3E-08 
Number of Cycles Used -------------  4 
Starting Wavelength (Angstroms) ---  2950 
Final Wavelength (Angstoms) -------  2984 
Wavelength Increment (Angstroms) --  .25 
Filter Wheel #1 Position ---------- (1) Ground quartz diffuser (ND=2.32)
Filter Wheel #2 Position ---------- (1) Neutral Density 0.494



************************************************************
HS scan start time = 04:48:07
Dark Count =  6.4 


Time (GMT)  Wavelength (Ang)  Step Number  Raw Counts  Counts/Second

  288.49        2950.00           1222          54.00       207.50
  288.56        2950.25           1226          51.00       194.42
  288.59        2950.50           1229          45.00       168.27
  288.62        2950.75           1232          53.00       203.14
  288.65        2951.00           1236          46.00       172.63
  288.68        2951.25           1239          44.00       163.91
  288.71        2951.50           1242          54.00       207.50
  288.74        2951.75           1246          52.00       198.78
  288.77        2952.00           1249          51.00       194.42
  288.80        2952.25           1252          44.00       163.91
  288.83        2952.50           1256          46.00       172.63
  288.87        2952.75           1259          44.00       163.91
  288.90        2953.00           1262          49.00       185.70
  288.93        2953.25           1266          50.00       190.06
  288.96        2953.50           1269          45.00       168.27
  288.99        2953.75           1272          46.00       172.63
  289.02        2954.00           1276          46.00       172.63
  289.05        2954.25           1279          52.00       198.78
  289.08        2954.50           1282          55.00       211.86
  289.11        2954.75           1286          49.00       185.70
  289.14        2955.00           1289          46.00       172.63
  289.17        2955.25           1292          40.00       146.47
  289.21        2955.50           1296          47.00       176.98
  289.24        2955.75           1299          48.00       181.34
  289.27        2956.00           1302          54.00       207.50
  289.30        2956.25           1306          46.00       172.63
  289.33        2956.50           1309          51.00       194.42
  289.36        2956.75           1312          51.00       194.42
  289.39        2957.00           1316          49.00       185.70
  289.42        2957.25           1319          49.00       185.70
  289.45        2957.50           1322          55.00       211.86
  289.48        2957.75           1326          48.00       181.34
  289.51        2958.00           1329          51.00       194.42
  289.54        2958.25           1332          57.00       220.58
  289.57        2958.50           1336          53.00       203.14
  289.60        2958.75           1339          57.00       220.58
  289.64        2959.00           1342          52.00       198.78
  289.67        2959.25           1346          54.00       207.50
  289.70        2959.50           1349          60.00       233.65
  289.73        2959.75           1352          56.00       216.22
  289.76        2960.00           1356          77.00       307.76
  289.79        2960.25           1359          93.00       377.51
  289.82        2960.50           1362         130.00       538.81
  289.85        2960.75           1366         167.00       700.10
  289.88        2961.00           1369         178.00       748.06
  289.91        2961.25           1372         216.00       913.71
  289.94        2961.50           1376         245.00      1040.14
  289.97        2961.75           1379         330.00      1410.70
  290.00        2962.00           1382         657.00      2836.34
  290.04        2962.25           1386        1792.00      7785.60
  290.07        2962.50           1389        2864.00     12461.50
  290.10        2962.75           1392        3880.00     16894.35
  290.13        2963.00           1396        5396.00     23510.91
  290.16        2963.25           1399        6446.00     28095.16
  290.19        2963.50           1402        7537.00     32859.76
  290.22        2963.75           1406        9072.00     39565.68
  290.25        2964.00           1409       10237.00     44657.00
  290.28        2964.25           1412       11464.00     50020.96
  290.32        2964.50           1416       13098.00     57166.83
  290.35        2964.75           1419       14181.00     61904.74
  290.38        2965.00           1422       15453.00     67471.22
  290.41        2965.25           1426       16867.00     73661.30
  290.44        2965.50           1429       18020.00     78710.50
  290.47        2965.75           1432       19215.00     83945.22
  290.50        2966.00           1436       20577.00     89913.52
  290.53        2966.25           1439       21777.00     95173.71
  290.56        2966.50           1442       22823.00     99760.19
  290.59        2966.75           1446       23825.00    104154.90
  290.62        2967.00           1449       24321.00    106330.80
  290.66        2967.25           1452       24345.00    106436.10
  290.69        2967.50           1456       24379.00    106585.30
  290.72        2967.75           1459       24232.00    105940.40
  290.75        2968.00           1462       24206.00    105826.30
  290.78        2968.25           1466       23732.00    103747.00
  290.81        2968.50           1469       22894.00    100071.60
  290.84        2968.75           1472       21846.00     95476.22
  290.87        2969.00           1476       20629.00     90141.43
  290.91        2969.25           1479       19381.00     84672.53
  290.94        2969.50           1482       18361.00     80204.08
  290.97        2969.75           1486       16828.00     73490.53
  291.00        2970.00           1489       15728.00     68674.90
  291.03        2970.25           1492       14578.00     63641.88
  291.06        2970.50           1496       13196.00     57595.51
  291.09        2970.75           1499       12046.00     52565.83
  291.12        2971.00           1502       10877.00     47454.61
  291.15        2971.25           1506        9380.00     40911.56
  291.18        2971.50           1509        8105.00     35340.85
  291.21        2971.75           1513        6701.00     29208.67
  291.25        2972.00           1516        5653.00     24632.85
  291.28        2972.25           1519        4525.00     19709.12
  291.31        2972.50           1523        3122.00     13587.06
  291.34        2972.75           1526        2049.00      8906.48
  291.37        2973.00           1529        1075.00      4658.89
  291.40        2973.25           1533         387.00      1659.19
  291.43        2973.50           1536         279.00      1188.36
  291.46        2973.75           1539         229.00       970.39
  291.49        2974.00           1543         188.00       791.65
  291.52        2974.25           1546         160.00       669.59
  291.55        2974.50           1549         120.00       495.21
  291.58        2974.75           1553          87.00       351.36
  291.62        2975.00           1556          67.00       264.17
  291.65        2975.25           1559          62.00       242.37
  291.68        2975.50           1563          49.00       185.70
  291.71        2975.75           1566          45.00       168.27
  291.74        2976.00           1569          49.00       185.70
  291.77        2976.25           1573          46.00       172.63
  291.80        2976.50           1576          46.00       172.63
  291.83        2976.75           1579          57.00       220.58
  291.86        2977.00           1583          46.00       172.63
  291.89        2977.25           1586          45.00       168.27
  291.92        2977.50           1590          49.00       185.70
  291.95        2977.75           1593          44.00       163.91
  291.98        2978.00           1596          43.00       159.55
  292.01        2978.25           1600          43.00       159.55
  292.04        2978.50           1603          47.00       176.98
  292.07        2978.75           1606          45.00       168.27
  292.11        2979.00           1610          48.00       181.34
  292.14        2979.25           1613          46.00       172.63
  292.17        2979.50           1616          46.00       172.63
  292.20        2979.75           1620          38.00       137.75
  292.23        2980.00           1623          47.00       176.98
  292.26        2980.25           1626          43.00       159.55
  292.29        2980.50           1630          44.00       163.91
  292.32        2980.75           1633          43.00       159.55
  292.35        2981.00           1637          50.00       190.06
  292.38        2981.25           1640          46.00       172.63
  292.42        2981.50           1643          52.00       198.78
  292.45        2981.75           1647          40.00       146.47
  292.48        2982.00           1650          44.00       163.91
  292.51        2982.25           1653          44.00       163.91
  292.54        2982.50           1657          44.00       163.91
  292.57        2982.75           1660          46.00       172.63
  292.60        2983.00           1663          44.00       163.91
  292.63        2983.25           1667          43.00       159.55
  292.66        2983.50           1670          36.00       129.03
  292.69        2983.75           1673          46.00       172.63
  292.72        2984.00           1677          44.00       163.91
HS scan finished at 04:52:56
end
************************************************************
  HS Scan of (1) Internal mercury lamp
************************************************************
Integration time is 0.2294 seconds per sample
dh181118Manchester 53.47 2.23 2.804185pr1000
************************************************************
Dead Time -------------------------  3E-08 
Number of Cycles Used -------------  4 
Starting Wavelength (Angstroms) ---  2950 
Final Wavelength (Angstoms) -------  2984 
Wavelength Increment (Angstroms) --  .25 
Filter Wheel #1 Position ---------- (1) Ground quartz diffuser (ND=2.32)
Filter Wheel #2 Position ---------- (1) Neutral Density 0.494



************************************************************
HS scan start time = 17:12:04
Dark Count =  7 


Time (GMT)  Wavelength (Ang)  Step Number  Raw Counts  Counts/Second

 1032.43        2950.00           1222          52.00       196.17
 1032.50        2950.25           1226          55.00       209.24
 1032.53        2950.50           1229          48.00       178.73
 1032.56        2950.75           1232          51.00       191.81
 1032.59        2951.00           1236          57.00       217.96
 1032.62        2951.25           1239          51.00       191.81
 1032.65        2951.50           1242          45.00       165.65
 1032.68        2951.75           1246          45.00       165.65
 1032.71        2952.00           1249          42.00       152.57
 1032.74        2952.25           1252          48.00       178.73
 1032.77        2952.50           1256          52.00       196.17
 1032.80        2952.75           1259          48.00       178.73
 1032.83        2953.00           1262          56.00       213.60
 1032.87        2953.25           1266          48.00       178.73
 1032.90        2953.50           1269          44.00       161.29
 1032.93        2953.75           1272          50.00       187.45
 1032.96        2954.00           1276          44.00       161.29
 1032.99        2954.25           1279          56.00       213.60
 1033.02        2954.50           1282          48.00       178.73
 1033.05        2954.75           1286          53.00       200.52
 1033.08        2955.00           1289          48.00       178.73
 1033.11        2955.25           1292          50.00       187.45
 1033.14        2955.50           1296          43.00       156.93
 1033.17        2955.75           1299          49.00       183.09
 1033.20        2956.00           1302          48.00       178.73
 1033.24        2956.25           1306          47.00       174.37
 1033.27        2956.50           1309          47.00       174.37
 1033.30        2956.75           1312          49.00       183.09
 1033.33        2957.00           1316          50.00       187.45
 1033.36        2957.25           1319          49.00       183.09
 1033.39        2957.50           1322          40.00       143.85
 1033.42        2957.75           1326          49.00       183.09
 1033.45        2958.00           1329          48.00       178.73
 1033.48        2958.25           1332          48.00       178.73
 1033.51        2958.50           1336          58.00       222.32
 1033.54        2958.75           1339          44.00       161.29
 1033.57        2959.00           1342          53.00       200.52
 1033.60        2959.25           1346          47.00       174.37
 1033.63        2959.50           1349          56.00       213.60
 1033.66        2959.75           1352          62.00       239.76
 1033.70        2960.00           1356          78.00       309.51
 1033.73        2960.25           1359         100.00       405.41
 1033.76        2960.50           1362         122.00       501.32
 1033.79        2960.75           1366         162.00       675.69
 1033.82        2961.00           1369         185.00       775.96
 1033.85        2961.25           1372         225.00       950.33
 1033.88        2961.50           1376         289.00      1229.34
 1033.91        2961.75           1379         463.00      1987.91
 1033.94        2962.00           1382        1104.00      4782.73
 1033.97        2962.25           1386        2456.00     10679.10
 1034.00        2962.50           1389        3518.00     15312.18
 1034.03        2962.75           1392        4624.00     20138.58
 1034.06        2963.00           1396        5978.00     26049.12
 1034.10        2963.25           1399        7100.00     30948.51
 1034.13        2963.50           1402        8168.00     35613.44
 1034.16        2963.75           1406        9694.00     42281.15
 1034.19        2964.00           1409       10828.00     47237.78
 1034.22        2964.25           1412       11957.00     52174.02
 1034.25        2964.50           1416       13500.00     58922.73
 1034.28        2964.75           1419       14519.00     63381.09
 1034.31        2965.00           1422       15546.00     67875.65
 1034.34        2965.25           1426       17204.00     75134.28
 1034.37        2965.50           1429       18432.00     80512.46
 1034.40        2965.75           1432       19449.00     84967.84
 1034.44        2966.00           1436       20968.00     91624.66
 1034.47        2966.25           1439       21960.00     95973.41
 1034.50        2966.50           1442       22963.00    100371.50
 1034.53        2966.75           1446       23984.00    104849.80
 1034.56        2967.00           1449       24011.00    104968.20
 1034.59        2967.25           1452       24115.00    105424.50
 1034.62        2967.50           1456       24120.00    105446.40
 1034.65        2967.75           1459       24106.00    105385.00
 1034.68        2968.00           1462       23955.00    104722.60
 1034.71        2968.25           1466       23086.00    100911.00
 1034.75        2968.50           1469       22097.00     96574.08
 1034.78        2968.75           1472       20929.00     91453.71
 1034.81        2969.00           1476       19608.00     85664.51
 1034.84        2969.25           1479       18411.00     80420.47
 1034.87        2969.50           1482       17342.00     75738.60
 1034.90        2969.75           1486       15940.00     69600.28
 1034.93        2970.00           1489       14925.00     65157.76
 1034.96        2970.25           1492       13842.00     60418.92
 1034.99        2970.50           1496       12284.00     53604.01
 1035.02        2970.75           1499       11246.00     49065.20
 1035.05        2971.00           1502       10016.00     43688.44
 1035.09        2971.25           1506        8509.00     37103.18
 1035.12        2971.50           1509        7382.00     32180.14
 1035.15        2971.75           1513        5882.00     25629.99
 1035.18        2972.00           1516        4777.00     20806.36
 1035.21        2972.25           1519        3682.00     16027.76
 1035.24        2972.50           1523        2253.00      9793.64
 1035.27        2972.75           1526        1279.00      5545.82
 1035.30        2973.00           1529         549.00      2362.85
 1035.33        2973.25           1533         300.00      1277.29
 1035.36        2973.50           1536         239.00      1011.36
 1035.40        2973.75           1539         206.00       867.50
 1035.43        2974.00           1543         172.00       719.28
 1035.46        2974.25           1546         128.00       527.47
 1035.49        2974.50           1549         111.00       453.36
 1035.52        2974.75           1553          68.00       265.91
 1035.55        2975.00           1556          56.00       213.60
 1035.58        2975.25           1559          50.00       187.45
 1035.61        2975.50           1563          49.00       183.09
 1035.64        2975.75           1566          49.00       183.09
 1035.67        2976.00           1569          52.00       196.17
 1035.70        2976.25           1573          45.00       165.65
 1035.73        2976.50           1576          45.00       165.65
 1035.76        2976.75           1579          50.00       187.45
 1035.79        2977.00           1583          55.00       209.24
 1035.83        2977.25           1586          47.00       174.37
 1035.86        2977.50           1590          41.00       148.21
 1035.89        2977.75           1593          39.00       139.49
 1035.92        2978.00           1596          43.00       156.93
 1035.95        2978.25           1600          46.00       170.01
 1035.98        2978.50           1603          49.00       183.09
 1036.01        2978.75           1606          48.00       178.73
 1036.04        2979.00           1610          48.00       178.73
 1036.07        2979.25           1613          55.00       209.24
 1036.10        2979.50           1616          47.00       174.37
 1036.14        2979.75           1620          41.00       148.21
 1036.17        2980.00           1623          42.00       152.57
 1036.20        2980.25           1626          51.00       191.81
 1036.23        2980.50           1630          47.00       174.37
 1036.26        2980.75           1633          46.00       170.01
 1036.29        2981.00           1637          50.00       187.45
 1036.32        2981.25           1640          47.00       174.37
 1036.35        2981.50           1643          47.00       174.37
 1036.38        2981.75           1647          42.00       152.57
 1036.41        2982.00           1650          40.00       143.85
 1036.44        2982.25           1653          44.00       161.29
 1036.47        2982.50           1657          38.00       135.14
 1036.50        2982.75           1660          46.00       170.01
 1036.53        2983.00           1663          43.00       156.93
 1036.56        2983.25           1667          42.00       152.57
 1036.60        2983.50           1670          39.00       139.49
 1036.63        2983.75           1673          47.00       174.37
 1036.66        2984.00           1677          44.00       161.29
HS scan finished at 17:16:52
end
