************************************************************
  HS Scan of (1) Internal mercury lamp
************************************************************
Integration time is 0.2294 seconds per sample
dh201117Manchester 53.47 2.23 2.804185pr1000
************************************************************
Dead Time -------------------------  3E-08 
Number of Cycles Used -------------  4 
Starting Wavelength (Angstroms) ---  2950 
Final Wavelength (Angstoms) -------  2984 
Wavelength Increment (Angstroms) --  .25 
Filter Wheel #1 Position ---------- (1) Ground quartz diffuser (ND=2.32)
Filter Wheel #2 Position ---------- (1) Neutral Density 0.494



************************************************************
HS scan start time = 04:51:27
Dark Count =  6.6 


Time (GMT)  Wavelength (Ang)  Step Number  Raw Counts  Counts/Second

  291.83        2950.00           1222          74.00       293.81
  291.89        2950.25           1226          59.00       228.42
  291.92        2950.50           1229          75.00       298.17
  291.95        2950.75           1232          66.00       258.94
  291.99        2951.00           1236          63.00       245.86
  292.02        2951.25           1239          63.00       245.86
  292.05        2951.50           1242          69.00       272.02
  292.08        2951.75           1246          65.00       254.58
  292.11        2952.00           1249          59.00       228.42
  292.14        2952.25           1252          71.00       280.73
  292.17        2952.50           1256          67.00       263.30
  292.20        2952.75           1259          65.00       254.58
  292.23        2953.00           1262          68.00       267.66
  292.26        2953.25           1266          64.00       250.22
  292.30        2953.50           1269          74.00       293.81
  292.33        2953.75           1272          60.00       232.78
  292.36        2954.00           1276          66.00       258.94
  292.39        2954.25           1279          68.00       267.66
  292.42        2954.50           1282          66.00       258.94
  292.45        2954.75           1286          51.00       193.55
  292.48        2955.00           1289          62.00       241.50
  292.51        2955.25           1292          61.00       237.14
  292.54        2955.50           1296          66.00       258.94
  292.57        2955.75           1299          71.00       280.73
  292.61        2956.00           1302          66.00       258.94
  292.64        2956.25           1306          91.00       367.92
  292.67        2956.50           1309          66.00       258.94
  292.70        2956.75           1312          72.00       285.09
  292.73        2957.00           1316          63.00       245.86
  292.76        2957.25           1319          66.00       258.94
  292.79        2957.50           1322          67.00       263.30
  292.82        2957.75           1326          62.00       241.50
  292.85        2958.00           1329          61.00       237.14
  292.88        2958.25           1332          69.00       272.02
  292.91        2958.50           1336          70.00       276.38
  292.94        2958.75           1339          70.00       276.38
  292.98        2959.00           1342          65.00       254.58
  293.01        2959.25           1346          66.00       258.94
  293.04        2959.50           1349          71.00       280.73
  293.07        2959.75           1352          80.00       319.97
  293.10        2960.00           1356         110.00       450.75
  293.13        2960.25           1359         137.00       568.45
  293.16        2960.50           1362         186.00       782.06
  293.19        2960.75           1366         234.00       991.31
  293.22        2961.00           1369         260.00      1104.66
  293.25        2961.25           1372         316.00      1348.79
  293.28        2961.50           1376         396.00      1697.56
  293.31        2961.75           1379         628.00      2709.03
  293.34        2962.00           1382        1396.00      6057.77
  293.38        2962.25           1386        3063.00     13328.78
  293.41        2962.50           1389        4576.00     19930.83
  293.44        2962.75           1392        6228.00     27142.41
  293.47        2963.00           1396        8217.00     35829.26
  293.50        2963.25           1399        9842.00     42929.71
  293.53        2963.50           1402       11314.00     49364.25
  293.56        2963.75           1406       13598.00     59353.20
  293.59        2964.00           1409       15053.00     65719.69
  293.62        2964.25           1412       16785.00     73301.38
  293.66        2964.50           1416       18641.00     81429.73
  293.69        2964.75           1419       20306.00     88724.96
  293.72        2965.00           1422       21856.00     95519.19
  293.75        2965.25           1426       24037.00    105084.00
  293.78        2965.50           1429       25724.00    112486.20
  293.81        2965.75           1432       27261.00    119233.10
  293.84        2966.00           1436       29331.00    128323.90
  293.87        2966.25           1439       30664.00    134180.70
  293.90        2966.50           1442       32105.00    140514.40
  293.94        2966.75           1446       33408.00    146243.50
  293.97        2967.00           1449       33646.00    147290.20
  294.00        2967.25           1452       33703.00    147540.90
  294.03        2967.50           1456       33659.00    147347.40
  294.06        2967.75           1459       33597.00    147074.70
  294.09        2968.00           1462       33534.00    146797.60
  294.12        2968.25           1466       32292.00    141336.50
  294.15        2968.50           1469       30977.00    135556.30
  294.18        2968.75           1472       29391.00    128587.50
  294.21        2969.00           1476       27237.00    119127.70
  294.25        2969.25           1479       25868.00    113118.20
  294.28        2969.50           1482       24240.00    105974.60
  294.31        2969.75           1486       22075.00     96479.37
  294.34        2970.00           1489       20514.00     89636.54
  294.37        2970.25           1492       19033.00     83147.00
  294.40        2970.50           1496       17143.00     74868.94
  294.43        2970.75           1499       15551.00     67899.29
  294.46        2971.00           1502       14219.00     62070.14
  294.49        2971.25           1506       12004.00     52381.30
  294.52        2971.50           1509       10476.00     45700.81
  294.55        2971.75           1513        8443.00     36816.58
  294.59        2972.00           1516        6749.00     29417.41
  294.62        2972.25           1519        5328.00     23213.20
  294.65        2972.50           1523        3308.00     14397.67
  294.68        2972.75           1526        1920.00      8342.98
  294.71        2973.00           1529         952.00      4121.70
  294.74        2973.25           1533         437.00      1876.30
  294.77        2973.50           1536         350.00      1497.02
  294.80        2973.75           1539         307.00      1309.55
  294.83        2974.00           1543         249.00      1056.70
  294.86        2974.25           1546         204.00       860.53
  294.89        2974.50           1549         161.00       673.07
  294.92        2974.75           1553         109.00       446.39
  294.95        2975.00           1556          81.00       324.33
  294.99        2975.25           1559          74.00       293.81
  295.02        2975.50           1563          65.00       254.58
  295.05        2975.75           1566          64.00       250.22
  295.08        2976.00           1569          64.00       250.22
  295.11        2976.25           1573          58.00       224.06
  295.14        2976.50           1576          62.00       241.50
  295.17        2976.75           1579          55.00       210.99
  295.20        2977.00           1583          71.00       280.73
  295.23        2977.25           1586          61.00       237.14
  295.26        2977.50           1590          66.00       258.94
  295.29        2977.75           1593          60.00       232.78
  295.32        2978.00           1596          61.00       237.14
  295.35        2978.25           1600          67.00       263.30
  295.38        2978.50           1603          68.00       267.66
  295.42        2978.75           1606          65.00       254.58
  295.45        2979.00           1610          69.00       272.02
  295.48        2979.25           1613          65.00       254.58
  295.51        2979.50           1616          75.00       298.17
  295.54        2979.75           1620          56.00       215.35
  295.57        2980.00           1623          62.00       241.50
  295.60        2980.25           1626          62.00       241.50
  295.63        2980.50           1630          58.00       224.06
  295.66        2980.75           1633          54.00       206.63
  295.69        2981.00           1637          69.00       272.02
  295.72        2981.25           1640          53.00       202.27
  295.75        2981.50           1643          58.00       224.06
  295.78        2981.75           1647          66.00       258.94
  295.81        2982.00           1650          58.00       224.06
  295.84        2982.25           1653          56.00       215.35
  295.88        2982.50           1657          63.00       245.86
  295.91        2982.75           1660          60.00       232.78
  295.94        2983.00           1663          61.00       237.14
  295.97        2983.25           1667          56.00       215.35
  296.00        2983.50           1670          61.00       237.14
  296.03        2983.75           1673          67.00       263.30
  296.06        2984.00           1677          59.00       228.42
HS scan finished at 04:56:17
end
************************************************************
  HS Scan of (1) Internal mercury lamp
************************************************************
Integration time is 0.2294 seconds per sample
dh201117Manchester 53.47 2.23 2.804185pr1000
************************************************************
Dead Time -------------------------  3E-08 
Number of Cycles Used -------------  4 
Starting Wavelength (Angstroms) ---  2950 
Final Wavelength (Angstoms) -------  2984 
Wavelength Increment (Angstroms) --  .25 
Filter Wheel #1 Position ---------- (1) Ground quartz diffuser (ND=2.32)
Filter Wheel #2 Position ---------- (1) Neutral Density 0.494



************************************************************
HS scan start time = 17:11:59
Dark Count =  5.2 


Time (GMT)  Wavelength (Ang)  Step Number  Raw Counts  Counts/Second

 1032.36        2950.00           1222          66.00       265.04
 1032.42        2950.25           1226          61.00       243.25
 1032.45        2950.50           1229          62.00       247.60
 1032.49        2950.75           1232          60.00       238.89
 1032.52        2951.00           1236          64.00       256.32
 1032.55        2951.25           1239          66.00       265.04
 1032.58        2951.50           1242          71.00       286.84
 1032.61        2951.75           1246          74.00       299.92
 1032.64        2952.00           1249          68.00       273.76
 1032.67        2952.25           1252          63.00       251.96
 1032.70        2952.50           1256          66.00       265.04
 1032.73        2952.75           1259          67.00       269.40
 1032.76        2953.00           1262          65.00       260.68
 1032.79        2953.25           1266          60.00       238.89
 1032.82        2953.50           1269          66.00       265.04
 1032.86        2953.75           1272          64.00       256.32
 1032.89        2954.00           1276          66.00       265.04
 1032.92        2954.25           1279          57.00       225.81
 1032.95        2954.50           1282          69.00       278.12
 1032.98        2954.75           1286          63.00       251.96
 1033.01        2955.00           1289          65.00       260.68
 1033.04        2955.25           1292          64.00       256.32
 1033.07        2955.50           1296          71.00       286.84
 1033.10        2955.75           1299          63.00       251.96
 1033.13        2956.00           1302          69.00       278.12
 1033.16        2956.25           1306          62.00       247.60
 1033.20        2956.50           1309          64.00       256.32
 1033.23        2956.75           1312          55.00       217.09
 1033.26        2957.00           1316          68.00       273.76
 1033.29        2957.25           1319          68.00       273.76
 1033.32        2957.50           1322          62.00       247.60
 1033.35        2957.75           1326          68.00       273.76
 1033.38        2958.00           1329          65.00       260.68
 1033.41        2958.25           1332          69.00       278.12
 1033.44        2958.50           1336          67.00       269.40
 1033.47        2958.75           1339          60.00       238.89
 1033.50        2959.00           1342          73.00       295.56
 1033.54        2959.25           1346          67.00       269.40
 1033.57        2959.50           1349          89.00       365.30
 1033.60        2959.75           1352          88.00       360.95
 1033.63        2960.00           1356         120.00       500.44
 1033.66        2960.25           1359         161.00       679.18
 1033.69        2960.50           1362         207.00       879.71
 1033.72        2960.75           1366         252.00      1075.88
 1033.75        2961.00           1369         287.00      1228.47
 1033.78        2961.25           1372         334.00      1433.37
 1033.81        2961.50           1376         418.00      1799.57
 1033.85        2961.75           1379         606.00      2619.21
 1033.88        2962.00           1382        1372.00      5959.22
 1033.91        2962.25           1386        3158.00     13749.35
 1033.94        2962.50           1389        4597.00     20028.60
 1033.97        2962.75           1392        6086.00     26528.52
 1034.00        2963.00           1396        8127.00     35442.20
 1034.03        2963.25           1399        9681.00     42232.20
 1034.06        2963.50           1402       11146.00     48635.87
 1034.09        2963.75           1406       13255.00     57858.84
 1034.12        2964.00           1409       14846.00     64819.91
 1034.16        2964.25           1412       16365.00     71468.68
 1034.19        2964.50           1416       18578.00     81159.88
 1034.22        2964.75           1419       20119.00     87911.59
 1034.25        2965.00           1422       21679.00     94749.33
 1034.28        2965.25           1426       23807.00    104081.30
 1034.31        2965.50           1429       25605.00    111970.10
 1034.34        2965.75           1432       27230.00    119103.10
 1034.37        2966.00           1436       29079.00    127223.10
 1034.40        2966.25           1439       30461.00    133294.80
 1034.44        2966.50           1442       31891.00    139579.80
 1034.47        2966.75           1446       33195.00    145313.00
 1034.50        2967.00           1449       33532.00    146795.00
 1034.53        2967.25           1452       33478.00    146557.50
 1034.56        2967.50           1456       33511.00    146702.60
 1034.59        2967.75           1459       33467.00    146509.10
 1034.62        2968.00           1462       33151.00    145119.50
 1034.65        2968.25           1466       31980.00    139971.00
 1034.69        2968.50           1469       30470.00    133334.40
 1034.72        2968.75           1472       29015.00    126942.00
 1034.75        2969.00           1476       27056.00    118339.20
 1034.78        2969.25           1479       25554.00    111746.30
 1034.81        2969.50           1482       23974.00    104813.80
 1034.84        2969.75           1486       22086.00     96533.75
 1034.87        2970.00           1489       20530.00     89712.80
 1034.90        2970.25           1492       19173.00     83766.49
 1034.93        2970.50           1496       17192.00     75089.63
 1034.97        2970.75           1499       15503.00     67695.31
 1035.00        2971.00           1502       14059.00     61376.21
 1035.03        2971.25           1506       11827.00     51613.42
 1035.06        2971.50           1509       10348.00     45147.42
 1035.09        2971.75           1513        8129.00     35450.94
 1035.12        2972.00           1516        6648.00     28982.47
 1035.15        2972.25           1519        5164.00     22503.42
 1035.18        2972.50           1523        3283.00     14294.71
 1035.21        2972.75           1526        1865.00      8109.21
 1035.24        2973.00           1529         769.00      3329.89
 1035.27        2973.25           1533         401.00      1725.46
 1035.31        2973.50           1536         328.00      1407.21
 1035.34        2973.75           1539         286.00      1224.11
 1035.37        2974.00           1543         240.00      1023.57
 1035.40        2974.25           1546         169.00       714.05
 1035.43        2974.50           1549         127.00       530.96
 1035.46        2974.75           1553         104.00       430.69
 1035.49        2975.00           1556          71.00       286.84
 1035.52        2975.25           1559          66.00       265.04
 1035.55        2975.50           1563          66.00       265.04
 1035.58        2975.75           1566          64.00       256.32
 1035.61        2976.00           1569          63.00       251.96
 1035.65        2976.25           1573          57.00       225.81
 1035.68        2976.50           1576          68.00       273.76
 1035.71        2976.75           1579          68.00       273.76
 1035.74        2977.00           1583          67.00       269.40
 1035.77        2977.25           1586          60.00       238.89
 1035.80        2977.50           1590          65.00       260.68
 1035.83        2977.75           1593          58.00       230.17
 1035.86        2978.00           1596          63.00       251.96
 1035.89        2978.25           1600          57.00       225.81
 1035.92        2978.50           1603          61.00       243.25
 1035.95        2978.75           1606          58.00       230.17
 1035.98        2979.00           1610          58.00       230.17
 1036.01        2979.25           1613          53.00       208.37
 1036.04        2979.50           1616          61.00       243.25
 1036.08        2979.75           1620          65.00       260.68
 1036.11        2980.00           1623          58.00       230.17
 1036.14        2980.25           1626          59.00       234.53
 1036.17        2980.50           1630          62.00       247.60
 1036.20        2980.75           1633          63.00       251.96
 1036.23        2981.00           1637          54.00       212.73
 1036.26        2981.25           1640          57.00       225.81
 1036.29        2981.50           1643          53.00       208.37
 1036.32        2981.75           1647          60.00       238.89
 1036.35        2982.00           1650          62.00       247.60
 1036.38        2982.25           1653          54.00       212.73
 1036.41        2982.50           1657          63.00       251.96
 1036.44        2982.75           1660          59.00       234.53
 1036.47        2983.00           1663          62.00       247.60
 1036.50        2983.25           1667          63.00       251.96
 1036.54        2983.50           1670          57.00       225.81
 1036.57        2983.75           1673          56.00       221.45
 1036.60        2984.00           1677          65.00       260.68
HS scan finished at 17:16:49
end
