************************************************************
  HS Scan of (1) Internal mercury lamp
************************************************************
Integration time is 0.2294 seconds per sample
dh161117Manchester 53.47 2.23 2.804185pr1000
************************************************************
Dead Time -------------------------  3E-08 
Number of Cycles Used -------------  4 
Starting Wavelength (Angstroms) ---  2950 
Final Wavelength (Angstoms) -------  2984 
Wavelength Increment (Angstroms) --  .25 
Filter Wheel #1 Position ---------- (1) Ground quartz diffuser (ND=2.32)
Filter Wheel #2 Position ---------- (1) Neutral Density 0.494



************************************************************
HS scan start time = 04:45:30
Dark Count =  5.7 


Time (GMT)  Wavelength (Ang)  Step Number  Raw Counts  Counts/Second

  285.87        2950.00           1222          72.00       289.02
  285.94        2950.25           1226          71.00       284.66
  285.97        2950.50           1229          73.00       293.38
  286.00        2950.75           1232          70.00       280.30
  286.03        2951.00           1236          68.00       271.58
  286.06        2951.25           1239          70.00       280.30
  286.09        2951.50           1242          70.00       280.30
  286.12        2951.75           1246          67.00       267.22
  286.15        2952.00           1249          69.00       275.94
  286.18        2952.25           1252          58.00       227.99
  286.21        2952.50           1256          60.00       236.71
  286.25        2952.75           1259          68.00       271.58
  286.28        2953.00           1262          69.00       275.94
  286.31        2953.25           1266          73.00       293.38
  286.34        2953.50           1269          71.00       284.66
  286.37        2953.75           1272          63.00       249.78
  286.40        2954.00           1276          66.00       262.86
  286.43        2954.25           1279          66.00       262.86
  286.46        2954.50           1282          63.00       249.78
  286.49        2954.75           1286          67.00       267.22
  286.52        2955.00           1289          69.00       275.94
  286.55        2955.25           1292          61.00       241.07
  286.59        2955.50           1296          70.00       280.30
  286.62        2955.75           1299          65.00       258.50
  286.65        2956.00           1302          72.00       289.02
  286.68        2956.25           1306          66.00       262.86
  286.71        2956.50           1309          68.00       271.58
  286.74        2956.75           1312          61.00       241.07
  286.77        2957.00           1316          61.00       241.07
  286.80        2957.25           1319          59.00       232.35
  286.83        2957.50           1322          79.00       319.53
  286.86        2957.75           1326          66.00       262.86
  286.89        2958.00           1329          67.00       267.22
  286.92        2958.25           1332          69.00       275.94
  286.96        2958.50           1336          74.00       297.74
  286.99        2958.75           1339          68.00       271.58
  287.02        2959.00           1342          63.00       249.78
  287.05        2959.25           1346          64.00       254.14
  287.08        2959.50           1349          69.00       275.94
  287.11        2959.75           1352          78.00       315.17
  287.14        2960.00           1356         107.00       441.59
  287.17        2960.25           1359         152.00       637.76
  287.20        2960.50           1362         186.00       785.98
  287.23        2960.75           1366         227.00       964.72
  287.26        2961.00           1369         259.00      1104.22
  287.29        2961.25           1372         305.00      1304.76
  287.33        2961.50           1376         359.00      1540.18
  287.36        2961.75           1379         466.00      2006.66
  287.39        2962.00           1382         802.00      3471.59
  287.42        2962.25           1386        2327.00     10122.08
  287.45        2962.50           1389        3792.00     16513.41
  287.48        2962.75           1392        5200.00     22658.38
  287.51        2963.00           1396        7233.00     31535.05
  287.54        2963.25           1399        8706.00     37969.56
  287.57        2963.50           1402       10253.00     44729.99
  287.60        2963.75           1406       12395.00     54095.13
  287.64        2964.00           1409       13763.00     60078.98
  287.67        2964.25           1412       15540.00     67855.08
  287.70        2964.50           1416       17517.00     76510.65
  287.73        2964.75           1419       19059.00     83264.84
  287.76        2965.00           1422       20964.00     91612.83
  287.79        2965.25           1426       22858.00     99916.76
  287.82        2965.50           1429       24423.00    106781.40
  287.85        2965.75           1432       26028.00    113824.40
  287.88        2966.00           1436       28012.00    122534.60
  287.91        2966.25           1439       29286.00    128130.20
  287.94        2966.50           1442       30730.00    134474.70
  287.97        2966.75           1446       32429.00    141942.70
  288.01        2967.00           1449       33329.00    145900.10
  288.04        2967.25           1452       33433.00    146357.40
  288.07        2967.50           1456       33593.00    147061.10
  288.10        2967.75           1459       33637.00    147254.60
  288.13        2968.00           1462       33512.00    146704.90
  288.16        2968.25           1466       33022.00    144550.10
  288.19        2968.50           1469       31758.00    138992.90
  288.22        2968.75           1472       30211.00    132194.10
  288.25        2969.00           1476       28382.00    124159.50
  288.29        2969.25           1479       27014.00    118152.60
  288.32        2969.50           1482       25561.00    111774.80
  288.35        2969.75           1486       23597.00    103157.90
  288.38        2970.00           1489       21956.00     95961.57
  288.41        2970.25           1492       20451.00     89364.38
  288.44        2970.50           1496       18321.00     80031.95
  288.47        2970.75           1499       16757.00     73182.73
  288.50        2971.00           1502       15196.00     66349.46
  288.54        2971.25           1506       13078.00     57082.42
  288.57        2971.50           1509       11383.00     49669.86
  288.60        2971.75           1513        9394.00     40975.80
  288.63        2972.00           1516        7913.00     34505.18
  288.66        2972.25           1519        6616.00     28840.55
  288.69        2972.50           1523        4476.00     19498.32
  288.72        2972.75           1526        2966.00     12909.53
  288.75        2973.00           1529        1639.00      7121.40
  288.78        2973.25           1533         543.00      2342.36
  288.81        2973.50           1536         346.00      1483.50
  288.84        2973.75           1539         303.00      1296.04
  288.87        2974.00           1543         256.00      1091.14
  288.90        2974.25           1546         188.00       794.70
  288.94        2974.50           1549         131.00       546.22
  288.97        2974.75           1553          94.00       384.92
  289.00        2975.00           1556          83.00       336.97
  289.03        2975.25           1559          70.00       280.30
  289.06        2975.50           1563          61.00       241.07
  289.09        2975.75           1566          62.00       245.42
  289.12        2976.00           1569          52.00       201.83
  289.15        2976.25           1573          63.00       249.78
  289.18        2976.50           1576          71.00       284.66
  289.21        2976.75           1579          59.00       232.35
  289.24        2977.00           1583          77.00       310.81
  289.27        2977.25           1586          60.00       236.71
  289.31        2977.50           1590          62.00       245.42
  289.34        2977.75           1593          59.00       232.35
  289.37        2978.00           1596          63.00       249.78
  289.40        2978.25           1600          65.00       258.50
  289.43        2978.50           1603          63.00       249.78
  289.46        2978.75           1606          53.00       206.19
  289.49        2979.00           1610          69.00       275.94
  289.52        2979.25           1613          57.00       223.63
  289.55        2979.50           1616          68.00       271.58
  289.58        2979.75           1620          67.00       267.22
  289.61        2980.00           1623          64.00       254.14
  289.64        2980.25           1626          67.00       267.22
  289.68        2980.50           1630          55.00       214.91
  289.71        2980.75           1633          63.00       249.78
  289.74        2981.00           1637          57.00       223.63
  289.77        2981.25           1640          57.00       223.63
  289.80        2981.50           1643          57.00       223.63
  289.83        2981.75           1647          61.00       241.07
  289.86        2982.00           1650          55.00       214.91
  289.89        2982.25           1653          53.00       206.19
  289.92        2982.50           1657          59.00       232.35
  289.95        2982.75           1660          62.00       245.42
  289.99        2983.00           1663          63.00       249.78
  290.02        2983.25           1667          56.00       219.27
  290.05        2983.50           1670          56.00       219.27
  290.08        2983.75           1673          59.00       232.35
  290.11        2984.00           1677          57.00       223.63
HS scan finished at 04:50:20
end
************************************************************
  HS Scan of (1) Internal mercury lamp
************************************************************
Integration time is 0.2294 seconds per sample
dh161117Manchester 53.47 2.23 2.804185pr1000
************************************************************
Dead Time -------------------------  3E-08 
Number of Cycles Used -------------  4 
Starting Wavelength (Angstroms) ---  2950 
Final Wavelength (Angstoms) -------  2984 
Wavelength Increment (Angstroms) --  .25 
Filter Wheel #1 Position ---------- (1) Ground quartz diffuser (ND=2.32)
Filter Wheel #2 Position ---------- (1) Neutral Density 0.494



************************************************************
HS scan start time = 17:12:03
Dark Count =  5.7 


Time (GMT)  Wavelength (Ang)  Step Number  Raw Counts  Counts/Second

 1032.42        2950.00           1222          64.00       254.14
 1032.49        2950.25           1226          61.00       241.07
 1032.52        2950.50           1229          59.00       232.35
 1032.55        2950.75           1232          62.00       245.42
 1032.58        2951.00           1236          66.00       262.86
 1032.61        2951.25           1239          64.00       254.14
 1032.64        2951.50           1242          68.00       271.58
 1032.67        2951.75           1246          64.00       254.14
 1032.70        2952.00           1249          61.00       241.07
 1032.73        2952.25           1252          66.00       262.86
 1032.76        2952.50           1256          58.00       227.99
 1032.79        2952.75           1259          62.00       245.42
 1032.82        2953.00           1262          65.00       258.50
 1032.85        2953.25           1266          65.00       258.50
 1032.88        2953.50           1269          58.00       227.99
 1032.91        2953.75           1272          66.00       262.86
 1032.94        2954.00           1276          66.00       262.86
 1032.97        2954.25           1279          78.00       315.17
 1033.01        2954.50           1282          57.00       223.63
 1033.04        2954.75           1286          71.00       284.66
 1033.07        2955.00           1289          63.00       249.78
 1033.10        2955.25           1292          59.00       232.35
 1033.13        2955.50           1296          71.00       284.66
 1033.16        2955.75           1299          59.00       232.35
 1033.19        2956.00           1302          58.00       227.99
 1033.22        2956.25           1306          66.00       262.86
 1033.25        2956.50           1309          57.00       223.63
 1033.28        2956.75           1312          62.00       245.42
 1033.31        2957.00           1316          62.00       245.42
 1033.34        2957.25           1319          61.00       241.07
 1033.37        2957.50           1322          70.00       280.30
 1033.41        2957.75           1326          61.00       241.07
 1033.44        2958.00           1329          63.00       249.78
 1033.47        2958.25           1332          59.00       232.35
 1033.50        2958.50           1336          67.00       267.22
 1033.53        2958.75           1339          69.00       275.94
 1033.56        2959.00           1342          79.00       319.53
 1033.59        2959.25           1346          68.00       271.58
 1033.62        2959.50           1349          71.00       284.66
 1033.65        2959.75           1352          88.00       358.77
 1033.68        2960.00           1356         121.00       502.62
 1033.72        2960.25           1359         151.00       633.40
 1033.75        2960.50           1362         191.00       807.78
 1033.78        2960.75           1366         241.00      1025.75
 1033.81        2961.00           1369         281.00      1200.13
 1033.84        2961.25           1372         315.00      1348.35
 1033.87        2961.50           1376         394.00      1692.76
 1033.90        2961.75           1379         639.00      2760.91
 1033.93        2962.00           1382        1411.00      6127.11
 1033.96        2962.25           1386        3176.00     13825.70
 1033.99        2962.50           1389        4541.00     19782.01
 1034.03        2962.75           1392        6002.00     26159.58
 1034.06        2963.00           1396        7905.00     34470.24
 1034.09        2963.25           1399        9469.00     41303.55
 1034.12        2963.50           1402       11009.00     48034.74
 1034.15        2963.75           1406       13069.00     57043.05
 1034.18        2964.00           1409       14774.00     64502.64
 1034.21        2964.25           1412       16571.00     72368.38
 1034.24        2964.50           1416       18535.00     80969.33
 1034.27        2964.75           1419       20063.00     87663.99
 1034.31        2965.00           1422       21964.00     95996.64
 1034.34        2965.25           1426       23821.00    104140.50
 1034.37        2965.50           1429       25390.00    111024.40
 1034.40        2965.75           1432       26804.00    117230.70
 1034.43        2966.00           1436       28827.00    126114.00
 1034.46        2966.25           1439       30199.00    132141.40
 1034.49        2966.50           1442       31703.00    138751.20
 1034.52        2966.75           1446       32854.00    143811.40
 1034.56        2967.00           1449       33182.00    145253.60
 1034.59        2967.25           1452       33268.00    145631.80
 1034.62        2967.50           1456       33114.00    144954.60
 1034.65        2967.75           1459       33147.00    145099.80
 1034.68        2968.00           1462       33116.00    144963.40
 1034.71        2968.25           1466       31852.00    139406.10
 1034.74        2968.50           1469       30303.00    132598.40
 1034.77        2968.75           1472       29169.00    127616.20
 1034.80        2969.00           1476       27092.00    118495.00
 1034.84        2969.25           1479       25617.00    112020.60
 1034.87        2969.50           1482       24161.00    105632.00
 1034.90        2969.75           1486       21978.00     96058.03
 1034.93        2970.00           1489       20488.00     89526.53
 1034.96        2970.25           1492       19214.00     83943.92
 1034.99        2970.50           1496       17103.00     74697.73
 1035.02        2970.75           1499       15473.00     67561.83
 1035.05        2971.00           1502       13966.00     60967.12
 1035.08        2971.25           1506       11795.00     51471.31
 1035.11        2971.50           1509       10289.00     44887.35
 1035.14        2971.75           1513        8314.00     36256.94
 1035.18        2972.00           1516        6951.00     30303.48
 1035.21        2972.25           1519        5459.00     23788.99
 1035.24        2972.50           1523        3423.00     14903.35
 1035.27        2972.75           1526        1951.00      8482.11
 1035.30        2973.00           1529         834.00      3611.11
 1035.33        2973.25           1533         415.00      1784.32
 1035.36        2973.50           1536         312.00      1335.28
 1035.39        2973.75           1539         277.00      1182.69
 1035.42        2974.00           1543         215.00       912.41
 1035.45        2974.25           1546         181.00       764.18
 1035.48        2974.50           1549         129.00       537.50
 1035.51        2974.75           1553          94.00       384.92
 1035.54        2975.00           1556          78.00       315.17
 1035.58        2975.25           1559          68.00       271.58
 1035.61        2975.50           1563          65.00       258.50
 1035.64        2975.75           1566          59.00       232.35
 1035.67        2976.00           1569          63.00       249.78
 1035.70        2976.25           1573          58.00       227.99
 1035.73        2976.50           1576          71.00       284.66
 1035.76        2976.75           1579          58.00       227.99
 1035.79        2977.00           1583          61.00       241.07
 1035.82        2977.25           1586          64.00       254.14
 1035.85        2977.50           1590          69.00       275.94
 1035.88        2977.75           1593          65.00       258.50
 1035.91        2978.00           1596          62.00       245.42
 1035.94        2978.25           1600          67.00       267.22
 1035.97        2978.50           1603          61.00       241.07
 1036.01        2978.75           1606          53.00       206.19
 1036.04        2979.00           1610          68.00       271.58
 1036.07        2979.25           1613          60.00       236.71
 1036.10        2979.50           1616          57.00       223.63
 1036.13        2979.75           1620          53.00       206.19
 1036.16        2980.00           1623          56.00       219.27
 1036.19        2980.25           1626          60.00       236.71
 1036.22        2980.50           1630          63.00       249.78
 1036.25        2980.75           1633          59.00       232.35
 1036.28        2981.00           1637          58.00       227.99
 1036.31        2981.25           1640          63.00       249.78
 1036.34        2981.50           1643          63.00       249.78
 1036.37        2981.75           1647          54.00       210.55
 1036.41        2982.00           1650          58.00       227.99
 1036.44        2982.25           1653          62.00       245.42
 1036.47        2982.50           1657          61.00       241.07
 1036.50        2982.75           1660          50.00       193.11
 1036.53        2983.00           1663          67.00       267.22
 1036.56        2983.25           1667          58.00       227.99
 1036.59        2983.50           1670          59.00       232.35
 1036.62        2983.75           1673          58.00       227.99
 1036.65        2984.00           1677          61.00       241.07
HS scan finished at 17:16:52
end
