************************************************************
  HS Scan of (1) Internal mercury lamp
************************************************************
Integration time is 0.2294 seconds per sample
dh051218Manchester 53.47 2.23 2.804185pr1000
************************************************************
Dead Time -------------------------  3E-08 
Number of Cycles Used -------------  4 
Starting Wavelength (Angstroms) ---  2950 
Final Wavelength (Angstoms) -------  2984 
Wavelength Increment (Angstroms) --  .25 
Filter Wheel #1 Position ---------- (1) Ground quartz diffuser (ND=2.32)
Filter Wheel #2 Position ---------- (1) Neutral Density 0.494



************************************************************
HS scan start time = 05:10:02
Dark Count =  7.1 


Time (GMT)  Wavelength (Ang)  Step Number  Raw Counts  Counts/Second

  310.40        2950.00           1222          51.00       191.37
  310.47        2950.25           1226          60.00       230.60
  310.50        2950.50           1229          54.00       204.45
  310.53        2950.75           1232          49.00       182.65
  310.56        2951.00           1236          52.00       195.73
  310.59        2951.25           1239          56.00       213.17
  310.62        2951.50           1242          57.00       217.53
  310.65        2951.75           1246          66.00       256.76
  310.69        2952.00           1249          57.00       217.53
  310.72        2952.25           1252          45.00       165.21
  310.75        2952.50           1256          60.00       230.60
  310.78        2952.75           1259          56.00       213.17
  310.81        2953.00           1262          51.00       191.37
  310.84        2953.25           1266          60.00       230.60
  310.87        2953.50           1269          59.00       226.24
  310.90        2953.75           1272          54.00       204.45
  310.93        2954.00           1276          53.00       200.09
  310.96        2954.25           1279          54.00       204.45
  310.99        2954.50           1282          47.00       173.93
  311.02        2954.75           1286          54.00       204.45
  311.05        2955.00           1289          50.00       187.01
  311.09        2955.25           1292          49.00       182.65
  311.12        2955.50           1296          55.00       208.81
  311.15        2955.75           1299          50.00       187.01
  311.18        2956.00           1302          47.00       173.93
  311.21        2956.25           1306          50.00       187.01
  311.24        2956.50           1309          64.00       248.04
  311.27        2956.75           1312          47.00       173.93
  311.30        2957.00           1316          52.00       195.73
  311.33        2957.25           1319          51.00       191.37
  311.36        2957.50           1322          48.00       178.29
  311.39        2957.75           1326          55.00       208.81
  311.42        2958.00           1329          56.00       213.17
  311.45        2958.25           1332          53.00       200.09
  311.49        2958.50           1336          46.00       169.57
  311.52        2958.75           1339          51.00       191.37
  311.55        2959.00           1342          53.00       200.09
  311.58        2959.25           1346          54.00       204.45
  311.61        2959.50           1349          58.00       221.88
  311.64        2959.75           1352          76.00       300.35
  311.67        2960.00           1356          82.00       326.51
  311.70        2960.25           1359          95.00       383.18
  311.73        2960.50           1362         114.00       466.00
  311.76        2960.75           1366         155.00       644.74
  311.80        2961.00           1369         196.00       823.47
  311.83        2961.25           1372         216.00       910.66
  311.86        2961.50           1376         257.00      1089.40
  311.89        2961.75           1379         316.00      1346.61
  311.92        2962.00           1382         621.00      2676.33
  311.95        2962.25           1386        1679.00      7289.74
  311.98        2962.50           1389        2728.00     11865.16
  312.01        2962.75           1392        3651.00     15892.06
  312.04        2963.00           1396        4943.00     21530.47
  312.08        2963.25           1399        5956.00     25952.63
  312.11        2963.50           1402        7044.00     30703.51
  312.14        2963.75           1406        8488.00     37011.00
  312.17        2964.00           1409        9468.00     41293.06
  312.20        2964.25           1412       10731.00     46813.30
  312.23        2964.50           1416       12224.00     53341.17
  312.26        2964.75           1419       13329.00     58174.24
  312.29        2965.00           1422       14391.00     62820.55
  312.32        2965.25           1426       15868.00     69284.66
  312.35        2965.50           1429       17012.00     74293.13
  312.38        2965.75           1432       18213.00     79552.76
  312.42        2966.00           1436       19443.00     84941.11
  312.45        2966.25           1439       20451.00     89358.24
  312.48        2966.50           1442       21484.00     93886.13
  312.51        2966.75           1446       22536.00     98498.57
  312.54        2967.00           1449       22899.00    100090.40
  312.57        2967.25           1452       22895.00    100072.90
  312.60        2967.50           1456       22925.00    100204.40
  312.63        2967.75           1459       22979.00    100441.30
  312.66        2968.00           1462       22935.00    100248.30
  312.70        2968.25           1466       22331.00     97599.66
  312.73        2968.50           1469       21441.00     93697.62
  312.76        2968.75           1472       20594.00     89984.97
  312.79        2969.00           1476       19099.00     83433.95
  312.82        2969.25           1479       18295.00     79911.93
  312.85        2969.50           1482       17168.00     74976.22
  312.88        2969.75           1486       15807.00     69017.65
  312.91        2970.00           1489       14753.00     64404.62
  312.94        2970.25           1492       13657.00     59609.12
  312.98        2970.50           1496       12273.00     53555.47
  313.01        2970.75           1499       11201.00     48868.02
  313.04        2971.00           1502       10175.00     44382.95
  313.07        2971.25           1506        8706.00     37963.44
  313.10        2971.50           1509        7561.00     32961.52
  313.13        2971.75           1513        6290.00     27410.94
  313.16        2972.00           1516        5253.00     22883.62
  313.19        2972.25           1519        4365.00     19007.79
  313.22        2972.50           1523        2871.00     12488.99
  313.26        2972.75           1526        1980.00      8602.48
  313.29        2973.00           1529        1050.00      4546.83
  313.32        2973.25           1533         377.00      1612.55
  313.35        2973.50           1536         248.00      1050.16
  313.38        2973.75           1539         212.00       893.22
  313.41        2974.00           1543         190.00       797.32
  313.44        2974.25           1546         127.00       522.68
  313.47        2974.50           1549         104.00       422.41
  313.50        2974.75           1553          74.00       291.63
  313.53        2975.00           1556          60.00       230.60
  313.56        2975.25           1559          57.00       217.53
  313.59        2975.50           1563          57.00       217.53
  313.63        2975.75           1566          56.00       213.17
  313.66        2976.00           1569          55.00       208.81
  313.69        2976.25           1573          49.00       182.65
  313.72        2976.50           1576          47.00       173.93
  313.75        2976.75           1579          55.00       208.81
  313.78        2977.00           1583          54.00       204.45
  313.81        2977.25           1586          51.00       191.37
  313.84        2977.50           1590          50.00       187.01
  313.87        2977.75           1593          52.00       195.73
  313.90        2978.00           1596          56.00       213.17
  313.93        2978.25           1600          46.00       169.57
  313.96        2978.50           1603          49.00       182.65
  313.99        2978.75           1606          43.00       156.50
  314.03        2979.00           1610          54.00       204.45
  314.06        2979.25           1613          45.00       165.21
  314.09        2979.50           1616          48.00       178.29
  314.12        2979.75           1620          50.00       187.01
  314.15        2980.00           1623          52.00       195.73
  314.18        2980.25           1626          56.00       213.17
  314.21        2980.50           1630          59.00       226.24
  314.24        2980.75           1633          46.00       169.57
  314.27        2981.00           1637          50.00       187.01
  314.30        2981.25           1640          49.00       182.65
  314.33        2981.50           1643          42.00       152.14
  314.36        2981.75           1647          55.00       208.81
  314.39        2982.00           1650          49.00       182.65
  314.42        2982.25           1653          41.00       147.78
  314.45        2982.50           1657          51.00       191.37
  314.49        2982.75           1660          50.00       187.01
  314.52        2983.00           1663          44.00       160.86
  314.55        2983.25           1667          55.00       208.81
  314.58        2983.50           1670          51.00       191.37
  314.61        2983.75           1673          43.00       156.50
  314.64        2984.00           1677          47.00       173.93
HS scan finished at 05:14:51
end
************************************************************
  HS Scan of (1) Internal mercury lamp
************************************************************
Integration time is 0.2294 seconds per sample
dh051218Manchester 53.47 2.23 2.804185pr1000
************************************************************
Dead Time -------------------------  3E-08 
Number of Cycles Used -------------  4 
Starting Wavelength (Angstroms) ---  2950 
Final Wavelength (Angstoms) -------  2984 
Wavelength Increment (Angstroms) --  .25 
Filter Wheel #1 Position ---------- (1) Ground quartz diffuser (ND=2.32)
Filter Wheel #2 Position ---------- (1) Neutral Density 0.494



************************************************************
HS scan start time = 16:42:05
Dark Count =  7.4 


Time (GMT)  Wavelength (Ang)  Step Number  Raw Counts  Counts/Second

 1002.45        2950.00           1222          54.00       203.14
 1002.52        2950.25           1226          52.00       194.42
 1002.55        2950.50           1229          52.00       194.42
 1002.58        2950.75           1232          61.00       233.65
 1002.61        2951.00           1236          55.00       207.50
 1002.64        2951.25           1239          59.00       224.94
 1002.67        2951.50           1242          59.00       224.94
 1002.70        2951.75           1246          49.00       181.34
 1002.73        2952.00           1249          51.00       190.06
 1002.76        2952.25           1252          52.00       194.42
 1002.79        2952.50           1256          54.00       203.14
 1002.82        2952.75           1259          56.00       211.86
 1002.86        2953.00           1262          54.00       203.14
 1002.89        2953.25           1266          53.00       198.78
 1002.92        2953.50           1269          59.00       224.94
 1002.95        2953.75           1272          51.00       190.06
 1002.98        2954.00           1276          54.00       203.14
 1003.01        2954.25           1279          52.00       194.42
 1003.04        2954.50           1282          65.00       251.09
 1003.07        2954.75           1286          56.00       211.86
 1003.10        2955.00           1289          49.00       181.34
 1003.13        2955.25           1292          56.00       211.86
 1003.16        2955.50           1296          53.00       198.78
 1003.19        2955.75           1299          52.00       194.42
 1003.23        2956.00           1302          53.00       198.78
 1003.26        2956.25           1306          53.00       198.78
 1003.29        2956.50           1309          58.00       220.58
 1003.32        2956.75           1312          53.00       198.78
 1003.35        2957.00           1316          57.00       216.22
 1003.38        2957.25           1319          52.00       194.42
 1003.41        2957.50           1322          52.00       194.42
 1003.44        2957.75           1326          55.00       207.50
 1003.47        2958.00           1329          65.00       251.09
 1003.50        2958.25           1332          53.00       198.78
 1003.53        2958.50           1336          52.00       194.42
 1003.56        2958.75           1339          50.00       185.70
 1003.59        2959.00           1342          55.00       207.50
 1003.62        2959.25           1346          51.00       190.06
 1003.65        2959.50           1349          51.00       190.06
 1003.68        2959.75           1352          73.00       285.97
 1003.71        2960.00           1356          88.00       351.36
 1003.75        2960.25           1359         101.00       408.03
 1003.78        2960.50           1362         139.00       573.68
 1003.81        2960.75           1366         166.00       691.38
 1003.84        2961.00           1369         192.00       804.73
 1003.87        2961.25           1372         235.00       992.18
 1003.90        2961.50           1376         276.00      1170.92
 1003.93        2961.75           1379         340.00      1449.93
 1003.96        2962.00           1382         690.00      2975.85
 1003.99        2962.25           1386        1721.00      7471.60
 1004.02        2962.50           1389        2755.00     11981.64
 1004.05        2962.75           1392        3733.00     16248.55
 1004.09        2963.00           1396        5168.00     22511.28
 1004.12        2963.25           1399        6177.00     26916.23
 1004.15        2963.50           1402        7367.00     32112.88
 1004.18        2963.75           1406        8694.00     37909.70
 1004.21        2964.00           1409        9752.00     42532.88
 1004.24        2964.25           1412       10801.00     47117.99
 1004.27        2964.50           1416       12330.00     53803.43
 1004.30        2964.75           1419       13344.00     58238.55
 1004.33        2965.00           1422       14497.00     63283.07
 1004.36        2965.25           1426       15807.00     69016.34
 1004.40        2965.50           1429       17014.00     74300.56
 1004.43        2965.75           1432       18049.00     78833.13
 1004.46        2966.00           1436       19516.00     85259.65
 1004.49        2966.25           1439       20410.00     89177.22
 1004.52        2966.50           1442       21568.00     94253.06
 1004.55        2966.75           1446       22710.00     99260.27
 1004.58        2967.00           1449       22964.00    100374.20
 1004.61        2967.25           1452       23147.00    101176.70
 1004.64        2967.50           1456       23211.00    101457.40
 1004.68        2967.75           1459       23146.00    101172.40
 1004.71        2968.00           1462       23148.00    101181.10
 1004.74        2968.25           1466       22680.00     99128.71
 1004.77        2968.50           1469       21880.00     95620.90
 1004.80        2968.75           1472       20851.00     91110.06
 1004.83        2969.00           1476       19496.00     85172.02
 1004.86        2969.25           1479       18371.00     80243.51
 1004.89        2969.50           1482       17295.00     75531.03
 1004.92        2969.75           1486       15933.00     69567.88
 1004.95        2970.00           1489       14775.00     64499.58
 1004.98        2970.25           1492       13684.00     59725.93
 1005.02        2970.50           1496       12404.00     54127.06
 1005.05        2970.75           1499       11298.00     49290.80
 1005.08        2971.00           1502       10238.00     44657.00
 1005.11        2971.25           1506        8894.00     38783.55
 1005.14        2971.50           1509        7765.00     33851.27
 1005.17        2971.75           1513        6343.00     27641.05
 1005.20        2972.00           1516        5239.00     22821.20
 1005.23        2972.25           1519        4283.00     18648.62
 1005.26        2972.50           1523        2790.00     12134.32
 1005.29        2972.75           1526        1802.00      7824.85
 1005.32        2973.00           1529         865.00      3738.87
 1005.35        2973.25           1533         353.00      1506.61
 1005.39        2973.50           1536         252.00      1066.29
 1005.42        2973.75           1539         218.00       918.07
 1005.45        2974.00           1543         178.00       743.70
 1005.48        2974.25           1546         125.00       512.65
 1005.51        2974.50           1549         106.00       429.82
 1005.54        2974.75           1553          71.00       277.25
 1005.57        2975.00           1556          60.00       229.30
 1005.60        2975.25           1559          63.00       242.37
 1005.63        2975.50           1563          49.00       181.34
 1005.66        2975.75           1566          45.00       163.91
 1005.69        2976.00           1569          50.00       185.70
 1005.73        2976.25           1573          48.00       176.98
 1005.76        2976.50           1576          48.00       176.98
 1005.79        2976.75           1579          48.00       176.98
 1005.82        2977.00           1583          61.00       233.65
 1005.85        2977.25           1586          48.00       176.98
 1005.88        2977.50           1590          46.00       168.27
 1005.91        2977.75           1593          50.00       185.70
 1005.94        2978.00           1596          52.00       194.42
 1005.97        2978.25           1600          45.00       163.91
 1006.00        2978.50           1603          51.00       190.06
 1006.03        2978.75           1606          54.00       203.14
 1006.07        2979.00           1610          56.00       211.86
 1006.10        2979.25           1613          50.00       185.70
 1006.13        2979.50           1616          56.00       211.86
 1006.16        2979.75           1620          49.00       181.34
 1006.19        2980.00           1623          50.00       185.70
 1006.22        2980.25           1626          46.00       168.27
 1006.25        2980.50           1630          54.00       203.14
 1006.28        2980.75           1633          52.00       194.42
 1006.31        2981.00           1637          47.00       172.63
 1006.35        2981.25           1640          53.00       198.78
 1006.38        2981.50           1643          52.00       194.42
 1006.41        2981.75           1647          50.00       185.70
 1006.44        2982.00           1650          53.00       198.78
 1006.47        2982.25           1653          45.00       163.91
 1006.50        2982.50           1657          52.00       194.42
 1006.53        2982.75           1660          40.00       142.11
 1006.56        2983.00           1663          43.00       155.19
 1006.59        2983.25           1667          48.00       176.98
 1006.62        2983.50           1670          46.00       168.27
 1006.65        2983.75           1673          42.00       150.83
 1006.68        2984.00           1677          48.00       176.98
HS scan finished at 16:46:54
end
