************************************************************
  HS Scan of (1) Internal mercury lamp
************************************************************
Integration time is 0.2294 seconds per sample
dh051217Manchester 53.47 2.23 2.804185pr1000
************************************************************
Dead Time -------------------------  3E-08 
Number of Cycles Used -------------  4 
Starting Wavelength (Angstroms) ---  2950 
Final Wavelength (Angstoms) -------  2984 
Wavelength Increment (Angstroms) --  .25 
Filter Wheel #1 Position ---------- (1) Ground quartz diffuser (ND=2.32)
Filter Wheel #2 Position ---------- (1) Neutral Density 0.494



************************************************************
HS scan start time = 05:10:22
Dark Count =  6.9 


Time (GMT)  Wavelength (Ang)  Step Number  Raw Counts  Counts/Second

  310.74        2950.00           1222          65.00       253.27
  310.81        2950.25           1226          66.00       257.63
  310.84        2950.50           1229          61.00       235.83
  310.87        2950.75           1232          72.00       283.79
  310.90        2951.00           1236          66.00       257.63
  310.93        2951.25           1239          60.00       231.48
  310.96        2951.50           1242          61.00       235.83
  310.99        2951.75           1246          59.00       227.12
  311.02        2952.00           1249          61.00       235.83
  311.06        2952.25           1252          68.00       266.35
  311.09        2952.50           1256          62.00       240.19
  311.12        2952.75           1259          68.00       266.35
  311.15        2953.00           1262          66.00       257.63
  311.18        2953.25           1266          67.00       261.99
  311.21        2953.50           1269          64.00       248.91
  311.24        2953.75           1272          75.00       296.86
  311.27        2954.00           1276          66.00       257.63
  311.30        2954.25           1279          60.00       231.48
  311.33        2954.50           1282          66.00       257.63
  311.36        2954.75           1286          59.00       227.12
  311.40        2955.00           1289          66.00       257.63
  311.43        2955.25           1292          57.00       218.40
  311.46        2955.50           1296          61.00       235.83
  311.49        2955.75           1299          61.00       235.83
  311.52        2956.00           1302          57.00       218.40
  311.55        2956.25           1306          60.00       231.48
  311.58        2956.50           1309          60.00       231.48
  311.61        2956.75           1312          64.00       248.91
  311.64        2957.00           1316          57.00       218.40
  311.68        2957.25           1319          63.00       244.55
  311.71        2957.50           1322          69.00       270.71
  311.74        2957.75           1326          67.00       261.99
  311.77        2958.00           1329          59.00       227.12
  311.80        2958.25           1332          62.00       240.19
  311.83        2958.50           1336          67.00       261.99
  311.86        2958.75           1339          56.00       214.04
  311.89        2959.00           1342          66.00       257.63
  311.92        2959.25           1346          74.00       292.50
  311.95        2959.50           1349          70.00       275.07
  311.98        2959.75           1352          84.00       336.10
  312.01        2960.00           1356         120.00       493.03
  312.05        2960.25           1359         150.00       623.81
  312.08        2960.50           1362         185.00       776.39
  312.11        2960.75           1366         235.00       994.36
  312.14        2961.00           1369         284.00      1207.98
  312.17        2961.25           1372         326.00      1391.08
  312.20        2961.50           1376         393.00      1683.17
  312.23        2961.75           1379         511.00      2197.62
  312.26        2962.00           1382        1001.00      4334.04
  312.29        2962.25           1386        2500.00     10871.46
  312.32        2962.50           1389        3986.00     17354.72
  312.35        2962.75           1392        5480.00     23875.42
  312.38        2963.00           1396        7357.00     32071.38
  312.41        2963.25           1399        8912.00     38864.38
  312.45        2963.50           1402       10628.00     46363.92
  312.48        2963.75           1406       12834.00     56009.90
  312.51        2964.00           1409       14202.00     61994.44
  312.54        2964.25           1412       15957.00     69675.13
  312.57        2964.50           1416       18055.00     78861.60
  312.60        2964.75           1419       19556.00     85437.11
  312.63        2965.00           1422       21110.00     92247.53
  312.66        2965.25           1426       23099.00    100968.40
  312.69        2965.50           1429       24806.00    108456.50
  312.73        2965.75           1432       26394.00    115425.60
  312.76        2966.00           1436       28479.00    124580.30
  312.79        2966.25           1439       30008.00    131296.90
  312.82        2966.50           1442       31247.00    136741.60
  312.85        2966.75           1446       32521.00    142341.90
  312.88        2967.00           1449       33116.00    144958.10
  312.91        2967.25           1452       33410.00    146251.00
  312.94        2967.50           1456       33208.00    145362.70
  312.97        2967.75           1459       33385.00    146141.10
  313.01        2968.00           1462       33115.00    144953.70
  313.04        2968.25           1466       32228.00    141053.80
  313.07        2968.50           1469       31168.00    136394.40
  313.10        2968.75           1472       29429.00    128753.10
  313.13        2969.00           1476       27670.00    121027.60
  313.16        2969.25           1479       26055.00    113937.60
  313.19        2969.50           1482       24524.00    107219.20
  313.22        2969.75           1486       22472.00     98218.81
  313.25        2970.00           1489       20987.00     91708.38
  313.29        2970.25           1492       19523.00     85292.50
  313.32        2970.50           1496       17504.00     76448.46
  313.35        2970.75           1499       15835.00     69141.09
  313.38        2971.00           1502       14334.00     62572.02
  313.41        2971.25           1506       12248.00     53447.01
  313.44        2971.50           1509       10984.00     47920.19
  313.47        2971.75           1513        8970.00     39117.81
  313.50        2972.00           1516        7414.00     32320.34
  313.53        2972.25           1519        5798.00     25263.69
  313.56        2972.50           1523        3757.00     16355.45
  313.59        2972.75           1526        2332.00     10138.65
  313.62        2973.00           1529        1120.00      4852.93
  313.66        2973.25           1533         428.00      1835.76
  313.69        2973.50           1536         318.00      1356.20
  313.72        2973.75           1539         264.00      1120.79
  313.75        2974.00           1543         216.00       911.53
  313.78        2974.25           1546         165.00       689.20
  313.81        2974.50           1549         124.00       510.47
  313.84        2974.75           1553          87.00       349.18
  313.87        2975.00           1556          69.00       270.71
  313.90        2975.25           1559          73.00       288.15
  313.93        2975.50           1563          66.00       257.63
  313.97        2975.75           1566          69.00       270.71
  314.00        2976.00           1569          67.00       261.99
  314.03        2976.25           1573          63.00       244.55
  314.06        2976.50           1576          51.00       192.24
  314.09        2976.75           1579          58.00       222.76
  314.12        2977.00           1583          69.00       270.71
  314.15        2977.25           1586          62.00       240.19
  314.18        2977.50           1590          49.00       183.52
  314.21        2977.75           1593          54.00       205.32
  314.24        2978.00           1596          58.00       222.76
  314.27        2978.25           1600          62.00       240.19
  314.30        2978.50           1603          61.00       235.83
  314.33        2978.75           1606          59.00       227.12
  314.37        2979.00           1610          54.00       205.32
  314.40        2979.25           1613          62.00       240.19
  314.43        2979.50           1616          68.00       266.35
  314.46        2979.75           1620          55.00       209.68
  314.49        2980.00           1623          54.00       205.32
  314.52        2980.25           1626          59.00       227.12
  314.55        2980.50           1630          58.00       222.76
  314.58        2980.75           1633          63.00       244.55
  314.61        2981.00           1637          62.00       240.19
  314.64        2981.25           1640          55.00       209.68
  314.67        2981.50           1643          69.00       270.71
  314.71        2981.75           1647          49.00       183.52
  314.74        2982.00           1650          57.00       218.40
  314.77        2982.25           1653          56.00       214.04
  314.80        2982.50           1657          64.00       248.91
  314.83        2982.75           1660          59.00       227.12
  314.86        2983.00           1663          54.00       205.32
  314.89        2983.25           1667          48.00       179.16
  314.92        2983.50           1670          50.00       187.88
  314.95        2983.75           1673          55.00       209.68
  314.98        2984.00           1677          57.00       218.40
HS scan finished at 05:15:12
end
************************************************************
  HS Scan of (1) Internal mercury lamp
************************************************************
Integration time is 0.2294 seconds per sample
dh051217Manchester 53.47 2.23 2.804185pr1000
************************************************************
Dead Time -------------------------  3E-08 
Number of Cycles Used -------------  4 
Starting Wavelength (Angstroms) ---  2950 
Final Wavelength (Angstoms) -------  2984 
Wavelength Increment (Angstroms) --  .25 
Filter Wheel #1 Position ---------- (1) Ground quartz diffuser (ND=2.32)
Filter Wheel #2 Position ---------- (1) Neutral Density 0.494



************************************************************
HS scan start time = 16:41:59
Dark Count =  6.8 


Time (GMT)  Wavelength (Ang)  Step Number  Raw Counts  Counts/Second

 1002.35        2950.00           1222          70.00       275.50
 1002.42        2950.25           1226          59.00       227.55
 1002.45        2950.50           1229          64.00       249.35
 1002.48        2950.75           1232          59.00       227.55
 1002.51        2951.00           1236          70.00       275.50
 1002.54        2951.25           1239          63.00       244.99
 1002.58        2951.50           1242          50.00       188.32
 1002.61        2951.75           1246          56.00       214.47
 1002.64        2952.00           1249          65.00       253.71
 1002.67        2952.25           1252          64.00       249.35
 1002.70        2952.50           1256          63.00       244.99
 1002.73        2952.75           1259          70.00       275.50
 1002.76        2953.00           1262          64.00       249.35
 1002.79        2953.25           1266          59.00       227.55
 1002.82        2953.50           1269          68.00       266.79
 1002.85        2953.75           1272          62.00       240.63
 1002.88        2954.00           1276          69.00       271.14
 1002.92        2954.25           1279          67.00       262.43
 1002.95        2954.50           1282          60.00       231.91
 1002.98        2954.75           1286          64.00       249.35
 1003.01        2955.00           1289          66.00       258.07
 1003.04        2955.25           1292          61.00       236.27
 1003.07        2955.50           1296          65.00       253.71
 1003.10        2955.75           1299          69.00       271.14
 1003.13        2956.00           1302          67.00       262.43
 1003.16        2956.25           1306          57.00       218.83
 1003.19        2956.50           1309          67.00       262.43
 1003.22        2956.75           1312          68.00       266.79
 1003.25        2957.00           1316          62.00       240.63
 1003.28        2957.25           1319          60.00       231.91
 1003.31        2957.50           1322          67.00       262.43
 1003.34        2957.75           1326          59.00       227.55
 1003.38        2958.00           1329          81.00       323.46
 1003.41        2958.25           1332          73.00       288.58
 1003.44        2958.50           1336          64.00       249.35
 1003.47        2958.75           1339          65.00       253.71
 1003.50        2959.00           1342          63.00       244.99
 1003.53        2959.25           1346          71.00       279.86
 1003.56        2959.50           1349          75.00       297.30
 1003.59        2959.75           1352          81.00       323.46
 1003.62        2960.00           1356          93.00       375.77
 1003.65        2960.25           1359         121.00       497.83
 1003.68        2960.50           1362         161.00       672.20
 1003.72        2960.75           1366         212.00       894.53
 1003.75        2961.00           1369         239.00      1012.24
 1003.78        2961.25           1372         294.00      1252.01
 1003.81        2961.50           1376         372.00      1592.06
 1003.84        2961.75           1379         652.00      2812.79
 1003.87        2962.00           1382        1555.00      6750.28
 1003.90        2962.25           1386        3375.00     14689.12
 1003.93        2962.50           1389        4829.00     21034.20
 1003.96        2962.75           1392        6212.00     27071.68
 1003.99        2963.00           1396        8228.00     35876.43
 1004.02        2963.25           1399        9721.00     42400.02
 1004.06        2963.50           1402       11303.00     49315.28
 1004.09        2963.75           1406       13286.00     57987.46
 1004.12        2964.00           1409       14721.00     64265.90
 1004.15        2964.25           1412       16425.00     71724.35
 1004.18        2964.50           1416       18595.00     81227.33
 1004.21        2964.75           1419       20261.00     88526.86
 1004.24        2965.00           1422       21809.00     95312.24
 1004.27        2965.25           1426       23604.00    103183.80
 1004.30        2965.50           1429       25249.00    110400.80
 1004.34        2965.75           1432       26803.00    117221.50
 1004.37        2966.00           1436       28841.00    126170.70
 1004.40        2966.25           1439       30184.00    132070.60
 1004.43        2966.50           1442       31429.00    137542.00
 1004.46        2966.75           1446       32678.00    143032.70
 1004.49        2967.00           1449       32982.00    144369.40
 1004.52        2967.25           1452       33104.00    144905.80
 1004.55        2967.50           1456       32828.00    143692.20
 1004.58        2967.75           1459       32980.00    144360.60
 1004.62        2968.00           1462       32663.00    142966.70
 1004.65        2968.25           1466       31581.00    138210.10
 1004.68        2968.50           1469       29997.00    131249.00
 1004.71        2968.75           1472       28622.00    125208.80
 1004.74        2969.00           1476       26748.00    116980.00
 1004.77        2969.25           1479       25309.00    110664.10
 1004.80        2969.50           1482       23689.00    103556.60
 1004.83        2969.75           1486       21708.00     94869.46
 1004.86        2970.00           1489       20281.00     88614.51
 1004.89        2970.25           1492       18759.00     81945.76
 1004.92        2970.50           1496       16624.00     72595.60
 1004.96        2970.75           1499       15185.00     66296.51
 1004.99        2971.00           1502       13744.00     59991.05
 1005.02        2971.25           1506       11497.00     50163.50
 1005.05        2971.50           1509        9934.00     43330.93
 1005.08        2971.75           1513        7828.00     34129.09
 1005.11        2972.00           1516        6405.00     27914.39
 1005.14        2972.25           1519        4994.00     21754.39
 1005.17        2972.50           1523        3116.00     13559.13
 1005.20        2972.75           1526        1796.00      7801.30
 1005.23        2973.00           1529         835.00      3610.68
 1005.27        2973.25           1533         402.00      1722.84
 1005.30        2973.50           1536         325.00      1387.15
 1005.33        2973.75           1539         292.00      1243.29
 1005.36        2974.00           1543         255.00      1081.99
 1005.39        2974.25           1546         176.00       737.59
 1005.42        2974.50           1549         163.00       680.92
 1005.45        2974.75           1553         111.00       454.23
 1005.48        2975.00           1556          76.00       301.66
 1005.51        2975.25           1559          72.00       284.22
 1005.54        2975.50           1563          62.00       240.63
 1005.57        2975.75           1566          68.00       266.79
 1005.61        2976.00           1569          60.00       231.91
 1005.64        2976.25           1573          58.00       223.19
 1005.67        2976.50           1576          59.00       227.55
 1005.70        2976.75           1579          58.00       223.19
 1005.73        2977.00           1583          59.00       227.55
 1005.76        2977.25           1586          64.00       249.35
 1005.79        2977.50           1590          58.00       223.19
 1005.82        2977.75           1593          58.00       223.19
 1005.85        2978.00           1596          61.00       236.27
 1005.88        2978.25           1600          57.00       218.83
 1005.92        2978.50           1603          63.00       244.99
 1005.95        2978.75           1606          60.00       231.91
 1005.98        2979.00           1610          66.00       258.07
 1006.01        2979.25           1613          57.00       218.83
 1006.04        2979.50           1616          53.00       201.40
 1006.07        2979.75           1620          53.00       201.40
 1006.10        2980.00           1623          59.00       227.55
 1006.13        2980.25           1626          55.00       210.11
 1006.16        2980.50           1630          48.00       179.60
 1006.19        2980.75           1633          59.00       227.55
 1006.22        2981.00           1637          54.00       205.76
 1006.25        2981.25           1640          57.00       218.83
 1006.28        2981.50           1643          57.00       218.83
 1006.31        2981.75           1647          64.00       249.35
 1006.35        2982.00           1650          58.00       223.19
 1006.38        2982.25           1653          60.00       231.91
 1006.41        2982.50           1657          60.00       231.91
 1006.44        2982.75           1660          59.00       227.55
 1006.47        2983.00           1663          62.00       240.63
 1006.50        2983.25           1667          60.00       231.91
 1006.53        2983.50           1670          67.00       262.43
 1006.56        2983.75           1673          58.00       223.19
 1006.59        2984.00           1677          61.00       236.27
HS scan finished at 16:46:49
end
