************************************************************
  HS Scan of (1) Internal mercury lamp
************************************************************
Integration time is 0.2294 seconds per sample
dh271117Manchester 53.47 2.23 2.804185pr1000
************************************************************
Dead Time -------------------------  3E-08 
Number of Cycles Used -------------  4 
Starting Wavelength (Angstroms) ---  2950 
Final Wavelength (Angstoms) -------  2984 
Wavelength Increment (Angstroms) --  .25 
Filter Wheel #1 Position ---------- (1) Ground quartz diffuser (ND=2.32)
Filter Wheel #2 Position ---------- (1) Neutral Density 0.494



************************************************************
HS scan start time = 07:09:55
Dark Count =  6.8 


Time (GMT)  Wavelength (Ang)  Step Number  Raw Counts  Counts/Second

  430.29        2950.00           1222          70.00       275.50
  430.35        2950.25           1226          64.00       249.35
  430.38        2950.50           1229          67.00       262.43
  430.42        2950.75           1232          69.00       271.14
  430.45        2951.00           1236          63.00       244.99
  430.48        2951.25           1239          66.00       258.07
  430.51        2951.50           1242          70.00       275.50
  430.54        2951.75           1246          67.00       262.43
  430.57        2952.00           1249          58.00       223.19
  430.60        2952.25           1252          70.00       275.50
  430.63        2952.50           1256          74.00       292.94
  430.66        2952.75           1259          62.00       240.63
  430.69        2953.00           1262          73.00       288.58
  430.72        2953.25           1266          73.00       288.58
  430.75        2953.50           1269          65.00       253.71
  430.78        2953.75           1272          65.00       253.71
  430.81        2954.00           1276          61.00       236.27
  430.84        2954.25           1279          59.00       227.55
  430.88        2954.50           1282          70.00       275.50
  430.91        2954.75           1286          77.00       306.02
  430.94        2955.00           1289          66.00       258.07
  430.97        2955.25           1292          69.00       271.14
  431.00        2955.50           1296          66.00       258.07
  431.03        2955.75           1299          64.00       249.35
  431.06        2956.00           1302          63.00       244.99
  431.09        2956.25           1306          62.00       240.63
  431.12        2956.50           1309          68.00       266.79
  431.15        2956.75           1312          61.00       236.27
  431.18        2957.00           1316          68.00       266.79
  431.22        2957.25           1319          64.00       249.35
  431.25        2957.50           1322          63.00       244.99
  431.28        2957.75           1326          65.00       253.71
  431.31        2958.00           1329          59.00       227.55
  431.34        2958.25           1332          58.00       223.19
  431.37        2958.50           1336          63.00       244.99
  431.40        2958.75           1339          73.00       288.58
  431.43        2959.00           1342          69.00       271.14
  431.46        2959.25           1346          56.00       214.47
  431.49        2959.50           1349          68.00       266.79
  431.52        2959.75           1352          89.00       358.33
  431.55        2960.00           1356         113.00       462.95
  431.58        2960.25           1359         125.00       515.27
  431.62        2960.50           1362         156.00       650.41
  431.65        2960.75           1366         191.00       802.98
  431.68        2961.00           1369         247.00      1047.11
  431.71        2961.25           1372         301.00      1282.53
  431.74        2961.50           1376         352.00      1504.86
  431.77        2961.75           1379         509.00      2189.33
  431.80        2962.00           1382        1120.00      4853.37
  431.83        2962.25           1386        2895.00     12594.99
  431.86        2962.50           1389        4352.00     18952.36
  431.89        2962.75           1392        5844.00     25464.96
  431.92        2963.00           1396        7808.00     34041.72
  431.96        2963.25           1399        9316.00     40630.14
  431.99        2963.50           1402       10844.00     47308.60
  432.02        2963.75           1406       13060.00     56998.87
  432.05        2964.00           1409       14722.00     64270.28
  432.08        2964.25           1412       16299.00     71172.74
  432.11        2964.50           1416       18379.00     80281.18
  432.14        2964.75           1419       20057.00     87632.88
  432.17        2965.00           1422       21565.00     94242.53
  432.20        2965.25           1426       23654.00    103403.10
  432.23        2965.50           1429       25300.00    110624.60
  432.26        2965.75           1432       26656.00    116576.10
  432.30        2966.00           1436       28706.00    125577.70
  432.33        2966.25           1439       30105.00    131723.50
  432.36        2966.50           1442       31559.00    138113.40
  432.39        2966.75           1446       32972.00    144325.40
  432.42        2967.00           1449       33334.00    145917.20
  432.45        2967.25           1452       33512.00    146700.00
  432.48        2967.50           1456       33439.00    146379.00
  432.51        2967.75           1459       33411.00    146255.80
  432.54        2968.00           1462       33405.00    146229.50
  432.57        2968.25           1466       32318.00    141449.90
  432.61        2968.50           1469       30794.00    134751.10
  432.64        2968.75           1472       29292.00    128151.70
  432.67        2969.00           1476       27548.00    120492.30
  432.70        2969.25           1479       25929.00    113385.00
  432.73        2969.50           1482       24406.00    106702.00
  432.76        2969.75           1486       22360.00     97728.12
  432.79        2970.00           1489       20919.00     91410.75
  432.82        2970.25           1492       19495.00     85170.26
  432.85        2970.50           1496       17430.00     76124.82
  432.88        2970.75           1499       15897.00     69412.93
  432.91        2971.00           1502       14144.00     61741.11
  432.95        2971.25           1506       12095.00     52778.37
  432.98        2971.50           1509       10582.00     46163.28
  433.01        2971.75           1513        8459.00     36885.61
  433.04        2972.00           1516        7019.00     30595.64
  433.07        2972.25           1519        5530.00     24094.13
  433.10        2972.50           1523        3574.00     15557.39
  433.13        2972.75           1526        2191.00      9524.08
  433.16        2973.00           1529         978.00      4234.19
  433.19        2973.25           1533         450.00      1932.11
  433.22        2973.50           1536         345.00      1474.35
  433.26        2973.75           1539         310.00      1321.76
  433.29        2974.00           1543         253.00      1073.27
  433.32        2974.25           1546         207.00       872.73
  433.35        2974.50           1549         164.00       685.28
  433.38        2974.75           1553         112.00       458.59
  433.41        2975.00           1556          86.00       345.25
  433.44        2975.25           1559          79.00       314.74
  433.47        2975.50           1563          69.00       271.14
  433.50        2975.75           1566          69.00       271.14
  433.53        2976.00           1569          62.00       240.63
  433.56        2976.25           1573          62.00       240.63
  433.59        2976.50           1576          64.00       249.35
  433.62        2976.75           1579          63.00       244.99
  433.66        2977.00           1583          63.00       244.99
  433.69        2977.25           1586          57.00       218.83
  433.72        2977.50           1590          58.00       223.19
  433.75        2977.75           1593          70.00       275.50
  433.78        2978.00           1596          62.00       240.63
  433.81        2978.25           1600          66.00       258.07
  433.84        2978.50           1603          60.00       231.91
  433.87        2978.75           1606          64.00       249.35
  433.90        2979.00           1610          57.00       218.83
  433.93        2979.25           1613          62.00       240.63
  433.96        2979.50           1616          56.00       214.47
  434.00        2979.75           1620          59.00       227.55
  434.03        2980.00           1623          60.00       231.91
  434.06        2980.25           1626          53.00       201.40
  434.09        2980.50           1630          63.00       244.99
  434.12        2980.75           1633          63.00       244.99
  434.15        2981.00           1637          59.00       227.55
  434.18        2981.25           1640          62.00       240.63
  434.21        2981.50           1643          69.00       271.14
  434.24        2981.75           1647          59.00       227.55
  434.27        2982.00           1650          54.00       205.76
  434.30        2982.25           1653          60.00       231.91
  434.33        2982.50           1657          60.00       231.91
  434.36        2982.75           1660          62.00       240.63
  434.39        2983.00           1663          55.00       210.11
  434.43        2983.25           1667          54.00       205.76
  434.46        2983.50           1670          54.00       205.76
  434.49        2983.75           1673          54.00       205.76
  434.52        2984.00           1677          56.00       214.47
HS scan finished at 07:14:44
end
