************************************************************
  HS Scan of (1) Internal mercury lamp
************************************************************
Integration time is 0.2294 seconds per sample
dh041217Manchester 53.47 2.23 2.804185pr1000
************************************************************
Dead Time -------------------------  3E-08 
Number of Cycles Used -------------  4 
Starting Wavelength (Angstroms) ---  2950 
Final Wavelength (Angstoms) -------  2984 
Wavelength Increment (Angstroms) --  .25 
Filter Wheel #1 Position ---------- (1) Ground quartz diffuser (ND=2.32)
Filter Wheel #2 Position ---------- (1) Neutral Density 0.494



************************************************************
HS scan start time = 05:09:19
Dark Count =  3.8 


Time (GMT)  Wavelength (Ang)  Step Number  Raw Counts  Counts/Second

  309.69        2950.00           1222          63.00       258.07
  309.75        2950.25           1226          65.00       266.79
  309.78        2950.50           1229          61.00       249.35
  309.81        2950.75           1232          67.00       275.50
  309.85        2951.00           1236          70.00       288.58
  309.88        2951.25           1239          62.00       253.71
  309.91        2951.50           1242          73.00       301.66
  309.94        2951.75           1246          70.00       288.58
  309.97        2952.00           1249          64.00       262.43
  310.00        2952.25           1252          63.00       258.07
  310.03        2952.50           1256          60.00       244.99
  310.06        2952.75           1259          66.00       271.14
  310.09        2953.00           1262          67.00       275.50
  310.12        2953.25           1266          59.00       240.63
  310.15        2953.50           1269          65.00       266.79
  310.18        2953.75           1272          55.00       223.19
  310.22        2954.00           1276          66.00       271.14
  310.25        2954.25           1279          66.00       271.14
  310.28        2954.50           1282          59.00       240.63
  310.31        2954.75           1286          59.00       240.63
  310.34        2955.00           1289          61.00       249.35
  310.37        2955.25           1292          66.00       271.14
  310.40        2955.50           1296          66.00       271.14
  310.43        2955.75           1299          74.00       306.02
  310.46        2956.00           1302          60.00       244.99
  310.49        2956.25           1306          65.00       266.79
  310.52        2956.50           1309          57.00       231.91
  310.55        2956.75           1312          64.00       262.43
  310.59        2957.00           1316          59.00       240.63
  310.62        2957.25           1319          65.00       266.79
  310.65        2957.50           1322          60.00       244.99
  310.68        2957.75           1326          62.00       253.71
  310.71        2958.00           1329          59.00       240.63
  310.74        2958.25           1332          64.00       262.43
  310.77        2958.50           1336          66.00       271.14
  310.80        2958.75           1339          61.00       249.35
  310.83        2959.00           1342          69.00       284.22
  310.86        2959.25           1346          70.00       288.58
  310.89        2959.50           1349          72.00       297.30
  310.92        2959.75           1352          85.00       353.97
  310.95        2960.00           1356         121.00       510.91
  310.98        2960.25           1359         161.00       685.28
  311.02        2960.50           1362         186.00       794.26
  311.05        2960.75           1366         228.00       977.36
  311.08        2961.00           1369         269.00      1156.10
  311.11        2961.25           1372         313.00      1347.92
  311.14        2961.50           1376         390.00      1683.61
  311.17        2961.75           1379         574.00      2485.80
  311.20        2962.00           1382        1141.00      4958.02
  311.23        2962.25           1386        2879.00     12538.28
  311.26        2962.50           1389        4454.00     19410.60
  311.29        2962.75           1392        5890.00     25678.89
  311.32        2963.00           1396        7719.00     33666.07
  311.35        2963.25           1399        9347.00     40778.72
  311.39        2963.50           1402       10977.00     47903.15
  311.42        2963.75           1406       12890.00     56268.40
  311.45        2964.00           1409       14642.00     63933.32
  311.48        2964.25           1412       16293.00     71159.60
  311.51        2964.50           1416       18426.00     80500.19
  311.54        2964.75           1419       20004.00     87413.76
  311.57        2965.00           1422       21418.00     93611.26
  311.60        2965.25           1426       23565.00    103025.90
  311.63        2965.50           1429       25164.00    110041.00
  311.66        2965.75           1432       26489.00    115856.20
  311.69        2966.00           1436       28484.00    124615.80
  311.73        2966.25           1439       30025.00    131385.20
  311.76        2966.50           1442       31282.00    136909.00
  311.79        2966.75           1446       32874.00    143907.70
  311.82        2967.00           1449       33311.00    145829.30
  311.85        2967.25           1452       33367.00    146075.60
  311.88        2967.50           1456       33392.00    146185.50
  311.91        2967.75           1459       33229.00    145468.70
  311.94        2968.00           1462       33127.00    145020.10
  311.97        2968.25           1466       32093.00    140473.90
  312.00        2968.50           1469       30506.00    133498.70
  312.03        2968.75           1472       29222.00    127857.40
  312.07        2969.00           1476       27384.00    119785.40
  312.10        2969.25           1479       25743.00    112581.90
  312.13        2969.50           1482       24482.00    107048.60
  312.16        2969.75           1486       22232.00     97180.03
  312.19        2970.00           1489       20735.00     90617.42
  312.22        2970.25           1492       19169.00     83755.08
  312.25        2970.50           1496       17192.00     75095.76
  312.28        2970.75           1499       15560.00     67950.94
  312.31        2971.00           1502       14081.00     61478.59
  312.34        2971.25           1506       11941.00     52118.05
  312.37        2971.50           1509       10248.00     44716.45
  312.41        2971.75           1513        8452.00     36868.13
  312.44        2972.00           1516        6943.00     30276.84
  312.47        2972.25           1519        5488.00     23923.88
  312.50        2972.50           1523        3370.00     14680.40
  312.53        2972.75           1526        2012.00      8756.44
  312.56        2973.00           1529         850.00      3689.16
  312.59        2973.25           1533         419.00      1810.04
  312.62        2973.50           1536         328.00      1413.31
  312.65        2973.75           1539         283.00      1217.13
  312.68        2974.00           1543         234.00      1003.52
  312.71        2974.25           1546         175.00       746.31
  312.74        2974.50           1549         151.00       641.69
  312.77        2974.75           1553          97.00       406.28
  312.81        2975.00           1556          78.00       323.46
  312.84        2975.25           1559          79.00       327.81
  312.87        2975.50           1563          64.00       262.43
  312.90        2975.75           1566          67.00       275.50
  312.93        2976.00           1569          58.00       236.27
  312.96        2976.25           1573          66.00       271.14
  312.99        2976.50           1576          66.00       271.14
  313.02        2976.75           1579          56.00       227.55
  313.05        2977.00           1583          60.00       244.99
  313.08        2977.25           1586          55.00       223.19
  313.11        2977.50           1590          68.00       279.86
  313.14        2977.75           1593          53.00       214.47
  313.18        2978.00           1596          61.00       249.35
  313.21        2978.25           1600          60.00       244.99
  313.24        2978.50           1603          62.00       253.71
  313.27        2978.75           1606          49.00       197.04
  313.30        2979.00           1610          65.00       266.79
  313.33        2979.25           1613          58.00       236.27
  313.36        2979.50           1616          61.00       249.35
  313.39        2979.75           1620          56.00       227.55
  313.42        2980.00           1623          61.00       249.35
  313.45        2980.25           1626          68.00       279.86
  313.48        2980.50           1630          57.00       231.91
  313.52        2980.75           1633          70.00       288.58
  313.55        2981.00           1637          62.00       253.71
  313.58        2981.25           1640          61.00       249.35
  313.61        2981.50           1643          57.00       231.91
  313.64        2981.75           1647          57.00       231.91
  313.67        2982.00           1650          60.00       244.99
  313.70        2982.25           1653          59.00       240.63
  313.73        2982.50           1657          61.00       249.35
  313.76        2982.75           1660          54.00       218.83
  313.79        2983.00           1663          56.00       227.55
  313.82        2983.25           1667          55.00       223.19
  313.85        2983.50           1670          56.00       227.55
  313.88        2983.75           1673          58.00       236.27
  313.91        2984.00           1677          57.00       231.91
HS scan finished at 05:14:08
end
************************************************************
  HS Scan of (1) Internal mercury lamp
************************************************************
Integration time is 0.2294 seconds per sample
dh041217Manchester 53.47 2.23 2.804185pr1000
************************************************************
Dead Time -------------------------  3E-08 
Number of Cycles Used -------------  4 
Starting Wavelength (Angstroms) ---  2950 
Final Wavelength (Angstoms) -------  2984 
Wavelength Increment (Angstroms) --  .25 
Filter Wheel #1 Position ---------- (1) Ground quartz diffuser (ND=2.32)
Filter Wheel #2 Position ---------- (1) Neutral Density 0.494



************************************************************
HS scan start time = 16:43:17
Dark Count =  4.8 


Time (GMT)  Wavelength (Ang)  Step Number  Raw Counts  Counts/Second

 1003.64        2950.00           1222          62.00       249.35
 1003.71        2950.25           1226          62.00       249.35
 1003.74        2950.50           1229          70.00       284.22
 1003.77        2950.75           1232          66.00       266.79
 1003.80        2951.00           1236          67.00       271.14
 1003.83        2951.25           1239          65.00       262.43
 1003.87        2951.50           1242          64.00       258.07
 1003.90        2951.75           1246          68.00       275.50
 1003.93        2952.00           1249          69.00       279.86
 1003.96        2952.25           1252          61.00       244.99
 1003.99        2952.50           1256          63.00       253.71
 1004.02        2952.75           1259          63.00       253.71
 1004.05        2953.00           1262          62.00       249.35
 1004.08        2953.25           1266          58.00       231.91
 1004.11        2953.50           1269          61.00       244.99
 1004.14        2953.75           1272          68.00       275.50
 1004.17        2954.00           1276          61.00       244.99
 1004.21        2954.25           1279          61.00       244.99
 1004.24        2954.50           1282          61.00       244.99
 1004.27        2954.75           1286          65.00       262.43
 1004.30        2955.00           1289          66.00       266.79
 1004.33        2955.25           1292          62.00       249.35
 1004.36        2955.50           1296          63.00       253.71
 1004.39        2955.75           1299          62.00       249.35
 1004.42        2956.00           1302          67.00       271.14
 1004.45        2956.25           1306          61.00       244.99
 1004.48        2956.50           1309          63.00       253.71
 1004.51        2956.75           1312          62.00       249.35
 1004.54        2957.00           1316          63.00       253.71
 1004.57        2957.25           1319          70.00       284.22
 1004.61        2957.50           1322          61.00       244.99
 1004.64        2957.75           1326          71.00       288.58
 1004.67        2958.00           1329          64.00       258.07
 1004.70        2958.25           1332          67.00       271.14
 1004.73        2958.50           1336          61.00       244.99
 1004.76        2958.75           1339          62.00       249.35
 1004.79        2959.00           1342          68.00       275.50
 1004.82        2959.25           1346          69.00       279.86
 1004.85        2959.50           1349          76.00       310.38
 1004.88        2959.75           1352          88.00       362.69
 1004.92        2960.00           1356         119.00       497.83
 1004.95        2960.25           1359         155.00       654.76
 1004.98        2960.50           1362         196.00       833.50
 1005.01        2960.75           1366         245.00      1047.11
 1005.04        2961.00           1369         289.00      1238.93
 1005.07        2961.25           1372         328.00      1408.95
 1005.10        2961.50           1376         396.00      1705.41
 1005.13        2961.75           1379         516.00      2228.57
 1005.16        2962.00           1382        1022.00      4434.77
 1005.19        2962.25           1386        2521.00     10972.23
 1005.22        2962.50           1389        3992.00     17390.06
 1005.26        2962.75           1392        5357.00     23347.65
 1005.29        2963.00           1396        7454.00     32504.22
 1005.32        2963.25           1399        8824.00     38489.06
 1005.35        2963.50           1402       10336.00     45096.72
 1005.38        2963.75           1406       12467.00     54413.96
 1005.41        2964.00           1409       14043.00     61307.95
 1005.44        2964.25           1412       15672.00     68436.79
 1005.47        2964.50           1416       17740.00     77491.18
 1005.50        2964.75           1419       19254.00     84123.10
 1005.54        2965.00           1422       20796.00     90880.39
 1005.57        2965.25           1426       22900.00    100104.90
 1005.60        2965.50           1429       24337.00    106408.00
 1005.63        2965.75           1432       25806.00    112854.00
 1005.66        2966.00           1436       27809.00    121647.10
 1005.69        2966.25           1439       29275.00    128085.80
 1005.72        2966.50           1442       30447.00    133235.10
 1005.75        2966.75           1446       32337.00    141542.20
 1005.78        2967.00           1449       32697.00    143125.00
 1005.81        2967.25           1452       32967.00    144312.20
 1005.85        2967.50           1456       32921.00    144109.90
 1005.88        2967.75           1459       32965.00    144303.40
 1005.91        2968.00           1462       32727.00    143256.90
 1005.94        2968.25           1466       31923.00    139722.20
 1005.97        2968.50           1469       30853.00    135019.20
 1006.00        2968.75           1472       29405.00    128656.90
 1006.03        2969.00           1476       27341.00    119592.20
 1006.06        2969.25           1479       25909.00    113306.00
 1006.09        2969.50           1482       24320.00    106333.40
 1006.12        2969.75           1486       22593.00     98758.59
 1006.16        2970.00           1489       20961.00     91603.62
 1006.19        2970.25           1492       19497.00     85187.80
 1006.22        2970.50           1496       17438.00     76168.61
 1006.25        2970.75           1499       15703.00     68572.49
 1006.28        2971.00           1502       14302.00     62441.19
 1006.31        2971.25           1506       12179.00     53154.44
 1006.34        2971.50           1509       10700.00     46687.85
 1006.37        2971.75           1513        8847.00     38589.55
 1006.40        2972.00           1516        7306.00     31857.81
 1006.44        2972.25           1519        5848.00     25491.16
 1006.47        2972.50           1523        3990.00     17381.34
 1006.50        2972.75           1526        2432.00     10584.01
 1006.53        2973.00           1529        1134.00      4923.13
 1006.56        2973.25           1533         419.00      1805.68
 1006.59        2973.50           1536         302.00      1295.60
 1006.62        2973.75           1539         234.00       999.16
 1006.65        2974.00           1543         203.00       864.02
 1006.68        2974.25           1546         154.00       650.41
 1006.71        2974.50           1549         116.00       484.75
 1006.74        2974.75           1553          82.00       336.53
 1006.77        2975.00           1556          68.00       275.50
 1006.81        2975.25           1559          69.00       279.86
 1006.84        2975.50           1563          66.00       266.79
 1006.87        2975.75           1566          61.00       244.99
 1006.90        2976.00           1569          68.00       275.50
 1006.93        2976.25           1573          61.00       244.99
 1006.96        2976.50           1576          60.00       240.63
 1006.99        2976.75           1579          65.00       262.43
 1007.02        2977.00           1583          54.00       214.47
 1007.05        2977.25           1586          55.00       218.83
 1007.08        2977.50           1590          70.00       284.22
 1007.11        2977.75           1593          57.00       227.55
 1007.14        2978.00           1596          65.00       262.43
 1007.18        2978.25           1600          58.00       231.91
 1007.21        2978.50           1603          60.00       240.63
 1007.24        2978.75           1606          66.00       266.79
 1007.27        2979.00           1610          55.00       218.83
 1007.30        2979.25           1613          52.00       205.76
 1007.33        2979.50           1616          59.00       236.27
 1007.36        2979.75           1620          58.00       231.91
 1007.39        2980.00           1623          53.00       210.11
 1007.42        2980.25           1626          63.00       253.71
 1007.45        2980.50           1630          59.00       236.27
 1007.48        2980.75           1633          76.00       310.38
 1007.52        2981.00           1637          61.00       244.99
 1007.55        2981.25           1640          62.00       249.35
 1007.58        2981.50           1643          57.00       227.55
 1007.61        2981.75           1647          49.00       192.68
 1007.64        2982.00           1650          50.00       197.04
 1007.67        2982.25           1653          62.00       249.35
 1007.70        2982.50           1657          55.00       218.83
 1007.73        2982.75           1660          55.00       218.83
 1007.76        2983.00           1663          61.00       244.99
 1007.79        2983.25           1667          58.00       231.91
 1007.82        2983.50           1670          53.00       210.11
 1007.85        2983.75           1673          63.00       253.71
 1007.88        2984.00           1677          58.00       231.91
HS scan finished at 16:48:06
end
