************************************************************
  HS Scan of (1) Internal mercury lamp
************************************************************
Integration time is 0.2294 seconds per sample
dh041218Manchester 53.47 2.23 2.804185pr1000
************************************************************
Dead Time -------------------------  3E-08 
Number of Cycles Used -------------  4 
Starting Wavelength (Angstroms) ---  2950 
Final Wavelength (Angstoms) -------  2984 
Wavelength Increment (Angstroms) --  .25 
Filter Wheel #1 Position ---------- (1) Ground quartz diffuser (ND=2.32)
Filter Wheel #2 Position ---------- (1) Neutral Density 0.494



************************************************************
HS scan start time = 05:08:56
Dark Count =  4.2 


Time (GMT)  Wavelength (Ang)  Step Number  Raw Counts  Counts/Second

  309.30        2950.00           1222          57.00       230.17
  309.37        2950.25           1226          43.00       169.14
  309.40        2950.50           1229          49.00       195.29
  309.43        2950.75           1232          56.00       225.81
  309.46        2951.00           1236          43.00       169.14
  309.50        2951.25           1239          51.00       204.01
  309.53        2951.50           1242          46.00       182.22
  309.56        2951.75           1246          49.00       195.29
  309.59        2952.00           1249          50.00       199.65
  309.62        2952.25           1252          48.00       190.93
  309.65        2952.50           1256          50.00       199.65
  309.68        2952.75           1259          56.00       225.81
  309.71        2953.00           1262          51.00       204.01
  309.74        2953.25           1266          47.00       186.57
  309.77        2953.50           1269          43.00       169.14
  309.80        2953.75           1272          51.00       204.01
  309.84        2954.00           1276          43.00       169.14
  309.87        2954.25           1279          42.00       164.78
  309.90        2954.50           1282          48.00       190.93
  309.93        2954.75           1286          46.00       182.22
  309.96        2955.00           1289          48.00       190.93
  309.99        2955.25           1292          48.00       190.93
  310.02        2955.50           1296          54.00       217.09
  310.05        2955.75           1299          51.00       204.01
  310.08        2956.00           1302          47.00       186.57
  310.11        2956.25           1306          51.00       204.01
  310.14        2956.50           1309          41.00       160.42
  310.17        2956.75           1312          51.00       204.01
  310.21        2957.00           1316          46.00       182.22
  310.24        2957.25           1319          46.00       182.22
  310.27        2957.50           1322          53.00       212.73
  310.30        2957.75           1326          52.00       208.37
  310.33        2958.00           1329          45.00       177.86
  310.36        2958.25           1332          44.00       173.50
  310.39        2958.50           1336          48.00       190.93
  310.42        2958.75           1339          42.00       164.78
  310.45        2959.00           1342          49.00       195.29
  310.49        2959.25           1346          51.00       204.01
  310.52        2959.50           1349          52.00       208.37
  310.55        2959.75           1352          60.00       243.25
  310.58        2960.00           1356          76.00       312.99
  310.61        2960.25           1359          96.00       400.18
  310.64        2960.50           1362         132.00       557.11
  310.67        2960.75           1366         168.00       714.05
  310.70        2961.00           1369         188.00       801.24
  310.73        2961.25           1372         212.00       905.87
  310.76        2961.50           1376         283.00      1215.39
  310.80        2961.75           1379         460.00      1987.04
  310.83        2962.00           1382        1008.00      4376.34
  310.86        2962.25           1386        2352.00     10237.67
  310.89        2962.50           1389        3456.00     15053.88
  310.92        2962.75           1392        4697.00     20469.41
  310.95        2963.00           1396        6060.00     26419.36
  310.98        2963.25           1399        7142.00     31144.17
  311.01        2963.50           1402        8315.00     36267.86
  311.04        2963.75           1406        9753.00     42551.23
  311.07        2964.00           1409       11019.00     48085.01
  311.10        2964.25           1412       12081.00     52728.51
  311.14        2964.50           1416       13475.00     58825.61
  311.17        2964.75           1419       14735.00     64338.54
  311.20        2965.00           1422       15866.00     69288.60
  311.23        2965.25           1426       17418.00     76083.66
  311.26        2965.50           1429       18571.00     81133.60
  311.29        2965.75           1432       19798.00     86509.32
  311.32        2966.00           1436       21433.00     93675.26
  311.35        2966.25           1439       22369.00     97778.99
  311.38        2966.50           1442       23153.00    101217.10
  311.41        2966.75           1446       24242.00    105993.90
  311.44        2967.00           1449       24292.00    106213.20
  311.48        2967.25           1452       24371.00    106559.80
  311.51        2967.50           1456       24352.00    106476.50
  311.54        2967.75           1459       24342.00    106432.60
  311.57        2968.00           1462       24088.00    105318.30
  311.60        2968.25           1466       23292.00    101826.70
  311.63        2968.50           1469       22306.00     97502.75
  311.66        2968.75           1472       21292.00     93057.16
  311.69        2969.00           1476       19874.00     86842.35
  311.72        2969.25           1479       18846.00     82338.28
  311.75        2969.50           1482       17751.00     77542.00
  311.78        2969.75           1486       16119.00     70396.11
  311.81        2970.00           1489       15133.00     66080.31
  311.84        2970.25           1492       14037.00     61284.33
  311.88        2970.50           1496       12560.00     54823.32
  311.91        2970.75           1499       11344.00     49505.91
  311.94        2971.00           1502       10278.00     44845.82
  311.97        2971.25           1506        8753.00     38181.46
  312.00        2971.50           1509        7500.00     32707.76
  312.03        2971.75           1513        5907.00     25751.36
  312.06        2972.00           1516        4872.00     21233.22
  312.09        2972.25           1519        3851.00     16777.40
  312.12        2972.50           1523        2407.00     10477.57
  312.15        2972.75           1526        1434.00      6233.95
  312.18        2973.00           1529         634.00      2745.65
  312.22        2973.25           1533         339.00      1459.52
  312.25        2973.50           1536         262.00      1123.84
  312.28        2973.75           1539         221.00       945.10
  312.31        2974.00           1543         180.00       766.36
  312.34        2974.25           1546         139.00       587.63
  312.37        2974.50           1549         101.00       421.98
  312.40        2974.75           1553          70.00       286.84
  312.43        2975.00           1556          64.00       260.68
  312.46        2975.25           1559          54.00       217.09
  312.49        2975.50           1563          44.00       173.50
  312.52        2975.75           1566          48.00       190.93
  312.55        2976.00           1569          55.00       221.45
  312.59        2976.25           1573          48.00       190.93
  312.62        2976.50           1576          43.00       169.14
  312.65        2976.75           1579          49.00       195.29
  312.68        2977.00           1583          46.00       182.22
  312.71        2977.25           1586          39.00       151.70
  312.74        2977.50           1590          44.00       173.50
  312.77        2977.75           1593          48.00       190.93
  312.80        2978.00           1596          40.00       156.06
  312.83        2978.25           1600          40.00       156.06
  312.86        2978.50           1603          44.00       173.50
  312.89        2978.75           1606          48.00       190.93
  312.92        2979.00           1610          40.00       156.06
  312.95        2979.25           1613          46.00       182.22
  312.99        2979.50           1616          43.00       169.14
  313.02        2979.75           1620          49.00       195.29
  313.05        2980.00           1623          40.00       156.06
  313.08        2980.25           1626          46.00       182.22
  313.11        2980.50           1630          51.00       204.01
  313.14        2980.75           1633          51.00       204.01
  313.17        2981.00           1637          38.00       147.34
  313.20        2981.25           1640          43.00       169.14
  313.23        2981.50           1643          53.00       212.73
  313.26        2981.75           1647          44.00       173.50
  313.29        2982.00           1650          43.00       169.14
  313.32        2982.25           1653          49.00       195.29
  313.35        2982.50           1657          45.00       177.86
  313.38        2982.75           1660          40.00       156.06
  313.41        2983.00           1663          40.00       156.06
  313.45        2983.25           1667          41.00       160.42
  313.48        2983.50           1670          42.00       164.78
  313.51        2983.75           1673          41.00       160.42
  313.54        2984.00           1677          46.00       182.22
HS scan finished at 05:13:45
end
************************************************************
  HS Scan of (1) Internal mercury lamp
************************************************************
Integration time is 0.2294 seconds per sample
dh041218Manchester 53.47 2.23 2.804185pr1000
************************************************************
Dead Time -------------------------  3E-08 
Number of Cycles Used -------------  4 
Starting Wavelength (Angstroms) ---  2950 
Final Wavelength (Angstoms) -------  2984 
Wavelength Increment (Angstroms) --  .25 
Filter Wheel #1 Position ---------- (1) Ground quartz diffuser (ND=2.32)
Filter Wheel #2 Position ---------- (1) Neutral Density 0.494



************************************************************
HS scan start time = 16:42:04
Dark Count =  6.9 


Time (GMT)  Wavelength (Ang)  Step Number  Raw Counts  Counts/Second

 1002.43        2950.00           1222          54.00       205.32
 1002.50        2950.25           1226          51.00       192.24
 1002.53        2950.50           1229          46.00       170.45
 1002.56        2950.75           1232          52.00       196.60
 1002.59        2951.00           1236          53.00       200.96
 1002.62        2951.25           1239          50.00       187.88
 1002.65        2951.50           1242          47.00       174.80
 1002.68        2951.75           1246          48.00       179.16
 1002.72        2952.00           1249          57.00       218.40
 1002.75        2952.25           1252          50.00       187.88
 1002.78        2952.50           1256          50.00       187.88
 1002.81        2952.75           1259          50.00       187.88
 1002.84        2953.00           1262          50.00       187.88
 1002.87        2953.25           1266          54.00       205.32
 1002.90        2953.50           1269          54.00       205.32
 1002.93        2953.75           1272          51.00       192.24
 1002.96        2954.00           1276          43.00       157.37
 1002.99        2954.25           1279          50.00       187.88
 1003.02        2954.50           1282          45.00       166.09
 1003.05        2954.75           1286          40.00       144.29
 1003.08        2955.00           1289          58.00       222.76
 1003.11        2955.25           1292          54.00       205.32
 1003.15        2955.50           1296          53.00       200.96
 1003.18        2955.75           1299          45.00       166.09
 1003.21        2956.00           1302          50.00       187.88
 1003.24        2956.25           1306          47.00       174.80
 1003.27        2956.50           1309          55.00       209.68
 1003.30        2956.75           1312          52.00       196.60
 1003.33        2957.00           1316          48.00       179.16
 1003.36        2957.25           1319          41.00       148.65
 1003.39        2957.50           1322          50.00       187.88
 1003.42        2957.75           1326          54.00       205.32
 1003.45        2958.00           1329          45.00       166.09
 1003.48        2958.25           1332          50.00       187.88
 1003.51        2958.50           1336          47.00       174.80
 1003.54        2958.75           1339          48.00       179.16
 1003.57        2959.00           1342          42.00       153.01
 1003.60        2959.25           1346          54.00       205.32
 1003.63        2959.50           1349          57.00       218.40
 1003.66        2959.75           1352          57.00       218.40
 1003.70        2960.00           1356          77.00       305.58
 1003.73        2960.25           1359         100.00       405.85
 1003.76        2960.50           1362         116.00       475.60
 1003.79        2960.75           1366         158.00       658.69
 1003.82        2961.00           1369         179.00       750.23
 1003.85        2961.25           1372         220.00       928.97
 1003.88        2961.50           1376         298.00      1269.01
 1003.91        2961.75           1379         394.00      1687.53
 1003.94        2962.00           1382         824.00      3562.28
 1003.97        2962.25           1386        2010.00      8734.20
 1004.00        2962.50           1389        3134.00     13637.23
 1004.03        2962.75           1392        4211.00     18336.59
 1004.07        2963.00           1396        5645.00     24595.74
 1004.10        2963.25           1399        6781.00     29555.84
 1004.13        2963.50           1402        7996.00     34862.51
 1004.16        2963.75           1406        9570.00     41739.68
 1004.19        2964.00           1409       10679.00     46586.86
 1004.22        2964.25           1412       11906.00     51951.44
 1004.25        2964.50           1416       13106.00     57199.64
 1004.28        2964.75           1419       14298.00     62414.49
 1004.31        2965.00           1422       15474.00     67560.95
 1004.34        2965.25           1426       17001.00     74245.84
 1004.37        2965.50           1429       18153.00     79290.83
 1004.41        2965.75           1432       19151.00     83662.65
 1004.44        2966.00           1436       20705.00     90472.34
 1004.47        2966.25           1439       21809.00     95311.81
 1004.50        2966.50           1442       22860.00     99920.26
 1004.53        2966.75           1446       23785.00    103977.30
 1004.56        2967.00           1449       23957.00    104731.80
 1004.59        2967.25           1452       24062.00    105192.40
 1004.62        2967.50           1456       24064.00    105201.20
 1004.65        2967.75           1459       24068.00    105218.70
 1004.68        2968.00           1462       24027.00    105038.90
 1004.71        2968.25           1466       23289.00    101801.70
 1004.75        2968.50           1469       22049.00     96364.06
 1004.78        2968.75           1472       21050.00     91984.53
 1004.81        2969.00           1476       19693.00     86037.40
 1004.84        2969.25           1479       18525.00     80920.27
 1004.87        2969.50           1482       17335.00     75708.38
 1004.90        2969.75           1486       16033.00     70007.83
 1004.93        2970.00           1489       14835.00     64764.33
 1004.96        2970.25           1492       13927.00     60791.24
 1004.99        2970.50           1496       12482.00     54470.37
 1005.03        2970.75           1499       11312.00     49354.19
 1005.06        2971.00           1502       10329.00     45056.94
 1005.09        2971.25           1506        8892.00     38776.99
 1005.12        2971.50           1509        7661.00     33399.18
 1005.15        2971.75           1513        6164.00     26861.66
 1005.18        2972.00           1516        5036.00     21937.28
 1005.21        2972.25           1519        3922.00     17075.44
 1005.24        2972.50           1523        2515.00     10936.89
 1005.27        2972.75           1526        1513.00      6566.68
 1005.30        2973.00           1529         700.00      3021.63
 1005.33        2973.25           1533         318.00      1356.20
 1005.37        2973.50           1536         243.00      1029.24
 1005.40        2973.75           1539         220.00       928.97
 1005.43        2974.00           1543         185.00       776.39
 1005.46        2974.25           1546         137.00       567.14
 1005.49        2974.50           1549         112.00       458.16
 1005.52        2974.75           1553          87.00       349.18
 1005.55        2975.00           1556          65.00       253.27
 1005.58        2975.25           1559          51.00       192.24
 1005.61        2975.50           1563          59.00       227.12
 1005.64        2975.75           1566          59.00       227.12
 1005.67        2976.00           1569          43.00       157.37
 1005.70        2976.25           1573          48.00       179.16
 1005.73        2976.50           1576          44.00       161.73
 1005.76        2976.75           1579          54.00       205.32
 1005.80        2977.00           1583          38.00       135.57
 1005.83        2977.25           1586          45.00       166.09
 1005.86        2977.50           1590          47.00       174.80
 1005.89        2977.75           1593          41.00       148.65
 1005.92        2978.00           1596          51.00       192.24
 1005.95        2978.25           1600          49.00       183.52
 1005.98        2978.50           1603          42.00       153.01
 1006.01        2978.75           1606          46.00       170.45
 1006.04        2979.00           1610          44.00       161.73
 1006.07        2979.25           1613          49.00       183.52
 1006.11        2979.50           1616          41.00       148.65
 1006.14        2979.75           1620          53.00       200.96
 1006.17        2980.00           1623          49.00       183.52
 1006.20        2980.25           1626          41.00       148.65
 1006.23        2980.50           1630          41.00       148.65
 1006.26        2980.75           1633          49.00       183.52
 1006.29        2981.00           1637          34.00       118.13
 1006.32        2981.25           1640          41.00       148.65
 1006.35        2981.50           1643          43.00       157.37
 1006.38        2981.75           1647          48.00       179.16
 1006.41        2982.00           1650          41.00       148.65
 1006.44        2982.25           1653          42.00       153.01
 1006.47        2982.50           1657          50.00       187.88
 1006.50        2982.75           1660          44.00       161.73
 1006.53        2983.00           1663          50.00       187.88
 1006.57        2983.25           1667          47.00       174.80
 1006.60        2983.50           1670          42.00       153.01
 1006.63        2983.75           1673          39.00       139.93
 1006.66        2984.00           1677          44.00       161.73
HS scan finished at 16:46:53
end
