************************************************************
  HS Scan of (1) Internal mercury lamp
************************************************************
Integration time is 0.2294 seconds per sample
dh301117Manchester 53.47 2.23 2.804185pr1000
************************************************************
Dead Time -------------------------  3E-08 
Number of Cycles Used -------------  4 
Starting Wavelength (Angstroms) ---  2950 
Final Wavelength (Angstoms) -------  2984 
Wavelength Increment (Angstroms) --  .25 
Filter Wheel #1 Position ---------- (1) Ground quartz diffuser (ND=2.32)
Filter Wheel #2 Position ---------- (1) Neutral Density 0.494



************************************************************
HS scan start time = 16:43:15
Dark Count =  7.6 


Time (GMT)  Wavelength (Ang)  Step Number  Raw Counts  Counts/Second

 1003.61        2950.00           1222          63.00       241.50
 1003.68        2950.25           1226          60.00       228.42
 1003.71        2950.50           1229          65.00       250.22
 1003.74        2950.75           1232          66.00       254.58
 1003.77        2951.00           1236          65.00       250.22
 1003.80        2951.25           1239          66.00       254.58
 1003.83        2951.50           1242          64.00       245.86
 1003.86        2951.75           1246          64.00       245.86
 1003.90        2952.00           1249          67.00       258.94
 1003.93        2952.25           1252          62.00       237.14
 1003.96        2952.50           1256          66.00       254.58
 1003.99        2952.75           1259          66.00       254.58
 1004.02        2953.00           1262          73.00       285.09
 1004.05        2953.25           1266          67.00       258.94
 1004.08        2953.50           1269          64.00       245.86
 1004.11        2953.75           1272          66.00       254.58
 1004.14        2954.00           1276          75.00       293.81
 1004.17        2954.25           1279          81.00       319.97
 1004.20        2954.50           1282          74.00       289.45
 1004.23        2954.75           1286          63.00       241.50
 1004.27        2955.00           1289          56.00       210.99
 1004.30        2955.25           1292          59.00       224.06
 1004.33        2955.50           1296          66.00       254.58
 1004.36        2955.75           1299          63.00       241.50
 1004.39        2956.00           1302          58.00       219.71
 1004.42        2956.25           1306          66.00       254.58
 1004.45        2956.50           1309          60.00       228.42
 1004.48        2956.75           1312          65.00       250.22
 1004.51        2957.00           1316          65.00       250.22
 1004.54        2957.25           1319          64.00       245.86
 1004.57        2957.50           1322          69.00       267.66
 1004.60        2957.75           1326          61.00       232.78
 1004.63        2958.00           1329          66.00       254.58
 1004.66        2958.25           1332          66.00       254.58
 1004.69        2958.50           1336          59.00       224.06
 1004.72        2958.75           1339          63.00       241.50
 1004.76        2959.00           1342          63.00       241.50
 1004.79        2959.25           1346          70.00       272.02
 1004.82        2959.50           1349          77.00       302.53
 1004.85        2959.75           1352          90.00       359.20
 1004.88        2960.00           1356         120.00       489.98
 1004.91        2960.25           1359         149.00       616.40
 1004.94        2960.50           1362         189.00       790.78
 1004.97        2960.75           1366         251.00      1061.06
 1005.00        2961.00           1369         278.00      1178.77
 1005.03        2961.25           1372         315.00      1340.07
 1005.06        2961.50           1376         385.00      1645.24
 1005.09        2961.75           1379         583.00      2508.47
 1005.12        2962.00           1382        1199.00      5194.36
 1005.16        2962.25           1386        2905.00     12635.13
 1005.19        2962.50           1389        4285.00     18656.47
 1005.22        2962.75           1392        5777.00     25168.95
 1005.25        2963.00           1396        7668.00     33426.70
 1005.28        2963.25           1399        9182.00     40041.10
 1005.31        2963.50           1402       10739.00     46846.09
 1005.34        2963.75           1406       12699.00     55416.39
 1005.37        2964.00           1409       14529.00     63422.22
 1005.40        2964.25           1412       15960.00     69685.20
 1005.44        2964.50           1416       18024.00     78722.76
 1005.47        2964.75           1419       19772.00     86380.50
 1005.50        2965.00           1422       21282.00     92998.41
 1005.53        2965.25           1426       23591.00    103123.30
 1005.56        2965.50           1429       24897.00    108852.70
 1005.59        2965.75           1432       26437.00    115611.30
 1005.62        2966.00           1436       28699.00    125543.50
 1005.65        2966.25           1439       30126.00    131812.30
 1005.69        2966.50           1442       31513.00    137907.70
 1005.72        2966.75           1446       32916.00    144075.60
 1005.75        2967.00           1449       33096.00    144867.10
 1005.78        2967.25           1452       33274.00    145649.90
 1005.81        2967.50           1456       33127.00    145003.40
 1005.84        2967.75           1459       33181.00    145240.90
 1005.87        2968.00           1462       32947.00    144211.90
 1005.90        2968.25           1466       31986.00    139986.90
 1005.93        2968.50           1469       30700.00    134334.50
 1005.97        2968.75           1472       29220.00    127831.90
 1006.00        2969.00           1476       27324.00    119505.30
 1006.03        2969.25           1479       25874.00    113140.10
 1006.06        2969.50           1482       24501.00    107115.30
 1006.09        2969.75           1486       22352.00     97689.54
 1006.12        2970.00           1489       20828.00     91008.38
 1006.15        2970.25           1492       19475.00     85079.12
 1006.18        2970.50           1496       17305.00     75573.94
 1006.21        2970.75           1499       15817.00     69059.23
 1006.24        2971.00           1502       14297.00     62407.06
 1006.27        2971.25           1506       12257.00     53483.31
 1006.31        2971.50           1509       10584.00     46168.53
 1006.34        2971.75           1513        8625.00     37607.36
 1006.37        2972.00           1516        7090.00     30902.22
 1006.40        2972.25           1519        5540.00     24134.30
 1006.43        2972.50           1523        3544.00     15423.00
 1006.46        2972.75           1526        2220.00      9647.08
 1006.49        2973.00           1529         998.00      4317.91
 1006.52        2973.25           1533         444.00      1902.46
 1006.55        2973.50           1536         327.00      1392.39
 1006.58        2973.75           1539         256.00      1082.86
 1006.61        2974.00           1543         221.00       930.28
 1006.64        2974.25           1546         161.00       668.71
 1006.68        2974.50           1549         128.00       524.86
 1006.71        2974.75           1553          90.00       359.20
 1006.74        2975.00           1556          83.00       328.69
 1006.77        2975.25           1559          65.00       250.22
 1006.80        2975.50           1563          74.00       289.45
 1006.83        2975.75           1566          61.00       232.78
 1006.86        2976.00           1569          59.00       224.06
 1006.89        2976.25           1573          68.00       263.30
 1006.92        2976.50           1576          55.00       206.63
 1006.95        2976.75           1579          61.00       232.78
 1006.98        2977.00           1583          61.00       232.78
 1007.01        2977.25           1586          64.00       245.86
 1007.04        2977.50           1590          55.00       206.63
 1007.07        2977.75           1593          60.00       228.42
 1007.11        2978.00           1596          55.00       206.63
 1007.14        2978.25           1600          57.00       215.35
 1007.17        2978.50           1603          63.00       241.50
 1007.20        2978.75           1606          51.00       189.19
 1007.23        2979.00           1610          63.00       241.50
 1007.26        2979.25           1613          66.00       254.58
 1007.29        2979.50           1616          58.00       219.71
 1007.32        2979.75           1620          57.00       215.35
 1007.35        2980.00           1623          53.00       197.91
 1007.38        2980.25           1626          66.00       254.58
 1007.42        2980.50           1630          59.00       224.06
 1007.45        2980.75           1633          63.00       241.50
 1007.48        2981.00           1637          56.00       210.99
 1007.51        2981.25           1640          51.00       189.19
 1007.54        2981.50           1643          57.00       215.35
 1007.57        2981.75           1647          58.00       219.71
 1007.60        2982.00           1650          59.00       224.06
 1007.63        2982.25           1653          61.00       232.78
 1007.66        2982.50           1657          51.00       189.19
 1007.69        2982.75           1660          67.00       258.94
 1007.72        2983.00           1663          55.00       206.63
 1007.76        2983.25           1667          53.00       197.91
 1007.79        2983.50           1670          60.00       228.42
 1007.82        2983.75           1673          68.00       263.30
 1007.85        2984.00           1677          56.00       210.99
HS scan finished at 16:48:04
end
