************************************************************
  HS Scan of (1) Internal mercury lamp
************************************************************
Integration time is 0.2294 seconds per sample
dh301118Manchester 53.47 2.23 2.804185pr1000
************************************************************
Dead Time -------------------------  3E-08 
Number of Cycles Used -------------  4 
Starting Wavelength (Angstroms) ---  2950 
Final Wavelength (Angstoms) -------  2984 
Wavelength Increment (Angstroms) --  .25 
Filter Wheel #1 Position ---------- (1) Ground quartz diffuser (ND=2.32)
Filter Wheel #2 Position ---------- (1) Neutral Density 0.494



************************************************************
HS scan start time = 16:42:04
Dark Count =  5.8 


Time (GMT)  Wavelength (Ang)  Step Number  Raw Counts  Counts/Second

 1002.44        2950.00           1222          53.00       205.76
 1002.51        2950.25           1226          56.00       218.83
 1002.54        2950.50           1229          46.00       175.24
 1002.57        2950.75           1232          44.00       166.52
 1002.60        2951.00           1236          46.00       175.24
 1002.63        2951.25           1239          50.00       192.68
 1002.66        2951.50           1242          44.00       166.52
 1002.69        2951.75           1246          46.00       175.24
 1002.72        2952.00           1249          50.00       192.68
 1002.75        2952.25           1252          51.00       197.04
 1002.79        2952.50           1256          49.00       188.32
 1002.82        2952.75           1259          51.00       197.04
 1002.85        2953.00           1262          57.00       223.19
 1002.88        2953.25           1266          54.00       210.11
 1002.91        2953.50           1269          46.00       175.24
 1002.94        2953.75           1272          48.00       183.96
 1002.97        2954.00           1276          51.00       197.04
 1003.00        2954.25           1279          53.00       205.76
 1003.03        2954.50           1282          48.00       183.96
 1003.06        2954.75           1286          45.00       170.88
 1003.09        2955.00           1289          46.00       175.24
 1003.13        2955.25           1292          50.00       192.68
 1003.16        2955.50           1296          46.00       175.24
 1003.19        2955.75           1299          54.00       210.11
 1003.22        2956.00           1302          47.00       179.60
 1003.25        2956.25           1306          54.00       210.11
 1003.28        2956.50           1309          49.00       188.32
 1003.31        2956.75           1312          42.00       157.80
 1003.34        2957.00           1316          53.00       205.76
 1003.37        2957.25           1319          44.00       166.52
 1003.40        2957.50           1322          39.00       144.73
 1003.43        2957.75           1326          51.00       197.04
 1003.46        2958.00           1329          47.00       179.60
 1003.50        2958.25           1332          51.00       197.04
 1003.53        2958.50           1336          50.00       192.68
 1003.56        2958.75           1339          49.00       188.32
 1003.59        2959.00           1342          51.00       197.04
 1003.62        2959.25           1346          55.00       214.47
 1003.65        2959.50           1349          61.00       240.63
 1003.68        2959.75           1352          62.00       244.99
 1003.71        2960.00           1356          75.00       301.66
 1003.74        2960.25           1359         100.00       410.64
 1003.77        2960.50           1362         125.00       519.62
 1003.80        2960.75           1366         159.00       667.84
 1003.83        2961.00           1369         197.00       833.50
 1003.86        2961.25           1372         239.00      1016.60
 1003.89        2961.50           1376         321.00      1374.08
 1003.92        2961.75           1379         523.00      2254.73
 1003.96        2962.00           1382        1253.00      5437.68
 1003.99        2962.25           1386        2578.00     11216.50
 1004.02        2962.50           1389        3752.00     16338.44
 1004.05        2962.75           1392        4804.00     20929.44
 1004.08        2963.00           1396        6341.00     27639.30
 1004.11        2963.25           1399        7434.00     32412.50
 1004.14        2963.50           1402        8474.00     36955.51
 1004.17        2963.75           1406        9979.00     43531.97
 1004.20        2964.00           1409       11001.00     47999.32
 1004.23        2964.25           1412       12253.00     53473.69
 1004.27        2964.50           1416       13779.00     60148.55
 1004.30        2964.75           1419       14916.00     65123.63
 1004.33        2965.00           1422       16071.00     70179.00
 1004.36        2965.25           1426       17747.00     77517.46
 1004.39        2965.50           1429       18957.00     82817.54
 1004.42        2965.75           1432       19968.00     87247.24
 1004.45        2966.00           1436       21479.00     93869.90
 1004.48        2966.25           1439       22765.00     99508.48
 1004.51        2966.50           1442       23645.00    103368.00
 1004.54        2966.75           1446       24669.00    107860.20
 1004.57        2967.00           1449       24837.00    108597.40
 1004.60        2967.25           1452       24924.00    108979.10
 1004.63        2967.50           1456       24708.00    108031.30
 1004.67        2967.75           1459       24872.00    108750.90
 1004.70        2968.00           1462       24650.00    107776.90
 1004.73        2968.25           1466       23830.00    104179.50
 1004.76        2968.50           1469       22704.00     99240.97
 1004.79        2968.75           1472       21621.00     94492.43
 1004.82        2969.00           1476       20106.00     87851.99
 1004.85        2969.25           1479       19130.00     83575.46
 1004.88        2969.50           1482       17792.00     77714.53
 1004.91        2969.75           1486       16441.00     71798.78
 1004.94        2970.00           1489       15351.00     67027.41
 1004.98        2970.25           1492       14185.00     61924.87
 1005.01        2970.50           1496       12711.00     55476.74
 1005.04        2970.75           1499       11447.00     49949.25
 1005.07        2971.00           1502       10227.00     44615.91
 1005.10        2971.25           1506        8669.00     37807.47
 1005.13        2971.50           1509        7653.00     33369.05
 1005.16        2971.75           1513        6104.00     26604.49
 1005.19        2972.00           1516        4903.00     21361.55
 1005.22        2972.25           1519        3812.00     16600.24
 1005.25        2972.50           1523        2412.00     10492.40
 1005.28        2972.75           1526        1328.00      5764.73
 1005.32        2973.00           1529         614.00      2651.48
 1005.35        2973.25           1533         300.00      1282.53
 1005.38        2973.50           1536         242.00      1029.67
 1005.41        2973.75           1539         207.00       877.09
 1005.44        2974.00           1543         176.00       741.95
 1005.47        2974.25           1546         133.00       554.50
 1005.50        2974.50           1549         108.00       445.52
 1005.53        2974.75           1553          75.00       301.66
 1005.56        2975.00           1556          64.00       253.71
 1005.59        2975.25           1559          56.00       218.83
 1005.63        2975.50           1563          47.00       179.60
 1005.66        2975.75           1566          44.00       166.52
 1005.69        2976.00           1569          51.00       197.04
 1005.72        2976.25           1573          46.00       175.24
 1005.75        2976.50           1576          44.00       166.52
 1005.78        2976.75           1579          42.00       157.80
 1005.81        2977.00           1583          44.00       166.52
 1005.84        2977.25           1586          45.00       170.88
 1005.87        2977.50           1590          42.00       157.80
 1005.90        2977.75           1593          45.00       170.88
 1005.93        2978.00           1596          44.00       166.52
 1005.96        2978.25           1600          43.00       162.16
 1006.00        2978.50           1603          38.00       140.37
 1006.03        2978.75           1606          50.00       192.68
 1006.06        2979.00           1610          38.00       140.37
 1006.09        2979.25           1613          42.00       157.80
 1006.12        2979.50           1616          40.00       149.09
 1006.15        2979.75           1620          45.00       170.88
 1006.18        2980.00           1623          43.00       162.16
 1006.21        2980.25           1626          47.00       179.60
 1006.24        2980.50           1630          43.00       162.16
 1006.27        2980.75           1633          43.00       162.16
 1006.30        2981.00           1637          43.00       162.16
 1006.34        2981.25           1640          44.00       166.52
 1006.37        2981.50           1643          49.00       188.32
 1006.40        2981.75           1647          43.00       162.16
 1006.43        2982.00           1650          45.00       170.88
 1006.46        2982.25           1653          45.00       170.88
 1006.49        2982.50           1657          51.00       197.04
 1006.52        2982.75           1660          46.00       175.24
 1006.55        2983.00           1663          45.00       170.88
 1006.58        2983.25           1667          41.00       153.44
 1006.61        2983.50           1670          45.00       170.88
 1006.64        2983.75           1673          57.00       223.19
 1006.68        2984.00           1677          38.00       140.37
HS scan finished at 16:46:53
end
