************************************************************
  HS Scan of (1) Internal mercury lamp
************************************************************
Integration time is 0.2294 seconds per sample
dh291118Manchester 53.47 2.23 2.804185pr1000
************************************************************
Dead Time -------------------------  3E-08 
Number of Cycles Used -------------  4 
Starting Wavelength (Angstroms) ---  2950 
Final Wavelength (Angstoms) -------  2984 
Wavelength Increment (Angstroms) --  .25 
Filter Wheel #1 Position ---------- (1) Ground quartz diffuser (ND=2.32)
Filter Wheel #2 Position ---------- (1) Neutral Density 0.494



************************************************************
HS scan start time = 16:42:00
Dark Count =  8.399999 


Time (GMT)  Wavelength (Ang)  Step Number  Raw Counts  Counts/Second

 1002.37        2950.00           1222          50.00       181.34
 1002.44        2950.25           1226          45.00       159.55
 1002.47        2950.50           1229          45.00       159.55
 1002.50        2950.75           1232          51.00       185.70
 1002.53        2951.00           1236          44.00       155.19
 1002.56        2951.25           1239          45.00       159.55
 1002.59        2951.50           1242          47.00       168.27
 1002.62        2951.75           1246          53.00       194.42
 1002.65        2952.00           1249          51.00       185.70
 1002.68        2952.25           1252          57.00       211.86
 1002.71        2952.50           1256          54.00       198.78
 1002.74        2952.75           1259          52.00       190.06
 1002.77        2953.00           1262          43.00       150.83
 1002.81        2953.25           1266          54.00       198.78
 1002.84        2953.50           1269          50.00       181.34
 1002.87        2953.75           1272          53.00       194.42
 1002.90        2954.00           1276          50.00       181.34
 1002.93        2954.25           1279          47.00       168.27
 1002.96        2954.50           1282          48.00       172.63
 1002.99        2954.75           1286          41.00       142.11
 1003.02        2955.00           1289          45.00       159.55
 1003.05        2955.25           1292          49.00       176.98
 1003.08        2955.50           1296          49.00       176.98
 1003.11        2955.75           1299          45.00       159.55
 1003.15        2956.00           1302          45.00       159.55
 1003.18        2956.25           1306          45.00       159.55
 1003.21        2956.50           1309          52.00       190.06
 1003.24        2956.75           1312          48.00       172.63
 1003.27        2957.00           1316          47.00       168.27
 1003.30        2957.25           1319          50.00       181.34
 1003.33        2957.50           1322          43.00       150.83
 1003.36        2957.75           1326          48.00       172.63
 1003.39        2958.00           1329          50.00       181.34
 1003.42        2958.25           1332          55.00       203.14
 1003.45        2958.50           1336          50.00       181.34
 1003.48        2958.75           1339          49.00       176.98
 1003.51        2959.00           1342          57.00       211.86
 1003.55        2959.25           1346          43.00       150.83
 1003.58        2959.50           1349          48.00       172.63
 1003.61        2959.75           1352          64.00       242.37
 1003.64        2960.00           1356          81.00       316.48
 1003.67        2960.25           1359          99.00       394.95
 1003.70        2960.50           1362         131.00       534.45
 1003.73        2960.75           1366         163.00       673.95
 1003.76        2961.00           1369         220.00       922.43
 1003.79        2961.25           1372         230.00       966.03
 1003.82        2961.50           1376         285.00      1205.80
 1003.85        2961.75           1379         397.00      1694.07
 1003.88        2962.00           1382         875.00      3778.11
 1003.92        2962.25           1386        2150.00      9338.27
 1003.95        2962.50           1389        3218.00     13997.16
 1003.98        2962.75           1392        4232.00     18421.69
 1004.01        2963.00           1396        5593.00     24362.18
 1004.04        2963.25           1399        7012.00     30558.08
 1004.07        2963.50           1402        8129.00     35436.96
 1004.10        2963.75           1406        9638.00     42030.30
 1004.13        2964.00           1409       10928.00     47668.82
 1004.16        2964.25           1412       12124.00     52898.18
 1004.19        2964.50           1416       13799.00     60224.67
 1004.23        2964.75           1419       14871.00     64915.31
 1004.26        2965.00           1422       16001.00     69861.18
 1004.29        2965.25           1426       17573.00     76744.06
 1004.32        2965.50           1429       18649.00     81456.88
 1004.35        2965.75           1432       19863.00     86775.74
 1004.38        2966.00           1436       21412.00     93564.79
 1004.41        2966.25           1439       22520.00     98422.71
 1004.44        2966.50           1442       23414.00    102343.40
 1004.47        2966.75           1446       24671.00    107857.60
 1004.50        2967.00           1449       24907.00    108893.10
 1004.54        2967.25           1452       24930.00    108994.00
 1004.57        2967.50           1456       24982.00    109222.20
 1004.60        2967.75           1459       24832.00    108564.00
 1004.63        2968.00           1462       24819.00    108507.00
 1004.66        2968.25           1466       24025.00    105023.50
 1004.69        2968.50           1469       23043.00    100716.20
 1004.72        2968.75           1472       22171.00     96892.40
 1004.75        2969.00           1476       20284.00     88620.65
 1004.78        2969.25           1479       19310.00     84352.69
 1004.82        2969.50           1482       18192.00     79455.08
 1004.85        2969.75           1486       16742.00     73105.24
 1004.88        2970.00           1489       15511.00     67716.33
 1004.91        2970.25           1492       14362.00     62687.97
 1004.94        2970.50           1496       13017.00     56803.78
 1004.97        2970.75           1499       11801.00     51485.74
 1005.00        2971.00           1502       10738.00     46838.22
 1005.03        2971.25           1506        9217.00     40190.54
 1005.06        2971.50           1509        7968.00     34733.65
 1005.09        2971.75           1513        6574.00     28645.36
 1005.13        2972.00           1516        5410.00     23563.30
 1005.16        2972.25           1519        4241.00     18460.96
 1005.19        2972.50           1523        2696.00     11719.90
 1005.22        2972.75           1526        1655.00      7179.40
 1005.25        2973.00           1529         729.00      3141.53
 1005.28        2973.25           1533         333.00      1415.06
 1005.31        2973.50           1536         247.00      1040.14
 1005.34        2973.75           1539         208.00       870.12
 1005.37        2974.00           1543         185.00       769.85
 1005.41        2974.25           1546         142.00       582.40
 1005.44        2974.50           1549         108.00       434.18
 1005.47        2974.75           1553          69.00       264.17
 1005.50        2975.00           1556          49.00       176.98
 1005.53        2975.25           1559          46.00       163.91
 1005.56        2975.50           1563          48.00       172.63
 1005.59        2975.75           1566          43.00       150.83
 1005.62        2976.00           1569          47.00       168.27
 1005.65        2976.25           1573          46.00       163.91
 1005.68        2976.50           1576          48.00       172.63
 1005.71        2976.75           1579          43.00       150.83
 1005.74        2977.00           1583          48.00       172.63
 1005.78        2977.25           1586          43.00       150.83
 1005.81        2977.50           1590          48.00       172.63
 1005.84        2977.75           1593          46.00       163.91
 1005.87        2978.00           1596          40.00       137.75
 1005.90        2978.25           1600          48.00       172.63
 1005.93        2978.50           1603          42.00       146.47
 1005.96        2978.75           1606          55.00       203.14
 1005.99        2979.00           1610          37.00       124.67
 1006.02        2979.25           1613          44.00       155.19
 1006.05        2979.50           1616          37.00       124.67
 1006.08        2979.75           1620          46.00       163.91
 1006.11        2980.00           1623          47.00       168.27
 1006.14        2980.25           1626          53.00       194.42
 1006.17        2980.50           1630          48.00       172.63
 1006.20        2980.75           1633          40.00       137.75
 1006.23        2981.00           1637          41.00       142.11
 1006.26        2981.25           1640          38.00       129.03
 1006.29        2981.50           1643          34.00       111.60
 1006.33        2981.75           1647          41.00       142.11
 1006.36        2982.00           1650          39.00       133.39
 1006.39        2982.25           1653          43.00       150.83
 1006.42        2982.50           1657          47.00       168.27
 1006.45        2982.75           1660          41.00       142.11
 1006.48        2983.00           1663          45.00       159.55
 1006.51        2983.25           1667          41.00       142.11
 1006.54        2983.50           1670          46.00       163.91
 1006.57        2983.75           1673          42.00       146.47
 1006.60        2984.00           1677          45.00       159.55
HS scan finished at 16:46:49
end
