************************************************************
  HS Scan of (1) Internal mercury lamp
************************************************************
Integration time is 0.2294 seconds per sample
dh011217Manchester 53.47 2.23 2.750537pr1000
************************************************************
Dead Time -------------------------  3E-08 
Number of Cycles Used -------------  4 
Starting Wavelength (Angstroms) ---  2950 
Final Wavelength (Angstoms) -------  2984 
Wavelength Increment (Angstroms) --  .25 
Filter Wheel #1 Position ---------- (1) Ground quartz diffuser (ND=2.32)
Filter Wheel #2 Position ---------- (1) Neutral Density 0.494



************************************************************
HS scan start time = 05:05:50
Dark Count =  7.9 


Time (GMT)  Wavelength (Ang)  Step Number  Raw Counts  Counts/Second

  306.21        2950.00           1222          64.00       244.55
  306.28        2950.25           1226          70.00       270.71
  306.31        2950.50           1229          58.00       218.40
  306.34        2950.75           1232          63.00       240.19
  306.37        2951.00           1236          64.00       244.55
  306.40        2951.25           1239          61.00       231.48
  306.43        2951.50           1242          66.00       253.27
  306.46        2951.75           1246          63.00       240.19
  306.49        2952.00           1249          64.00       244.55
  306.52        2952.25           1252          64.00       244.55
  306.55        2952.50           1256          68.00       261.99
  306.58        2952.75           1259          57.00       214.04
  306.62        2953.00           1262          64.00       244.55
  306.65        2953.25           1266          64.00       244.55
  306.68        2953.50           1269          65.00       248.91
  306.71        2953.75           1272          66.00       253.27
  306.74        2954.00           1276          61.00       231.48
  306.77        2954.25           1279          63.00       240.19
  306.80        2954.50           1282          68.00       261.99
  306.83        2954.75           1286          66.00       253.27
  306.86        2955.00           1289          66.00       253.27
  306.89        2955.25           1292          60.00       227.12
  306.92        2955.50           1296          67.00       257.63
  306.95        2955.75           1299          67.00       257.63
  306.98        2956.00           1302          63.00       240.19
  307.02        2956.25           1306          60.00       227.12
  307.05        2956.50           1309          70.00       270.71
  307.08        2956.75           1312          61.00       231.48
  307.11        2957.00           1316          60.00       227.12
  307.14        2957.25           1319          61.00       231.48
  307.17        2957.50           1322          62.00       235.83
  307.20        2957.75           1326          62.00       235.83
  307.23        2958.00           1329          63.00       240.19
  307.26        2958.25           1332          57.00       214.04
  307.29        2958.50           1336          61.00       231.48
  307.32        2958.75           1339          53.00       196.60
  307.35        2959.00           1342          54.00       200.96
  307.39        2959.25           1346          66.00       253.27
  307.42        2959.50           1349          73.00       283.79
  307.45        2959.75           1352          95.00       379.69
  307.48        2960.00           1356         123.00       501.75
  307.51        2960.25           1359         161.00       667.41
  307.54        2960.50           1362         200.00       837.42
  307.57        2960.75           1366         238.00      1003.08
  307.60        2961.00           1369         259.00      1094.63
  307.63        2961.25           1372         319.00      1356.20
  307.66        2961.50           1376         396.00      1691.89
  307.69        2961.75           1379         556.00      2389.45
  307.73        2962.00           1382        1137.00      4922.70
  307.76        2962.25           1386        2669.00     11604.30
  307.79        2962.50           1389        4038.00     17577.27
  307.82        2962.75           1392        5517.00     24032.58
  307.85        2963.00           1396        7627.00     33246.31
  307.88        2963.25           1399        9074.00     39567.86
  307.91        2963.50           1402       10511.00     45848.11
  307.94        2963.75           1406       12717.00     55493.79
  307.97        2964.00           1409       14211.00     62029.45
  308.00        2964.25           1412       16037.00     70020.96
  308.03        2964.50           1416       18008.00     78651.37
  308.06        2964.75           1419       19631.00     85761.34
  308.10        2965.00           1422       21143.00     92387.79
  308.13        2965.25           1426       23074.00    100854.40
  308.16        2965.50           1429       24560.00    107372.80
  308.19        2965.75           1432       26232.00    114710.10
  308.22        2966.00           1436       28135.00    123065.10
  308.25        2966.25           1439       29502.00    129069.40
  308.28        2966.50           1442       30985.00    135585.70
  308.31        2966.75           1446       32695.00    143102.60
  308.34        2967.00           1449       33173.00    145204.40
  308.38        2967.25           1452       33244.00    145516.60
  308.41        2967.50           1456       33350.00    145982.80
  308.44        2967.75           1459       33327.00    145881.60
  308.47        2968.00           1462       33132.00    145024.10
  308.50        2968.25           1466       32054.00    140284.40
  308.53        2968.50           1469       31231.00    136666.90
  308.56        2968.75           1472       29568.00    129359.40
  308.59        2969.00           1476       27667.00    121010.00
  308.62        2969.25           1479       26213.00    114626.70
  308.66        2969.50           1482       24755.00    108228.40
  308.69        2969.75           1486       22658.00     99030.04
  308.72        2970.00           1489       21294.00     93049.71
  308.75        2970.25           1492       19670.00     85932.22
  308.78        2970.50           1496       17494.00     76400.28
  308.81        2970.75           1499       16093.00     70266.10
  308.84        2971.00           1502       14413.00     62913.32
  308.87        2971.25           1506       12463.00     54382.90
  308.90        2971.50           1509       10887.00     47491.76
  308.93        2971.75           1513        9050.00     39462.99
  308.96        2972.00           1516        7568.00     32988.61
  308.99        2972.25           1519        5938.00     25870.55
  309.03        2972.50           1523        3975.00     17302.35
  309.06        2972.75           1526        2375.00     10321.85
  309.09        2973.00           1529        1085.00      4695.95
  309.12        2973.25           1533         473.00      2027.59
  309.15        2973.50           1536         314.00      1334.40
  309.18        2973.75           1539         268.00      1133.87
  309.21        2974.00           1543         226.00       950.77
  309.24        2974.25           1546         169.00       702.28
  309.27        2974.50           1549         144.00       593.30
  309.30        2974.75           1553         107.00       432.00
  309.33        2975.00           1556          85.00       336.10
  309.36        2975.25           1559          78.00       305.58
  309.40        2975.50           1563          67.00       257.63
  309.43        2975.75           1566          63.00       240.19
  309.46        2976.00           1569          71.00       275.07
  309.49        2976.25           1573          59.00       222.76
  309.52        2976.50           1576          65.00       248.91
  309.55        2976.75           1579          61.00       231.48
  309.58        2977.00           1583          59.00       222.76
  309.61        2977.25           1586          54.00       200.96
  309.64        2977.50           1590          61.00       231.48
  309.67        2977.75           1593          65.00       248.91
  309.70        2978.00           1596          67.00       257.63
  309.73        2978.25           1600          62.00       235.83
  309.77        2978.50           1603          60.00       227.12
  309.80        2978.75           1606          61.00       231.48
  309.83        2979.00           1610          69.00       266.35
  309.86        2979.25           1613          59.00       222.76
  309.89        2979.50           1616          59.00       222.76
  309.92        2979.75           1620          59.00       222.76
  309.95        2980.00           1623          75.00       292.50
  309.98        2980.25           1626          56.00       209.68
  310.01        2980.50           1630          67.00       257.63
  310.04        2980.75           1633          61.00       231.48
  310.07        2981.00           1637          59.00       222.76
  310.11        2981.25           1640          59.00       222.76
  310.14        2981.50           1643          64.00       244.55
  310.17        2981.75           1647          55.00       205.32
  310.20        2982.00           1650          59.00       222.76
  310.23        2982.25           1653          55.00       205.32
  310.26        2982.50           1657          62.00       235.83
  310.29        2982.75           1660          65.00       248.91
  310.32        2983.00           1663          58.00       218.40
  310.35        2983.25           1667          62.00       235.83
  310.38        2983.50           1670          62.00       235.83
  310.41        2983.75           1673          65.00       248.91
  310.44        2984.00           1677          54.00       200.96
HS scan finished at 05:10:40
end
************************************************************
  HS Scan of (1) Internal mercury lamp
************************************************************
Integration time is 0.2294 seconds per sample
dh011217Manchester 53.47 2.23 2.750537pr1000
************************************************************
Dead Time -------------------------  3E-08 
Number of Cycles Used -------------  4 
Starting Wavelength (Angstroms) ---  2950 
Final Wavelength (Angstoms) -------  2984 
Wavelength Increment (Angstroms) --  .25 
Filter Wheel #1 Position ---------- (1) Ground quartz diffuser (ND=2.32)
Filter Wheel #2 Position ---------- (1) Neutral Density 0.494



************************************************************
HS scan start time = 16:41:59
Dark Count =  6.8 


Time (GMT)  Wavelength (Ang)  Step Number  Raw Counts  Counts/Second

 1002.36        2950.00           1222          66.00       258.07
 1002.43        2950.25           1226          69.00       271.14
 1002.46        2950.50           1229          67.00       262.43
 1002.49        2950.75           1232          57.00       218.83
 1002.52        2951.00           1236          67.00       262.43
 1002.55        2951.25           1239          66.00       258.07
 1002.58        2951.50           1242          58.00       223.19
 1002.61        2951.75           1246          68.00       266.79
 1002.64        2952.00           1249          59.00       227.55
 1002.67        2952.25           1252          64.00       249.35
 1002.70        2952.50           1256          67.00       262.43
 1002.74        2952.75           1259          73.00       288.58
 1002.77        2953.00           1262          64.00       249.35
 1002.80        2953.25           1266          71.00       279.86
 1002.83        2953.50           1269          57.00       218.83
 1002.86        2953.75           1272          65.00       253.71
 1002.89        2954.00           1276          67.00       262.43
 1002.92        2954.25           1279          69.00       271.14
 1002.95        2954.50           1282          63.00       244.99
 1002.98        2954.75           1286          63.00       244.99
 1003.01        2955.00           1289          69.00       271.14
 1003.05        2955.25           1292          58.00       223.19
 1003.08        2955.50           1296          59.00       227.55
 1003.11        2955.75           1299          67.00       262.43
 1003.14        2956.00           1302          66.00       258.07
 1003.17        2956.25           1306          57.00       218.83
 1003.20        2956.50           1309          74.00       292.94
 1003.23        2956.75           1312          69.00       271.14
 1003.26        2957.00           1316          63.00       244.99
 1003.29        2957.25           1319          61.00       236.27
 1003.32        2957.50           1322          58.00       223.19
 1003.35        2957.75           1326          66.00       258.07
 1003.38        2958.00           1329          59.00       227.55
 1003.42        2958.25           1332          67.00       262.43
 1003.45        2958.50           1336          56.00       214.47
 1003.48        2958.75           1339          67.00       262.43
 1003.51        2959.00           1342          64.00       249.35
 1003.54        2959.25           1346          73.00       288.58
 1003.57        2959.50           1349          73.00       288.58
 1003.60        2959.75           1352          99.00       401.92
 1003.63        2960.00           1356         132.00       545.78
 1003.66        2960.25           1359         160.00       667.84
 1003.69        2960.50           1362         182.00       763.75
 1003.72        2960.75           1366         232.00       981.72
 1003.76        2961.00           1369         280.00      1190.98
 1003.79        2961.25           1372         341.00      1456.91
 1003.82        2961.50           1376         416.00      1783.88
 1003.85        2961.75           1379         588.00      2533.76
 1003.88        2962.00           1382        1304.00      5655.71
 1003.91        2962.25           1386        2991.00     13013.80
 1003.94        2962.50           1389        4443.00     19349.50
 1003.97        2962.75           1392        5970.00     26015.06
 1004.00        2963.00           1396        8101.00     35321.63
 1004.03        2963.25           1399        9521.00     41525.98
 1004.06        2963.50           1402       11080.00     48340.33
 1004.10        2963.75           1406       12833.00     56005.97
 1004.13        2964.00           1409       14586.00     63675.14
 1004.16        2964.25           1412       16235.00     70892.56
 1004.19        2964.50           1416       18323.00     80035.88
 1004.22        2964.75           1419       19975.00     87273.54
 1004.25        2965.00           1422       21626.00     94509.96
 1004.28        2965.25           1426       23656.00    103411.90
 1004.31        2965.50           1429       25104.00    109764.50
 1004.34        2965.75           1432       26462.00    115724.50
 1004.37        2966.00           1436       28460.00    124497.30
 1004.41        2966.25           1439       29877.00    130721.80
 1004.44        2966.50           1442       31276.00    136869.50
 1004.47        2966.75           1446       32581.00    142606.20
 1004.50        2967.00           1449       32834.00    143718.60
 1004.53        2967.25           1452       32991.00    144408.90
 1004.56        2967.50           1456       32845.00    143766.90
 1004.59        2967.75           1459       32925.00    144118.70
 1004.62        2968.00           1462       32518.00    142329.20
 1004.65        2968.25           1466       31323.00    137076.10
 1004.68        2968.50           1469       29842.00    130568.00
 1004.71        2968.75           1472       28576.00    125006.70
 1004.74        2969.00           1476       26538.00    116058.10
 1004.78        2969.25           1479       24977.00    109207.30
 1004.81        2969.50           1482       23657.00    103416.30
 1004.84        2969.75           1486       21651.00     94619.56
 1004.87        2970.00           1489       20021.00     87475.12
 1004.90        2970.25           1492       18670.00     81555.88
 1004.93        2970.50           1496       16666.00     72779.49
 1004.96        2970.75           1499       14923.00     65149.89
 1004.99        2971.00           1502       13404.00     58503.64
 1005.02        2971.25           1506       11514.00     50237.82
 1005.06        2971.50           1509        9928.00     43304.70
 1005.09        2971.75           1513        7967.00     34736.27
 1005.12        2972.00           1516        6542.00     28512.61
 1005.15        2972.25           1519        5086.00     22155.96
 1005.18        2972.50           1523        3142.00     13672.57
 1005.21        2972.75           1526        1738.00      7548.35
 1005.24        2973.00           1529         742.00      3205.19
 1005.27        2973.25           1533         387.00      1657.45
 1005.30        2973.50           1536         306.00      1304.32
 1005.33        2973.75           1539         246.00      1042.75
 1005.36        2974.00           1543         198.00       833.50
 1005.40        2974.25           1546         154.00       641.69
 1005.43        2974.50           1549         112.00       458.59
 1005.46        2974.75           1553          90.00       362.69
 1005.49        2975.00           1556          64.00       249.35
 1005.52        2975.25           1559          69.00       271.14
 1005.55        2975.50           1563          73.00       288.58
 1005.58        2975.75           1566          61.00       236.27
 1005.61        2976.00           1569          64.00       249.35
 1005.64        2976.25           1573          68.00       266.79
 1005.67        2976.50           1576          57.00       218.83
 1005.70        2976.75           1579          59.00       227.55
 1005.74        2977.00           1583          64.00       249.35
 1005.77        2977.25           1586          63.00       244.99
 1005.80        2977.50           1590          66.00       258.07
 1005.83        2977.75           1593          55.00       210.11
 1005.86        2978.00           1596          63.00       244.99
 1005.89        2978.25           1600          55.00       210.11
 1005.92        2978.50           1603          52.00       197.04
 1005.95        2978.75           1606          53.00       201.40
 1005.98        2979.00           1610          59.00       227.55
 1006.01        2979.25           1613          63.00       244.99
 1006.04        2979.50           1616          59.00       227.55
 1006.08        2979.75           1620          59.00       227.55
 1006.11        2980.00           1623          60.00       231.91
 1006.14        2980.25           1626          54.00       205.76
 1006.17        2980.50           1630          57.00       218.83
 1006.20        2980.75           1633          61.00       236.27
 1006.23        2981.00           1637          57.00       218.83
 1006.26        2981.25           1640          51.00       192.68
 1006.29        2981.50           1643          61.00       236.27
 1006.32        2981.75           1647          52.00       197.04
 1006.35        2982.00           1650          68.00       266.79
 1006.38        2982.25           1653          56.00       214.47
 1006.41        2982.50           1657          57.00       218.83
 1006.45        2982.75           1660          56.00       214.47
 1006.48        2983.00           1663          58.00       223.19
 1006.51        2983.25           1667          64.00       249.35
 1006.54        2983.50           1670          61.00       236.27
 1006.57        2983.75           1673          65.00       253.71
 1006.60        2984.00           1677          69.00       271.14
HS scan finished at 16:46:49
end
