************************************************************
  HS Scan of (1) Internal mercury lamp
************************************************************
Integration time is 0.2294 seconds per sample
dh261118Manchester 53.47 2.23 2.804185pr1000
************************************************************
Dead Time -------------------------  3E-08 
Number of Cycles Used -------------  4 
Starting Wavelength (Angstroms) ---  2950 
Final Wavelength (Angstoms) -------  2984 
Wavelength Increment (Angstroms) --  .25 
Filter Wheel #1 Position ---------- (1) Ground quartz diffuser (ND=2.32)
Filter Wheel #2 Position ---------- (1) Neutral Density 0.494



************************************************************
HS scan start time = 04:59:17
Dark Count =  4.7 


Time (GMT)  Wavelength (Ang)  Step Number  Raw Counts  Counts/Second

  299.66        2950.00           1222          55.00       219.27
  299.72        2950.25           1226          55.00       219.27
  299.75        2950.50           1229          54.00       214.91
  299.78        2950.75           1232          40.00       153.88
  299.82        2951.00           1236          46.00       180.04
  299.85        2951.25           1239          46.00       180.04
  299.88        2951.50           1242          54.00       214.91
  299.91        2951.75           1246          46.00       180.04
  299.94        2952.00           1249          54.00       214.91
  299.97        2952.25           1252          52.00       206.19
  300.00        2952.50           1256          51.00       201.83
  300.03        2952.75           1259          56.00       223.63
  300.06        2953.00           1262          47.00       184.40
  300.09        2953.25           1266          55.00       219.27
  300.12        2953.50           1269          47.00       184.40
  300.16        2953.75           1272          42.00       162.60
  300.19        2954.00           1276          46.00       180.04
  300.22        2954.25           1279          47.00       184.40
  300.25        2954.50           1282          51.00       201.83
  300.28        2954.75           1286          44.00       171.32
  300.31        2955.00           1289          58.00       232.35
  300.34        2955.25           1292          50.00       197.47
  300.37        2955.50           1296          48.00       188.75
  300.40        2955.75           1299          50.00       197.47
  300.43        2956.00           1302          52.00       206.19
  300.46        2956.25           1306          48.00       188.75
  300.50        2956.50           1309          41.00       158.24
  300.53        2956.75           1312          51.00       201.83
  300.56        2957.00           1316          42.00       162.60
  300.59        2957.25           1319          50.00       197.47
  300.62        2957.50           1322          46.00       180.04
  300.65        2957.75           1326          44.00       171.32
  300.68        2958.00           1329          46.00       180.04
  300.71        2958.25           1332          51.00       201.83
  300.74        2958.50           1336          49.00       193.11
  300.77        2958.75           1339          53.00       210.55
  300.80        2959.00           1342          51.00       201.83
  300.83        2959.25           1346          51.00       201.83
  300.86        2959.50           1349          50.00       197.47
  300.89        2959.75           1352          58.00       232.35
  300.92        2960.00           1356          90.00       371.84
  300.95        2960.25           1359          95.00       393.64
  300.98        2960.50           1362         120.00       502.62
  301.02        2960.75           1366         149.00       629.04
  301.05        2961.00           1369         182.00       772.90
  301.08        2961.25           1372         223.00       951.64
  301.11        2961.50           1376         285.00      1221.93
  301.14        2961.75           1379         438.00      1888.95
  301.17        2962.00           1382        1002.00      4348.00
  301.20        2962.25           1386        2270.00      9877.82
  301.23        2962.50           1389        3252.00     14161.64
  301.26        2962.75           1392        4400.00     19171.01
  301.29        2963.00           1396        5802.00     25290.76
  301.32        2963.25           1399        6917.00     30159.36
  301.35        2963.50           1402        8093.00     35295.85
  301.39        2963.75           1406        9771.00     42627.71
  301.42        2964.00           1409       10777.00     47024.89
  301.45        2964.25           1412       11987.00     52315.26
  301.48        2964.50           1416       13496.00     58915.29
  301.51        2964.75           1419       14382.00     62791.67
  301.54        2965.00           1422       15689.00     68511.65
  301.57        2965.25           1426       17106.00     74715.24
  301.60        2965.50           1429       18221.00     79598.31
  301.63        2965.75           1432       19326.00     84439.01
  301.67        2966.00           1436       20869.00     91200.81
  301.70        2966.25           1439       21897.00     95707.28
  301.73        2966.50           1442       23011.00    100592.10
  301.76        2966.75           1446       23870.00    104359.80
  301.79        2967.00           1449       24316.00    106316.30
  301.82        2967.25           1452       24133.00    105513.50
  301.85        2967.50           1456       24120.00    105456.50
  301.88        2967.75           1459       24226.00    105921.50
  301.91        2968.00           1462       24077.00    105267.90
  301.95        2968.25           1466       23293.00    101828.90
  301.98        2968.50           1469       22264.00     97316.40
  302.01        2968.75           1472       21194.00     92625.38
  302.04        2969.00           1476       19830.00     86647.36
  302.07        2969.25           1479       18612.00     81311.02
  302.10        2969.50           1482       17519.00     76523.78
  302.13        2969.75           1486       16028.00     69995.56
  302.16        2970.00           1489       14970.00     65364.76
  302.19        2970.25           1492       13844.00     60437.73
  302.22        2970.50           1496       12429.00     54248.20
  302.25        2970.75           1499       11399.00     49744.19
  302.28        2971.00           1502       10107.00     44096.23
  302.32        2971.25           1506        8657.00     37759.84
  302.35        2971.50           1509        7642.00     33325.81
  302.38        2971.75           1513        6052.00     26382.25
  302.41        2972.00           1516        4937.00     21514.75
  302.44        2972.25           1519        3830.00     16683.59
  302.47        2972.50           1523        2420.00     10532.10
  302.50        2972.75           1526        1361.00      5913.43
  302.53        2973.00           1529         656.00      2839.39
  302.56        2973.25           1533         315.00      1352.71
  302.60        2973.50           1536         247.00      1056.27
  302.63        2973.75           1539         212.00       903.69
  302.66        2974.00           1543         180.00       764.18
  302.69        2974.25           1546         138.00       581.09
  302.72        2974.50           1549         121.00       506.98
  302.75        2974.75           1553          75.00       306.45
  302.78        2975.00           1556          67.00       271.58
  302.81        2975.25           1559          55.00       219.27
  302.84        2975.50           1563          51.00       201.83
  302.87        2975.75           1566          43.00       166.96
  302.90        2976.00           1569          45.00       175.68
  302.94        2976.25           1573          44.00       171.32
  302.97        2976.50           1576          42.00       162.60
  303.00        2976.75           1579          44.00       171.32
  303.03        2977.00           1583          44.00       171.32
  303.06        2977.25           1586          44.00       171.32
  303.09        2977.50           1590          46.00       180.04
  303.12        2977.75           1593          52.00       206.19
  303.15        2978.00           1596          42.00       162.60
  303.18        2978.25           1600          63.00       254.14
  303.21        2978.50           1603          45.00       175.68
  303.24        2978.75           1606          43.00       166.96
  303.27        2979.00           1610          46.00       180.04
  303.31        2979.25           1613          45.00       175.68
  303.34        2979.50           1616          48.00       188.75
  303.37        2979.75           1620          36.00       136.44
  303.40        2980.00           1623          43.00       166.96
  303.43        2980.25           1626          43.00       166.96
  303.46        2980.50           1630          39.00       149.52
  303.49        2980.75           1633          47.00       184.40
  303.52        2981.00           1637          49.00       193.11
  303.55        2981.25           1640          49.00       193.11
  303.58        2981.50           1643          42.00       162.60
  303.61        2981.75           1647          44.00       171.32
  303.65        2982.00           1650          39.00       149.52
  303.68        2982.25           1653          44.00       171.32
  303.71        2982.50           1657          47.00       184.40
  303.74        2982.75           1660          48.00       188.75
  303.77        2983.00           1663          42.00       162.60
  303.80        2983.25           1667          43.00       166.96
  303.83        2983.50           1670          38.00       145.16
  303.86        2983.75           1673          45.00       175.68
  303.89        2984.00           1677          42.00       162.60
HS scan finished at 05:04:06
end
************************************************************
  HS Scan of (1) Internal mercury lamp
************************************************************
Integration time is 0.2294 seconds per sample
dh261118Manchester 53.47 2.23 2.804185pr1000
************************************************************
Dead Time -------------------------  3E-08 
Number of Cycles Used -------------  4 
Starting Wavelength (Angstroms) ---  2950 
Final Wavelength (Angstoms) -------  2984 
Wavelength Increment (Angstroms) --  .25 
Filter Wheel #1 Position ---------- (1) Ground quartz diffuser (ND=2.32)
Filter Wheel #2 Position ---------- (1) Neutral Density 0.494



************************************************************
HS scan start time = 17:12:01
Dark Count =  5.4 


Time (GMT)  Wavelength (Ang)  Step Number  Raw Counts  Counts/Second

 1032.39        2950.00           1222          54.00       211.86
 1032.46        2950.25           1226          47.00       181.34
 1032.49        2950.50           1229          52.00       203.14
 1032.52        2950.75           1232          47.00       181.34
 1032.55        2951.00           1236          44.00       168.27
 1032.58        2951.25           1239          47.00       181.34
 1032.61        2951.50           1242          47.00       181.34
 1032.64        2951.75           1246          45.00       172.63
 1032.67        2952.00           1249          43.00       163.91
 1032.70        2952.25           1252          48.00       185.70
 1032.73        2952.50           1256          48.00       185.70
 1032.76        2952.75           1259          46.00       176.98
 1032.79        2953.00           1262          59.00       233.65
 1032.83        2953.25           1266          45.00       172.63
 1032.86        2953.50           1269          45.00       172.63
 1032.89        2953.75           1272          50.00       194.42
 1032.92        2954.00           1276          48.00       185.70
 1032.95        2954.25           1279          56.00       220.58
 1032.98        2954.50           1282          48.00       185.70
 1033.01        2954.75           1286          49.00       190.06
 1033.04        2955.00           1289          50.00       194.42
 1033.07        2955.25           1292          48.00       185.70
 1033.10        2955.50           1296          47.00       181.34
 1033.13        2955.75           1299          45.00       172.63
 1033.16        2956.00           1302          43.00       163.91
 1033.20        2956.25           1306          54.00       211.86
 1033.23        2956.50           1309          46.00       176.98
 1033.26        2956.75           1312          53.00       207.50
 1033.29        2957.00           1316          51.00       198.78
 1033.32        2957.25           1319          47.00       181.34
 1033.35        2957.50           1322          48.00       185.70
 1033.38        2957.75           1326          56.00       220.58
 1033.41        2958.00           1329          55.00       216.22
 1033.44        2958.25           1332          56.00       220.58
 1033.47        2958.50           1336          47.00       181.34
 1033.50        2958.75           1339          43.00       163.91
 1033.53        2959.00           1342          51.00       198.78
 1033.57        2959.25           1346          49.00       190.06
 1033.60        2959.50           1349          65.00       259.81
 1033.63        2959.75           1352          62.00       246.73
 1033.66        2960.00           1356          89.00       364.43
 1033.69        2960.25           1359          96.00       394.95
 1033.72        2960.50           1362         123.00       512.65
 1033.75        2960.75           1366         154.00       647.79
 1033.78        2961.00           1369         199.00       843.96
 1033.81        2961.25           1372         244.00      1040.14
 1033.84        2961.50           1376         277.00      1184.00
 1033.87        2961.75           1379         420.00      1807.42
 1033.90        2962.00           1382         891.00      3860.95
 1033.94        2962.25           1386        2067.00      8989.35
 1033.97        2962.50           1389        3192.00     13896.81
 1034.00        2962.75           1392        4344.00     18923.56
 1034.03        2963.00           1396        5788.00     25226.58
 1034.06        2963.25           1399        6935.00     30234.91
 1034.09        2963.50           1402        8073.00     35205.43
 1034.12        2963.75           1406        9515.00     41505.88
 1034.15        2964.00           1409       10756.00     46930.02
 1034.18        2964.25           1412       11946.00     52132.91
 1034.21        2964.50           1416       13440.00     58667.24
 1034.24        2964.75           1419       14484.00     63234.93
 1034.28        2965.00           1422       15680.00     68469.19
 1034.31        2965.25           1426       17054.00     74484.48
 1034.34        2965.50           1429       18204.00     79520.78
 1034.37        2965.75           1432       19354.00     84558.61
 1034.40        2966.00           1436       20873.00     91215.28
 1034.43        2966.25           1439       21905.00     95739.28
 1034.46        2966.50           1442       22860.00     99926.84
 1034.49        2966.75           1446       23720.00    103698.70
 1034.52        2967.00           1449       24027.00    105045.40
 1034.56        2967.25           1452       23973.00    104808.50
 1034.59        2967.50           1456       24012.00    104979.60
 1034.62        2967.75           1459       24032.00    105067.40
 1034.65        2968.00           1462       24020.00    105014.70
 1034.68        2968.25           1466       23102.00    100988.10
 1034.71        2968.50           1469       21974.00     96041.81
 1034.74        2968.75           1472       21016.00     91842.07
 1034.77        2969.00           1476       19553.00     85430.53
 1034.80        2969.25           1479       18416.00     80449.38
 1034.84        2969.50           1482       17385.00     75933.90
 1034.87        2969.75           1486       15773.00     68876.26
 1034.90        2970.00           1489       14532.00     63444.97
 1034.93        2970.25           1492       13643.00     59555.31
 1034.96        2970.50           1496       12121.00     52898.18
 1034.99        2970.75           1499       10948.00     47769.37
 1035.02        2971.00           1502       10003.00     43638.61
 1035.05        2971.25           1506        8620.00     37595.12
 1035.08        2971.50           1509        7612.00     33191.71
 1035.12        2971.75           1513        6023.00     26252.58
 1035.15        2972.00           1516        4931.00     21485.51
 1035.18        2972.25           1519        3803.00     16562.72
 1035.21        2972.50           1523        2333.00     10149.56
 1035.24        2972.75           1526        1343.00      5831.88
 1035.27        2973.00           1529         613.00      2648.86
 1035.30        2973.25           1533         328.00      1406.34
 1035.33        2973.50           1536         239.00      1018.34
 1035.36        2973.75           1539         209.00       887.56
 1035.39        2974.00           1543         160.00       673.95
 1035.42        2974.25           1546         125.00       521.37
 1035.46        2974.50           1549         104.00       429.82
 1035.49        2974.75           1553          72.00       290.33
 1035.52        2975.00           1556          56.00       220.58
 1035.55        2975.25           1559          58.00       229.30
 1035.58        2975.50           1563          45.00       172.63
 1035.61        2975.75           1566          43.00       163.91
 1035.64        2976.00           1569          53.00       207.50
 1035.67        2976.25           1573          45.00       172.63
 1035.70        2976.50           1576          39.00       146.47
 1035.73        2976.75           1579          47.00       181.34
 1035.76        2977.00           1583          50.00       194.42
 1035.79        2977.25           1586          53.00       207.50
 1035.82        2977.50           1590          51.00       198.78
 1035.86        2977.75           1593          41.00       155.19
 1035.89        2978.00           1596          46.00       176.98
 1035.92        2978.25           1600          49.00       190.06
 1035.95        2978.50           1603          39.00       146.47
 1035.98        2978.75           1606          52.00       203.14
 1036.01        2979.00           1610          39.00       146.47
 1036.04        2979.25           1613          51.00       198.78
 1036.07        2979.50           1616          46.00       176.98
 1036.10        2979.75           1620          44.00       168.27
 1036.13        2980.00           1623          38.00       142.11
 1036.16        2980.25           1626          54.00       211.86
 1036.19        2980.50           1630          44.00       168.27
 1036.22        2980.75           1633          39.00       146.47
 1036.25        2981.00           1637          43.00       163.91
 1036.28        2981.25           1640          41.00       155.19
 1036.31        2981.50           1643          38.00       142.11
 1036.34        2981.75           1647          41.00       155.19
 1036.37        2982.00           1650          51.00       198.78
 1036.41        2982.25           1653          43.00       163.91
 1036.44        2982.50           1657          41.00       155.19
 1036.47        2982.75           1660          52.00       203.14
 1036.50        2983.00           1663          43.00       163.91
 1036.53        2983.25           1667          45.00       172.63
 1036.56        2983.50           1670          41.00       155.19
 1036.59        2983.75           1673          43.00       163.91
 1036.62        2984.00           1677          44.00       168.27
HS scan finished at 17:16:50
end
