************************************************************
  HS Scan of (1) Internal mercury lamp
************************************************************
Integration time is 0.2294 seconds per sample
dh031217Manchester 53.47 2.23 2.804185pr1000
************************************************************
Dead Time -------------------------  3E-08 
Number of Cycles Used -------------  4 
Starting Wavelength (Angstroms) ---  2950 
Final Wavelength (Angstoms) -------  2984 
Wavelength Increment (Angstroms) --  .25 
Filter Wheel #1 Position ---------- (1) Ground quartz diffuser (ND=2.32)
Filter Wheel #2 Position ---------- (1) Neutral Density 0.494



************************************************************
HS scan start time = 05:08:06
Dark Count =  5.5 


Time (GMT)  Wavelength (Ang)  Step Number  Raw Counts  Counts/Second

  308.48        2950.00           1222          75.00       302.97
  308.54        2950.25           1226          73.00       294.25
  308.57        2950.50           1229          60.00       237.58
  308.60        2950.75           1232          64.00       255.02
  308.63        2951.00           1236          64.00       255.02
  308.67        2951.25           1239          64.00       255.02
  308.70        2951.50           1242          67.00       268.09
  308.73        2951.75           1246          64.00       255.02
  308.76        2952.00           1249          71.00       285.53
  308.79        2952.25           1252          64.00       255.02
  308.82        2952.50           1256          70.00       281.17
  308.85        2952.75           1259          61.00       241.94
  308.88        2953.00           1262          63.00       250.66
  308.91        2953.25           1266          67.00       268.09
  308.94        2953.50           1269          56.00       220.14
  308.98        2953.75           1272          63.00       250.66
  309.01        2954.00           1276          60.00       237.58
  309.04        2954.25           1279          59.00       233.22
  309.07        2954.50           1282          69.00       276.81
  309.10        2954.75           1286          58.00       228.86
  309.13        2955.00           1289          60.00       237.58
  309.16        2955.25           1292          64.00       255.02
  309.19        2955.50           1296          65.00       259.37
  309.22        2955.75           1299          74.00       298.61
  309.25        2956.00           1302          62.00       246.30
  309.28        2956.25           1306          58.00       228.86
  309.31        2956.50           1309          63.00       250.66
  309.34        2956.75           1312          55.00       215.78
  309.37        2957.00           1316          72.00       289.89
  309.40        2957.25           1319          61.00       241.94
  309.43        2957.50           1322          65.00       259.37
  309.46        2957.75           1326          59.00       233.22
  309.50        2958.00           1329          60.00       237.58
  309.53        2958.25           1332          65.00       259.37
  309.56        2958.50           1336          65.00       259.37
  309.59        2958.75           1339          57.00       224.50
  309.62        2959.00           1342          64.00       255.02
  309.65        2959.25           1346          63.00       250.66
  309.68        2959.50           1349          71.00       285.53
  309.71        2959.75           1352          87.00       355.28
  309.74        2960.00           1356         116.00       481.70
  309.77        2960.25           1359         147.00       616.84
  309.80        2960.50           1362         195.00       826.09
  309.84        2960.75           1366         215.00       913.28
  309.87        2961.00           1369         276.00      1179.20
  309.90        2961.25           1372         326.00      1397.18
  309.93        2961.50           1376         378.00      1623.88
  309.96        2961.75           1379         531.00      2290.92
  309.99        2962.00           1382        1034.00      4484.04
  310.02        2962.25           1386        2696.00     11732.55
  310.05        2962.50           1389        4231.00     18429.98
  310.08        2962.75           1392        5781.00     25195.59
  310.11        2963.00           1396        7585.00     33073.34
  310.14        2963.25           1399        9195.00     40107.08
  310.17        2963.50           1402       10794.00     47095.70
  310.21        2963.75           1406       12858.00     56121.00
  310.24        2964.00           1409       14483.00     63230.12
  310.27        2964.25           1412       16206.00     70771.28
  310.30        2964.50           1416       18187.00     79445.88
  310.33        2964.75           1419       19678.00     85977.80
  310.36        2965.00           1422       21105.00     92231.75
  310.39        2965.25           1426       23388.00    102242.10
  310.42        2965.50           1429       24875.00    108765.40
  310.45        2965.75           1432       26400.00    115458.10
  310.49        2966.00           1436       28719.00    125640.50
  310.52        2966.25           1439       30020.00    131355.80
  310.55        2966.50           1442       31604.00    138316.90
  310.58        2966.75           1446       32857.00    143825.40
  310.61        2967.00           1449       33272.00    145650.30
  310.64        2967.25           1452       33320.00    145861.40
  310.67        2967.50           1456       33558.00    146908.00
  310.70        2967.75           1459       33161.00    145162.20
  310.73        2968.00           1462       33022.00    144551.00
  310.77        2968.25           1466       32167.00    140791.80
  310.80        2968.50           1469       30629.00    134031.80
  310.83        2968.75           1472       29261.00    128021.30
  310.86        2969.00           1476       27309.00    119448.60
  310.89        2969.25           1479       25866.00    113114.20
  310.92        2969.50           1482       24268.00    106102.20
  310.95        2969.75           1486       22428.00     98032.00
  310.98        2970.00           1489       20738.00     90623.11
  311.01        2970.25           1492       19389.00     84711.52
  311.04        2970.50           1496       17325.00     75670.72
  311.07        2970.75           1499       15728.00     68678.85
  311.10        2971.00           1502       14402.00     62875.69
  311.14        2971.25           1506       12308.00     53715.53
  311.17        2971.50           1509       10584.00     46177.71
  311.20        2971.75           1513        8716.00     38014.12
  311.23        2972.00           1516        7220.00     31479.15
  311.26        2972.25           1519        5564.00     24248.23
  311.29        2972.50           1523        3663.00     15951.40
  311.32        2972.75           1526        2277.00      9904.86
  311.35        2973.00           1529        1052.00      4562.53
  311.38        2973.25           1533         451.00      1942.14
  311.42        2973.50           1536         333.00      1427.70
  311.45        2973.75           1539         281.00      1201.00
  311.48        2974.00           1543         240.00      1022.26
  311.51        2974.25           1546         203.00       860.96
  311.54        2974.50           1549         146.00       612.48
  311.57        2974.75           1553         102.00       420.67
  311.60        2975.00           1556          78.00       316.04
  311.63        2975.25           1559          66.00       263.73
  311.66        2975.50           1563          68.00       272.45
  311.69        2975.75           1566          60.00       237.58
  311.72        2976.00           1569          61.00       241.94
  311.76        2976.25           1573          70.00       281.17
  311.79        2976.50           1576          57.00       224.50
  311.82        2976.75           1579          57.00       224.50
  311.85        2977.00           1583          62.00       246.30
  311.88        2977.25           1586          60.00       237.58
  311.91        2977.50           1590          66.00       263.73
  311.94        2977.75           1593          58.00       228.86
  311.97        2978.00           1596          63.00       250.66
  312.00        2978.25           1600          54.00       211.42
  312.03        2978.50           1603          65.00       259.37
  312.06        2978.75           1606          63.00       250.66
  312.10        2979.00           1610          76.00       307.33
  312.13        2979.25           1613          62.00       246.30
  312.16        2979.50           1616          54.00       211.42
  312.19        2979.75           1620          59.00       233.22
  312.22        2980.00           1623          54.00       211.42
  312.25        2980.25           1626          63.00       250.66
  312.28        2980.50           1630          56.00       220.14
  312.31        2980.75           1633          68.00       272.45
  312.34        2981.00           1637          59.00       233.22
  312.37        2981.25           1640          57.00       224.50
  312.40        2981.50           1643          60.00       237.58
  312.43        2981.75           1647          56.00       220.14
  312.47        2982.00           1650          60.00       237.58
  312.50        2982.25           1653          55.00       215.78
  312.53        2982.50           1657          65.00       259.37
  312.56        2982.75           1660          67.00       268.09
  312.59        2983.00           1663          63.00       250.66
  312.62        2983.25           1667          50.00       193.99
  312.65        2983.50           1670          53.00       207.06
  312.68        2983.75           1673          57.00       224.50
  312.71        2984.00           1677          58.00       228.86
HS scan finished at 05:12:56
end
************************************************************
  HS Scan of (1) Internal mercury lamp
************************************************************
Integration time is 0.2294 seconds per sample
dh031217Manchester 53.47 2.23 2.804185pr1000
************************************************************
Dead Time -------------------------  3E-08 
Number of Cycles Used -------------  4 
Starting Wavelength (Angstroms) ---  2950 
Final Wavelength (Angstoms) -------  2984 
Wavelength Increment (Angstroms) --  .25 
Filter Wheel #1 Position ---------- (1) Ground quartz diffuser (ND=2.32)
Filter Wheel #2 Position ---------- (1) Neutral Density 0.494



************************************************************
HS scan start time = 16:42:02
Dark Count =  6.7 


Time (GMT)  Wavelength (Ang)  Step Number  Raw Counts  Counts/Second

 1002.41        2950.00           1222          71.00       280.30
 1002.47        2950.25           1226          61.00       236.71
 1002.51        2950.50           1229          68.00       267.22
 1002.54        2950.75           1232          68.00       267.22
 1002.57        2951.00           1236          67.00       262.86
 1002.60        2951.25           1239          68.00       267.22
 1002.63        2951.50           1242          67.00       262.86
 1002.66        2951.75           1246          61.00       236.71
 1002.69        2952.00           1249          66.00       258.50
 1002.72        2952.25           1252          67.00       262.86
 1002.75        2952.50           1256          70.00       275.94
 1002.78        2952.75           1259          64.00       249.78
 1002.82        2953.00           1262          68.00       267.22
 1002.85        2953.25           1266          58.00       223.63
 1002.88        2953.50           1269          61.00       236.71
 1002.91        2953.75           1272          72.00       284.66
 1002.94        2954.00           1276          55.00       210.55
 1002.97        2954.25           1279          75.00       297.74
 1003.00        2954.50           1282          60.00       232.35
 1003.03        2954.75           1286          63.00       245.42
 1003.06        2955.00           1289          63.00       245.42
 1003.09        2955.25           1292          64.00       249.78
 1003.12        2955.50           1296          73.00       289.02
 1003.15        2955.75           1299          66.00       258.50
 1003.19        2956.00           1302          53.00       201.83
 1003.22        2956.25           1306          62.00       241.07
 1003.25        2956.50           1309          59.00       227.99
 1003.28        2956.75           1312          69.00       271.58
 1003.31        2957.00           1316          57.00       219.27
 1003.34        2957.25           1319          61.00       236.71
 1003.37        2957.50           1322          54.00       206.19
 1003.40        2957.75           1326          60.00       232.35
 1003.43        2958.00           1329          65.00       254.14
 1003.46        2958.25           1332          68.00       267.22
 1003.50        2958.50           1336          62.00       241.07
 1003.53        2958.75           1339          62.00       241.07
 1003.56        2959.00           1342          64.00       249.78
 1003.59        2959.25           1346          61.00       236.71
 1003.62        2959.50           1349          75.00       297.74
 1003.65        2959.75           1352          74.00       293.38
 1003.68        2960.00           1356         117.00       480.83
 1003.71        2960.25           1359         150.00       624.68
 1003.74        2960.50           1362         171.00       716.23
 1003.77        2960.75           1366         227.00       960.36
 1003.80        2961.00           1369         292.00      1243.73
 1003.84        2961.25           1372         319.00      1361.43
 1003.87        2961.50           1376         400.00      1714.56
 1003.90        2961.75           1379         539.00      2320.56
 1003.93        2962.00           1382        1139.00      4936.65
 1003.96        2962.25           1386        2809.00     12220.26
 1003.99        2962.50           1389        4169.00     18154.17
 1004.02        2962.75           1392        5712.00     24889.11
 1004.05        2963.00           1396        7642.00     33317.07
 1004.08        2963.25           1399        9210.00     40167.38
 1004.12        2963.50           1402       10662.00     46513.42
 1004.15        2963.75           1406       12657.00     55236.62
 1004.18        2964.00           1409       14401.00     62866.06
 1004.21        2964.25           1412       16180.00     70652.21
 1004.24        2964.50           1416       18166.00     79348.65
 1004.27        2964.75           1419       19649.00     85845.49
 1004.30        2965.00           1422       21280.00     92993.60
 1004.33        2965.25           1426       23329.00    101978.00
 1004.36        2965.50           1429       24810.00    108474.90
 1004.39        2965.75           1432       26413.00    115509.90
 1004.42        2966.00           1436       28411.00    124282.50
 1004.46        2966.25           1439       29718.00    130023.60
 1004.49        2966.50           1442       31258.00    136790.80
 1004.52        2966.75           1446       32740.00    143305.70
 1004.55        2967.00           1449       33087.00    144831.50
 1004.58        2967.25           1452       33145.00    145086.60
 1004.61        2967.50           1456       33109.00    144928.30
 1004.64        2967.75           1459       32894.00    143982.90
 1004.67        2968.00           1462       32873.00    143890.50
 1004.70        2968.25           1466       32041.00    140232.60
 1004.73        2968.50           1469       30576.00    133793.60
 1004.77        2968.75           1472       29274.00    128073.10
 1004.80        2969.00           1476       27348.00    119614.60
 1004.83        2969.25           1479       25771.00    112692.00
 1004.86        2969.50           1482       24332.00    106377.80
 1004.89        2969.75           1486       22287.00     97408.47
 1004.92        2970.00           1489       20720.00     90538.97
 1004.95        2970.25           1492       19410.00     84798.28
 1004.98        2970.50           1496       17372.00     75871.28
 1005.01        2970.75           1499       15842.00     69172.61
 1005.05        2971.00           1502       14312.00     62476.62
 1005.08        2971.25           1506       12421.00     54204.46
 1005.11        2971.50           1509       10721.00     46771.34
 1005.14        2971.75           1513        8990.00     39206.07
 1005.17        2972.00           1516        7385.00     32194.55
 1005.20        2972.25           1519        5853.00     25504.69
 1005.23        2972.50           1523        3906.00     17006.49
 1005.26        2972.75           1526        2436.00     10593.17
 1005.29        2973.00           1529        1123.00      4866.88
 1005.32        2973.25           1533         451.00      1936.90
 1005.35        2973.50           1536         338.00      1444.26
 1005.39        2973.75           1539         280.00      1191.41
 1005.42        2974.00           1543         244.00      1034.47
 1005.45        2974.25           1546         184.00       772.90
 1005.48        2974.50           1549         139.00       576.73
 1005.51        2974.75           1553          98.00       398.00
 1005.54        2975.00           1556          79.00       315.17
 1005.57        2975.25           1559          73.00       289.02
 1005.60        2975.50           1563          65.00       254.14
 1005.63        2975.75           1566          62.00       241.07
 1005.66        2976.00           1569          70.00       275.94
 1005.70        2976.25           1573          63.00       245.42
 1005.73        2976.50           1576          65.00       254.14
 1005.76        2976.75           1579          67.00       262.86
 1005.79        2977.00           1583          58.00       223.63
 1005.82        2977.25           1586          61.00       236.71
 1005.85        2977.50           1590          60.00       232.35
 1005.88        2977.75           1593          65.00       254.14
 1005.91        2978.00           1596          62.00       241.07
 1005.94        2978.25           1600          55.00       210.55
 1005.97        2978.50           1603          50.00       188.75
 1006.00        2978.75           1606          56.00       214.91
 1006.03        2979.00           1610          67.00       262.86
 1006.06        2979.25           1613          56.00       214.91
 1006.10        2979.50           1616          64.00       249.78
 1006.13        2979.75           1620          61.00       236.71
 1006.16        2980.00           1623          65.00       254.14
 1006.19        2980.25           1626          61.00       236.71
 1006.22        2980.50           1630          61.00       236.71
 1006.25        2980.75           1633          57.00       219.27
 1006.28        2981.00           1637          61.00       236.71
 1006.31        2981.25           1640          57.00       219.27
 1006.34        2981.50           1643          54.00       206.19
 1006.37        2981.75           1647          57.00       219.27
 1006.40        2982.00           1650          58.00       223.63
 1006.43        2982.25           1653          49.00       184.40
 1006.47        2982.50           1657          61.00       236.71
 1006.50        2982.75           1660          53.00       201.83
 1006.53        2983.00           1663          57.00       219.27
 1006.56        2983.25           1667          63.00       245.42
 1006.59        2983.50           1670          54.00       206.19
 1006.62        2983.75           1673          52.00       197.47
 1006.65        2984.00           1677          57.00       219.27
HS scan finished at 16:46:52
end
