************************************************************
  HS Scan of (1) Internal mercury lamp
************************************************************
Integration time is 0.2294 seconds per sample
dh021217Manchester 53.47 2.23 2.804185pr1000
************************************************************
Dead Time -------------------------  3E-08 
Number of Cycles Used -------------  4 
Starting Wavelength (Angstroms) ---  2950 
Final Wavelength (Angstoms) -------  2984 
Wavelength Increment (Angstroms) --  .25 
Filter Wheel #1 Position ---------- (1) Ground quartz diffuser (ND=2.32)
Filter Wheel #2 Position ---------- (1) Neutral Density 0.494



************************************************************
HS scan start time = 05:07:00
Dark Count =  6 


Time (GMT)  Wavelength (Ang)  Step Number  Raw Counts  Counts/Second

  307.37        2950.00           1222          60.00       235.40
  307.44        2950.25           1226          65.00       257.19
  307.47        2950.50           1229          58.00       226.68
  307.50        2950.75           1232          64.00       252.84
  307.53        2951.00           1236          59.00       231.04
  307.56        2951.25           1239          71.00       283.35
  307.60        2951.50           1242          56.00       217.96
  307.63        2951.75           1246          69.00       274.63
  307.66        2952.00           1249          54.00       209.24
  307.69        2952.25           1252          75.00       300.79
  307.72        2952.50           1256          59.00       231.04
  307.75        2952.75           1259          65.00       257.19
  307.78        2953.00           1262          67.00       265.91
  307.81        2953.25           1266          70.00       278.99
  307.84        2953.50           1269          63.00       248.48
  307.87        2953.75           1272          62.00       244.12
  307.90        2954.00           1276          61.00       239.76
  307.94        2954.25           1279          63.00       248.48
  307.97        2954.50           1282          55.00       213.60
  308.00        2954.75           1286          69.00       274.63
  308.03        2955.00           1289          59.00       231.04
  308.06        2955.25           1292          65.00       257.19
  308.09        2955.50           1296          70.00       278.99
  308.12        2955.75           1299          55.00       213.60
  308.15        2956.00           1302          62.00       244.12
  308.18        2956.25           1306          63.00       248.48
  308.21        2956.50           1309          67.00       265.91
  308.24        2956.75           1312          60.00       235.40
  308.28        2957.00           1316          67.00       265.91
  308.31        2957.25           1319          68.00       270.27
  308.34        2957.50           1322          65.00       257.19
  308.37        2957.75           1326          66.00       261.55
  308.40        2958.00           1329          69.00       274.63
  308.43        2958.25           1332          63.00       248.48
  308.46        2958.50           1336          61.00       239.76
  308.49        2958.75           1339          62.00       244.12
  308.52        2959.00           1342          67.00       265.91
  308.55        2959.25           1346          64.00       252.84
  308.58        2959.50           1349          70.00       278.99
  308.61        2959.75           1352          90.00       366.18
  308.64        2960.00           1356         116.00       479.52
  308.67        2960.25           1359         146.00       610.30
  308.71        2960.50           1362         186.00       784.67
  308.74        2960.75           1366         238.00      1011.36
  308.77        2961.00           1369         279.00      1190.10
  308.80        2961.25           1372         299.00      1277.29
  308.83        2961.50           1376         391.00      1678.38
  308.86        2961.75           1379         589.00      2541.61
  308.89        2962.00           1382        1327.00      5759.50
  308.92        2962.25           1386        2972.00     12934.40
  308.95        2962.50           1389        4411.00     19213.34
  308.98        2962.75           1392        5992.00     26114.61
  309.01        2963.00           1396        7820.00     34097.63
  309.04        2963.25           1399        9301.00     40568.09
  309.07        2963.50           1402       10874.00     47443.24
  309.10        2963.75           1406       12870.00     56171.30
  309.13        2964.00           1409       14676.00     64072.48
  309.16        2964.25           1412       16337.00     71342.60
  309.20        2964.50           1416       18614.00     81314.07
  309.23        2964.75           1419       20046.00     87588.18
  309.26        2965.00           1422       21688.00     94785.28
  309.29        2965.25           1426       23743.00    103797.00
  309.32        2965.50           1429       25366.00    110917.70
  309.35        2965.75           1432       26734.00    116922.10
  309.38        2966.00           1436       28815.00    126060.00
  309.41        2966.25           1439       30198.00    132135.70
  309.44        2966.50           1442       31510.00    137901.50
  309.47        2966.75           1446       33047.00    144658.70
  309.50        2967.00           1449       33325.00    145881.20
  309.54        2967.25           1452       33231.00    145467.80
  309.57        2967.50           1456       33424.00    146316.50
  309.60        2967.75           1459       33186.00    145269.90
  309.63        2968.00           1462       33129.00    145019.30
  309.66        2968.25           1466       32056.00    140301.60
  309.69        2968.50           1469       30680.00    134253.70
  309.72        2968.75           1472       29418.00    128708.80
  309.75        2969.00           1476       27703.00    121176.40
  309.78        2969.25           1479       25924.00    113366.60
  309.82        2969.50           1482       24344.00    106433.50
  309.85        2969.75           1486       22374.00     97793.03
  309.88        2970.00           1489       20869.00     91195.09
  309.91        2970.25           1492       19377.00     84656.76
  309.94        2970.50           1496       17462.00     76268.48
  309.97        2970.75           1499       15721.00     68646.02
  310.00        2971.00           1502       14172.00     61867.12
  310.03        2971.25           1506       12220.00     53328.49
  310.06        2971.50           1509       10592.00     46210.49
  310.09        2971.75           1513        8680.00     37854.65
  310.12        2972.00           1516        7140.00     31127.57
  310.16        2972.25           1519        5638.00     24569.11
  310.19        2972.50           1523        3746.00     16311.38
  310.22        2972.75           1526        2271.00      9876.51
  310.25        2973.00           1529        1043.00      4521.10
  310.28        2973.25           1533         431.00      1852.76
  310.31        2973.50           1536         330.00      1412.44
  310.34        2973.75           1539         289.00      1233.70
  310.37        2974.00           1543         245.00      1041.88
  310.40        2974.25           1546         182.00       767.24
  310.43        2974.50           1549         146.00       610.30
  310.46        2974.75           1553         105.00       431.57
  310.50        2975.00           1556          75.00       300.79
  310.53        2975.25           1559          60.00       235.40
  310.56        2975.50           1563          61.00       239.76
  310.59        2975.75           1566          54.00       209.24
  310.62        2976.00           1569          59.00       231.04
  310.65        2976.25           1573          68.00       270.27
  310.68        2976.50           1576          65.00       257.19
  310.71        2976.75           1579          62.00       244.12
  310.74        2977.00           1583          57.00       222.32
  310.77        2977.25           1586          56.00       217.96
  310.80        2977.50           1590          64.00       252.84
  310.83        2977.75           1593          54.00       209.24
  310.86        2978.00           1596          60.00       235.40
  310.89        2978.25           1600          56.00       217.96
  310.92        2978.50           1603          61.00       239.76
  310.95        2978.75           1606          61.00       239.76
  310.99        2979.00           1610          65.00       257.19
  311.02        2979.25           1613          57.00       222.32
  311.05        2979.50           1616          60.00       235.40
  311.08        2979.75           1620          58.00       226.68
  311.11        2980.00           1623          65.00       257.19
  311.14        2980.25           1626          55.00       213.60
  311.17        2980.50           1630          61.00       239.76
  311.20        2980.75           1633          60.00       235.40
  311.23        2981.00           1637          47.00       178.73
  311.27        2981.25           1640          60.00       235.40
  311.30        2981.50           1643          61.00       239.76
  311.33        2981.75           1647          56.00       217.96
  311.36        2982.00           1650          65.00       257.19
  311.39        2982.25           1653          60.00       235.40
  311.42        2982.50           1657          55.00       213.60
  311.45        2982.75           1660          52.00       200.52
  311.48        2983.00           1663          54.00       209.24
  311.51        2983.25           1667          66.00       261.55
  311.54        2983.50           1670          54.00       209.24
  311.57        2983.75           1673          59.00       231.04
  311.60        2984.00           1677          56.00       217.96
HS scan finished at 05:11:49
end
************************************************************
  HS Scan of (1) Internal mercury lamp
************************************************************
Integration time is 0.2294 seconds per sample
dh021217Manchester 53.47 2.23 2.804185pr1000
************************************************************
Dead Time -------------------------  3E-08 
Number of Cycles Used -------------  4 
Starting Wavelength (Angstroms) ---  2950 
Final Wavelength (Angstoms) -------  2984 
Wavelength Increment (Angstroms) --  .25 
Filter Wheel #1 Position ---------- (1) Ground quartz diffuser (ND=2.32)
Filter Wheel #2 Position ---------- (1) Neutral Density 0.494



************************************************************
HS scan start time = 16:42:01
Dark Count =  7.6 


Time (GMT)  Wavelength (Ang)  Step Number  Raw Counts  Counts/Second

 1002.39        2950.00           1222          62.00       237.14
 1002.46        2950.25           1226          61.00       232.78
 1002.49        2950.50           1229          67.00       258.94
 1002.52        2950.75           1232          71.00       276.38
 1002.55        2951.00           1236          70.00       272.02
 1002.58        2951.25           1239          61.00       232.78
 1002.61        2951.50           1242          58.00       219.71
 1002.64        2951.75           1246          64.00       245.86
 1002.67        2952.00           1249          61.00       232.78
 1002.70        2952.25           1252          63.00       241.50
 1002.73        2952.50           1256          63.00       241.50
 1002.76        2952.75           1259          70.00       272.02
 1002.80        2953.00           1262          66.00       254.58
 1002.83        2953.25           1266          64.00       245.86
 1002.86        2953.50           1269          64.00       245.86
 1002.89        2953.75           1272          68.00       263.30
 1002.92        2954.00           1276          61.00       232.78
 1002.95        2954.25           1279          71.00       276.38
 1002.98        2954.50           1282          68.00       263.30
 1003.01        2954.75           1286          71.00       276.38
 1003.04        2955.00           1289          63.00       241.50
 1003.07        2955.25           1292          68.00       263.30
 1003.10        2955.50           1296          63.00       241.50
 1003.13        2955.75           1299          64.00       245.86
 1003.17        2956.00           1302          62.00       237.14
 1003.20        2956.25           1306          64.00       245.86
 1003.23        2956.50           1309          64.00       245.86
 1003.26        2956.75           1312          67.00       258.94
 1003.29        2957.00           1316          65.00       250.22
 1003.32        2957.25           1319          66.00       254.58
 1003.35        2957.50           1322          60.00       228.42
 1003.38        2957.75           1326          64.00       245.86
 1003.41        2958.00           1329          67.00       258.94
 1003.44        2958.25           1332          60.00       228.42
 1003.47        2958.50           1336          60.00       228.42
 1003.50        2958.75           1339          67.00       258.94
 1003.53        2959.00           1342          60.00       228.42
 1003.57        2959.25           1346          76.00       298.17
 1003.60        2959.50           1349          73.00       285.09
 1003.63        2959.75           1352          85.00       337.41
 1003.66        2960.00           1356         109.00       442.03
 1003.69        2960.25           1359         135.00       555.37
 1003.72        2960.50           1362         174.00       725.39
 1003.75        2960.75           1366         213.00       895.40
 1003.78        2961.00           1369         278.00      1178.77
 1003.81        2961.25           1372         296.00      1257.24
 1003.84        2961.50           1376         379.00      1619.08
 1003.87        2961.75           1379         578.00      2486.67
 1003.90        2962.00           1382        1185.00      5133.31
 1003.93        2962.25           1386        2890.00     12569.69
 1003.97        2962.50           1389        4350.00     18940.14
 1004.00        2962.75           1392        5805.00     25291.20
 1004.03        2963.00           1396        7755.00     33806.72
 1004.06        2963.25           1399        9314.00     40617.91
 1004.09        2963.50           1402       10833.00     47257.01
 1004.12        2963.75           1406       12985.00     56667.32
 1004.15        2964.00           1409       14566.00     63584.13
 1004.18        2964.25           1412       16114.00     70359.35
 1004.21        2964.50           1416       18196.00     79476.11
 1004.24        2964.75           1419       19662.00     85898.49
 1004.27        2965.00           1422       21259.00     92897.60
 1004.31        2965.25           1426       23413.00    102342.50
 1004.34        2965.50           1429       24776.00    108321.80
 1004.37        2965.75           1432       26444.00    115642.00
 1004.40        2966.00           1436       28241.00    123532.00
 1004.43        2966.25           1439       29784.00    130309.70
 1004.46        2966.50           1442       30908.00    135248.60
 1004.49        2966.75           1446       32499.00    142242.10
 1004.52        2967.00           1449       33020.00    144532.90
 1004.55        2967.25           1452       33211.00    145372.80
 1004.59        2967.50           1456       32910.00    144049.20
 1004.62        2967.75           1459       33174.00    145210.10
 1004.65        2968.00           1462       32937.00    144168.00
 1004.68        2968.25           1466       32093.00    140457.20
 1004.71        2968.50           1469       30665.00    134180.70
 1004.74        2968.75           1472       29217.00    127818.80
 1004.77        2969.00           1476       27162.00    118794.00
 1004.80        2969.25           1479       25693.00    112345.80
 1004.83        2969.50           1482       24222.00    105891.20
 1004.87        2969.75           1486       22061.00     96413.60
 1004.90        2970.00           1489       20710.00     90491.19
 1004.93        2970.25           1492       19075.00     83326.61
 1004.96        2970.50           1496       17187.00     75057.22
 1004.99        2970.75           1499       15660.00     68372.02
 1005.02        2971.00           1502       14042.00     61291.33
 1005.05        2971.25           1506       12124.00     52901.68
 1005.08        2971.50           1509       10544.00     45993.68
 1005.11        2971.75           1513        8437.00     36786.00
 1005.15        2972.00           1516        6984.00     30439.29
 1005.18        2972.25           1519        5335.00     23239.39
 1005.21        2972.50           1523        3452.00     15021.59
 1005.24        2972.75           1526        2049.00      8901.24
 1005.27        2973.00           1529         895.00      3868.80
 1005.30        2973.25           1533         434.00      1858.87
 1005.33        2973.50           1536         332.00      1414.18
 1005.36        2973.75           1539         271.00      1148.25
 1005.40        2974.00           1543         231.00       973.87
 1005.43        2974.25           1546         165.00       686.15
 1005.46        2974.50           1549         131.00       537.93
 1005.49        2974.75           1553          96.00       385.36
 1005.52        2975.00           1556          74.00       289.45
 1005.55        2975.25           1559          70.00       272.02
 1005.58        2975.50           1563          63.00       241.50
 1005.61        2975.75           1566          58.00       219.71
 1005.64        2976.00           1569          71.00       276.38
 1005.67        2976.25           1573          58.00       219.71
 1005.70        2976.50           1576          58.00       219.71
 1005.74        2976.75           1579          61.00       232.78
 1005.77        2977.00           1583          62.00       237.14
 1005.80        2977.25           1586          67.00       258.94
 1005.83        2977.50           1590          62.00       237.14
 1005.86        2977.75           1593          64.00       245.86
 1005.89        2978.00           1596          53.00       197.91
 1005.92        2978.25           1600          55.00       206.63
 1005.95        2978.50           1603          54.00       202.27
 1005.98        2978.75           1606          57.00       215.35
 1006.01        2979.00           1610          57.00       215.35
 1006.04        2979.25           1613          51.00       189.19
 1006.07        2979.50           1616          66.00       254.58
 1006.10        2979.75           1620          57.00       215.35
 1006.13        2980.00           1623          58.00       219.71
 1006.16        2980.25           1626          59.00       224.06
 1006.19        2980.50           1630          52.00       193.55
 1006.22        2980.75           1633          56.00       210.99
 1006.26        2981.00           1637          55.00       206.63
 1006.29        2981.25           1640          53.00       197.91
 1006.32        2981.50           1643          54.00       202.27
 1006.35        2981.75           1647          62.00       237.14
 1006.38        2982.00           1650          53.00       197.91
 1006.41        2982.25           1653          58.00       219.71
 1006.44        2982.50           1657          55.00       206.63
 1006.47        2982.75           1660          49.00       180.47
 1006.50        2983.00           1663          53.00       197.91
 1006.53        2983.25           1667          58.00       219.71
 1006.56        2983.50           1670          57.00       215.35
 1006.59        2983.75           1673          49.00       180.47
 1006.62        2984.00           1677          53.00       197.91
HS scan finished at 16:46:50
end
