************************************************************
  HS Scan of (1) Internal mercury lamp
************************************************************
Integration time is 0.2294 seconds per sample
dh281118Manchester 53.47 2.23 2.804185pr1000
************************************************************
Dead Time -------------------------  3E-08 
Number of Cycles Used -------------  4 
Starting Wavelength (Angstroms) ---  2950 
Final Wavelength (Angstoms) -------  2984 
Wavelength Increment (Angstroms) --  .25 
Filter Wheel #1 Position ---------- (1) Ground quartz diffuser (ND=2.32)
Filter Wheel #2 Position ---------- (1) Neutral Density 0.494



************************************************************
HS scan start time = 16:42:00
Dark Count =  7.5 


Time (GMT)  Wavelength (Ang)  Step Number  Raw Counts  Counts/Second

 1002.38        2950.00           1222          50.00       185.27
 1002.44        2950.25           1226          57.00       215.78
 1002.47        2950.50           1229          49.00       180.91
 1002.51        2950.75           1232          56.00       211.42
 1002.54        2951.00           1236          44.00       159.11
 1002.57        2951.25           1239          46.00       167.83
 1002.60        2951.50           1242          44.00       159.11
 1002.63        2951.75           1246          50.00       185.27
 1002.66        2952.00           1249          51.00       189.63
 1002.69        2952.25           1252          55.00       207.06
 1002.72        2952.50           1256          48.00       176.55
 1002.75        2952.75           1259          55.00       207.06
 1002.78        2953.00           1262          56.00       211.42
 1002.81        2953.25           1266          48.00       176.55
 1002.84        2953.50           1269          57.00       215.78
 1002.87        2953.75           1272          44.00       159.11
 1002.90        2954.00           1276          48.00       176.55
 1002.93        2954.25           1279          45.00       163.47
 1002.97        2954.50           1282          50.00       185.27
 1003.00        2954.75           1286          50.00       185.27
 1003.03        2955.00           1289          50.00       185.27
 1003.06        2955.25           1292          46.00       167.83
 1003.09        2955.50           1296          50.00       185.27
 1003.12        2955.75           1299          55.00       207.06
 1003.15        2956.00           1302          48.00       176.55
 1003.18        2956.25           1306          43.00       154.75
 1003.21        2956.50           1309          46.00       167.83
 1003.24        2956.75           1312          46.00       167.83
 1003.27        2957.00           1316          50.00       185.27
 1003.30        2957.25           1319          52.00       193.99
 1003.33        2957.50           1322          44.00       159.11
 1003.36        2957.75           1326          49.00       180.91
 1003.39        2958.00           1329          44.00       159.11
 1003.43        2958.25           1332          47.00       172.19
 1003.46        2958.50           1336          46.00       167.83
 1003.49        2958.75           1339          53.00       198.34
 1003.52        2959.00           1342          48.00       176.55
 1003.55        2959.25           1346          56.00       211.42
 1003.58        2959.50           1349          57.00       215.78
 1003.61        2959.75           1352          71.00       276.81
 1003.64        2960.00           1356          78.00       307.33
 1003.67        2960.25           1359         101.00       407.59
 1003.70        2960.50           1362         127.00       520.93
 1003.73        2960.75           1366         178.00       743.26
 1003.76        2961.00           1369         197.00       826.09
 1003.79        2961.25           1372         210.00       882.76
 1003.83        2961.50           1376         298.00      1266.40
 1003.86        2961.75           1379         431.00      1846.22
 1003.89        2962.00           1382         965.00      4174.46
 1003.92        2962.25           1386        2322.00     10092.42
 1003.95        2962.50           1389        3470.00     15100.56
 1003.98        2962.75           1392        4648.00     20241.15
 1004.01        2963.00           1396        6096.00     26562.13
 1004.04        2963.25           1399        7260.00     31645.11
 1004.07        2963.50           1402        8411.00     36672.85
 1004.10        2963.75           1406        9820.00     42829.63
 1004.13        2964.00           1409       11171.00     48735.11
 1004.16        2964.25           1412       12407.00     54139.74
 1004.19        2964.50           1416       13937.00     60832.37
 1004.23        2964.75           1419       15023.00     65584.46
 1004.26        2965.00           1422       16314.00     71235.34
 1004.29        2965.25           1426       17911.00     78228.28
 1004.32        2965.50           1429       19144.00     83629.34
 1004.35        2965.75           1432       20358.00     88948.91
 1004.38        2966.00           1436       21937.00     95870.37
 1004.41        2966.25           1439       22956.00    100338.60
 1004.44        2966.50           1442       24076.00    105251.20
 1004.47        2966.75           1446       25342.00    110805.80
 1004.51        2967.00           1449       25437.00    111222.70
 1004.54        2967.25           1452       25534.00    111648.40
 1004.57        2967.50           1456       25514.00    111560.60
 1004.60        2967.75           1459       25519.00    111582.60
 1004.63        2968.00           1462       25351.00    110845.30
 1004.66        2968.25           1466       24593.00    107519.30
 1004.69        2968.50           1469       23566.00    103014.00
 1004.72        2968.75           1472       22482.00     98260.02
 1004.75        2969.00           1476       21031.00     91898.61
 1004.78        2969.25           1479       19850.00     86722.72
 1004.82        2969.50           1482       18847.00     82328.20
 1004.85        2969.75           1486       17299.00     75548.10
 1004.88        2970.00           1489       15916.00     69493.03
 1004.91        2970.25           1492       14955.00     65286.86
 1004.94        2970.50           1496       13294.00     58019.39
 1004.97        2970.75           1499       12063.00     52635.37
 1005.00        2971.00           1502       10849.00     47327.40
 1005.03        2971.25           1506        9477.00     41330.64
 1005.06        2971.50           1509        8103.00     35327.31
 1005.09        2971.75           1513        6485.00     28260.66
 1005.12        2972.00           1516        5333.00     23231.09
 1005.16        2972.25           1519        4156.00     18093.95
 1005.19        2972.50           1523        2684.00     11671.48
 1005.22        2972.75           1526        1619.00      7026.33
 1005.25        2973.00           1529         767.00      3311.14
 1005.28        2973.25           1533         349.00      1488.73
 1005.31        2973.50           1536         267.00      1131.25
 1005.34        2973.75           1539         230.00       969.95
 1005.37        2974.00           1543         196.00       821.73
 1005.40        2974.25           1546         150.00       621.20
 1005.43        2974.50           1549         116.00       472.98
 1005.46        2974.75           1553          73.00       285.53
 1005.50        2975.00           1556          69.00       268.09
 1005.53        2975.25           1559          57.00       215.78
 1005.56        2975.50           1563          50.00       185.27
 1005.59        2975.75           1566          46.00       167.83
 1005.62        2976.00           1569          50.00       185.27
 1005.65        2976.25           1573          43.00       154.75
 1005.68        2976.50           1576          45.00       163.47
 1005.71        2976.75           1579          51.00       189.63
 1005.74        2977.00           1583          46.00       167.83
 1005.77        2977.25           1586          46.00       167.83
 1005.80        2977.50           1590          56.00       211.42
 1005.83        2977.75           1593          42.00       150.39
 1005.87        2978.00           1596          52.00       193.99
 1005.90        2978.25           1600          46.00       167.83
 1005.93        2978.50           1603          40.00       141.67
 1005.96        2978.75           1606          57.00       215.78
 1005.99        2979.00           1610          43.00       154.75
 1006.02        2979.25           1613          49.00       180.91
 1006.05        2979.50           1616          46.00       167.83
 1006.08        2979.75           1620          41.00       146.03
 1006.11        2980.00           1623          48.00       176.55
 1006.14        2980.25           1626          46.00       167.83
 1006.17        2980.50           1630          44.00       159.11
 1006.20        2980.75           1633          49.00       180.91
 1006.23        2981.00           1637          46.00       167.83
 1006.26        2981.25           1640          44.00       159.11
 1006.29        2981.50           1643          43.00       154.75
 1006.33        2981.75           1647          41.00       146.03
 1006.36        2982.00           1650          42.00       150.39
 1006.39        2982.25           1653          46.00       167.83
 1006.42        2982.50           1657          46.00       167.83
 1006.45        2982.75           1660          45.00       163.47
 1006.48        2983.00           1663          40.00       141.67
 1006.51        2983.25           1667          39.00       137.32
 1006.54        2983.50           1670          49.00       180.91
 1006.57        2983.75           1673          37.00       128.60
 1006.60        2984.00           1677          51.00       189.63
HS scan finished at 16:46:49
end
