************************************************************
  HS Scan of (1) Internal mercury lamp
************************************************************
Integration time is 0.2294 seconds per sample
dh021218Manchester 53.47 2.23 2.804185pr1000
************************************************************
Dead Time -------------------------  3E-08 
Number of Cycles Used -------------  4 
Starting Wavelength (Angstroms) ---  2950 
Final Wavelength (Angstoms) -------  2984 
Wavelength Increment (Angstroms) --  .25 
Filter Wheel #1 Position ---------- (1) Ground quartz diffuser (ND=2.32)
Filter Wheel #2 Position ---------- (1) Neutral Density 0.494



************************************************************
HS scan start time = 05:06:42
Dark Count =  5.2 


Time (GMT)  Wavelength (Ang)  Step Number  Raw Counts  Counts/Second

  307.06        2950.00           1222          48.00       186.57
  307.13        2950.25           1226          53.00       208.37
  307.16        2950.50           1229          49.00       190.93
  307.19        2950.75           1232          58.00       230.17
  307.22        2951.00           1236          47.00       182.22
  307.25        2951.25           1239          47.00       182.22
  307.28        2951.50           1242          52.00       204.01
  307.31        2951.75           1246          56.00       221.45
  307.34        2952.00           1249          55.00       217.09
  307.37        2952.25           1252          50.00       195.29
  307.41        2952.50           1256          43.00       164.78
  307.44        2952.75           1259          59.00       234.53
  307.47        2953.00           1262          49.00       190.93
  307.50        2953.25           1266          52.00       204.01
  307.53        2953.50           1269          48.00       186.57
  307.56        2953.75           1272          58.00       230.17
  307.59        2954.00           1276          53.00       208.37
  307.62        2954.25           1279          42.00       160.42
  307.65        2954.50           1282          47.00       182.22
  307.68        2954.75           1286          60.00       238.89
  307.71        2955.00           1289          51.00       199.65
  307.74        2955.25           1292          54.00       212.73
  307.77        2955.50           1296          50.00       195.29
  307.81        2955.75           1299          56.00       221.45
  307.84        2956.00           1302          51.00       199.65
  307.87        2956.25           1306          56.00       221.45
  307.90        2956.50           1309          48.00       186.57
  307.93        2956.75           1312          48.00       186.57
  307.96        2957.00           1316          67.00       269.40
  307.99        2957.25           1319          39.00       147.34
  308.02        2957.50           1322          41.00       156.06
  308.05        2957.75           1326          42.00       160.42
  308.08        2958.00           1329          53.00       208.37
  308.11        2958.25           1332          46.00       177.86
  308.14        2958.50           1336          53.00       208.37
  308.17        2958.75           1339          48.00       186.57
  308.20        2959.00           1342          53.00       208.37
  308.23        2959.25           1346          51.00       199.65
  308.27        2959.50           1349          53.00       208.37
  308.30        2959.75           1352          56.00       221.45
  308.33        2960.00           1356          69.00       278.12
  308.36        2960.25           1359          87.00       356.59
  308.39        2960.50           1362         114.00       474.29
  308.42        2960.75           1366         154.00       648.66
  308.45        2961.00           1369         172.00       727.13
  308.48        2961.25           1372         200.00       849.19
  308.51        2961.50           1376         254.00      1084.60
  308.54        2961.75           1379         291.00      1245.91
  308.57        2962.00           1382         472.00      2035.00
  308.61        2962.25           1386        1398.00      6072.60
  308.64        2962.50           1389        2483.00     10804.72
  308.67        2962.75           1392        3564.00     15520.74
  308.70        2963.00           1396        5002.00     21796.29
  308.73        2963.25           1399        6106.00     26615.84
  308.76        2963.50           1402        7197.00     31380.01
  308.79        2963.75           1406        8836.00     38539.74
  308.82        2964.00           1409        9869.00     43053.83
  308.85        2964.25           1412       11036.00     48154.96
  308.88        2964.50           1416       12636.00     55151.33
  308.92        2964.75           1419       13676.00     59700.56
  308.95        2965.00           1422       14879.00     64964.33
  308.98        2965.25           1426       16406.00     71648.18
  309.01        2965.50           1429       17670.00     77182.88
  309.04        2965.75           1432       18668.00     81554.13
  309.07        2966.00           1436       20164.00     88108.80
  309.10        2966.25           1439       21208.00     92684.56
  309.13        2966.50           1442       22415.00     97976.32
  309.16        2966.75           1446       23570.00    103041.70
  309.20        2967.00           1449       24150.00    105585.90
  309.23        2967.25           1452       24403.00    106695.80
  309.26        2967.50           1456       24345.00    106441.40
  309.29        2967.75           1459       24546.00    107323.20
  309.32        2968.00           1462       24587.00    107503.10
  309.35        2968.25           1466       24064.00    105208.60
  309.38        2968.50           1469       23231.00    101554.80
  309.41        2968.75           1472       22438.00     98077.18
  309.44        2969.00           1476       20825.00     91005.76
  309.48        2969.25           1479       19696.00     86057.99
  309.51        2969.50           1482       18805.00     82154.28
  309.54        2969.75           1486       17246.00     75326.10
  309.57        2970.00           1489       16228.00     70868.91
  309.60        2970.25           1492       15070.00     65800.21
  309.63        2970.50           1496       13555.00     59171.21
  309.66        2970.75           1499       12297.00     53668.73
  309.69        2971.00           1502       11211.00     48920.05
  309.72        2971.25           1506        9834.00     42900.86
  309.75        2971.50           1509        8603.00     37521.72
  309.78        2971.75           1513        7104.00     30973.84
  309.81        2972.00           1516        5963.00     25991.49
  309.85        2972.25           1519        4858.00     21167.76
  309.88        2972.50           1523        3434.00     14953.53
  309.91        2972.75           1526        2341.00     10185.33
  309.94        2973.00           1529        1262.00      5479.54
  309.97        2973.25           1533         457.00      1969.60
  310.00        2973.50           1536         273.00      1167.43
  310.03        2973.75           1539         229.00       975.62
  310.06        2974.00           1543         199.00       844.83
  310.09        2974.25           1546         154.00       648.66
  310.12        2974.50           1549         128.00       535.32
  310.16        2974.75           1553          92.00       378.38
  310.19        2975.00           1556          69.00       278.12
  310.22        2975.25           1559          51.00       199.65
  310.25        2975.50           1563          45.00       173.50
  310.28        2975.75           1566          49.00       190.93
  310.31        2976.00           1569          48.00       186.57
  310.34        2976.25           1573          45.00       173.50
  310.37        2976.50           1576          49.00       190.93
  310.40        2976.75           1579          44.00       169.14
  310.43        2977.00           1583          47.00       182.22
  310.47        2977.25           1586          39.00       147.34
  310.50        2977.50           1590          45.00       173.50
  310.53        2977.75           1593          42.00       160.42
  310.56        2978.00           1596          46.00       177.86
  310.59        2978.25           1600          47.00       182.22
  310.62        2978.50           1603          50.00       195.29
  310.65        2978.75           1606          49.00       190.93
  310.68        2979.00           1610          44.00       169.14
  310.71        2979.25           1613          45.00       173.50
  310.74        2979.50           1616          41.00       156.06
  310.77        2979.75           1620          44.00       169.14
  310.80        2980.00           1623          41.00       156.06
  310.83        2980.25           1626          54.00       212.73
  310.86        2980.50           1630          43.00       164.78
  310.90        2980.75           1633          50.00       195.29
  310.93        2981.00           1637          46.00       177.86
  310.96        2981.25           1640          48.00       186.57
  310.99        2981.50           1643          46.00       177.86
  311.02        2981.75           1647          49.00       190.93
  311.05        2982.00           1650          43.00       164.78
  311.08        2982.25           1653          40.00       151.70
  311.11        2982.50           1657          46.00       177.86
  311.14        2982.75           1660          54.00       212.73
  311.17        2983.00           1663          49.00       190.93
  311.21        2983.25           1667          44.00       169.14
  311.24        2983.50           1670          44.00       169.14
  311.27        2983.75           1673          42.00       160.42
  311.30        2984.00           1677          45.00       173.50
HS scan finished at 05:11:31
end
************************************************************
  HS Scan of (1) Internal mercury lamp
************************************************************
Integration time is 0.2294 seconds per sample
dh021218Manchester 53.47 2.23 2.804185pr1000
************************************************************
Dead Time -------------------------  3E-08 
Number of Cycles Used -------------  4 
Starting Wavelength (Angstroms) ---  2950 
Final Wavelength (Angstoms) -------  2984 
Wavelength Increment (Angstroms) --  .25 
Filter Wheel #1 Position ---------- (1) Ground quartz diffuser (ND=2.32)
Filter Wheel #2 Position ---------- (1) Neutral Density 0.494



************************************************************
HS scan start time = 16:42:01
Dark Count =  7.7 


Time (GMT)  Wavelength (Ang)  Step Number  Raw Counts  Counts/Second

 1002.38        2950.00           1222          47.00       171.32
 1002.45        2950.25           1226          48.00       175.68
 1002.48        2950.50           1229          55.00       206.19
 1002.51        2950.75           1232          47.00       171.32
 1002.54        2951.00           1236          52.00       193.11
 1002.57        2951.25           1239          51.00       188.75
 1002.60        2951.50           1242          47.00       171.32
 1002.63        2951.75           1246          46.00       166.96
 1002.66        2952.00           1249          46.00       166.96
 1002.69        2952.25           1252          46.00       166.96
 1002.72        2952.50           1256          50.00       184.40
 1002.75        2952.75           1259          45.00       162.60
 1002.78        2953.00           1262          42.00       149.52
 1002.81        2953.25           1266          49.00       180.04
 1002.84        2953.50           1269          57.00       214.91
 1002.87        2953.75           1272          50.00       184.40
 1002.91        2954.00           1276          52.00       193.11
 1002.94        2954.25           1279          51.00       188.75
 1002.97        2954.50           1282          41.00       145.16
 1003.00        2954.75           1286          45.00       162.60
 1003.03        2955.00           1289          47.00       171.32
 1003.06        2955.25           1292          60.00       227.99
 1003.09        2955.50           1296          44.00       158.24
 1003.12        2955.75           1299          57.00       214.91
 1003.15        2956.00           1302          52.00       193.11
 1003.18        2956.25           1306          45.00       162.60
 1003.21        2956.50           1309          42.00       149.52
 1003.24        2956.75           1312          53.00       197.47
 1003.28        2957.00           1316          45.00       162.60
 1003.31        2957.25           1319          50.00       184.40
 1003.34        2957.50           1322          49.00       180.04
 1003.37        2957.75           1326          45.00       162.60
 1003.40        2958.00           1329          51.00       188.75
 1003.43        2958.25           1332          56.00       210.55
 1003.46        2958.50           1336          51.00       188.75
 1003.49        2958.75           1339          43.00       153.88
 1003.52        2959.00           1342          47.00       171.32
 1003.56        2959.25           1346          53.00       197.47
 1003.59        2959.50           1349          49.00       180.04
 1003.62        2959.75           1352          58.00       219.27
 1003.65        2960.00           1356          71.00       275.94
 1003.68        2960.25           1359          93.00       371.84
 1003.71        2960.50           1362         126.00       515.70
 1003.74        2960.75           1366         156.00       646.48
 1003.77        2961.00           1369         187.00       781.62
 1003.80        2961.25           1372         223.00       938.56
 1003.83        2961.50           1376         276.00      1169.61
 1003.86        2961.75           1379         393.00      1679.68
 1003.89        2962.00           1382         815.00      3519.55
 1003.93        2962.25           1386        2090.00      9079.63
 1003.96        2962.50           1389        3196.00     13904.23
 1003.99        2962.75           1392        4318.00     18800.05
 1004.02        2963.00           1396        5788.00     25216.54
 1004.05        2963.25           1399        6842.00     29818.73
 1004.08        2963.50           1402        8029.00     35003.17
 1004.11        2963.75           1406        9521.00     41522.05
 1004.14        2964.00           1409       10590.00     46194.32
 1004.17        2964.25           1412       11844.00     51676.83
 1004.20        2964.50           1416       13153.00     57401.73
 1004.24        2964.75           1419       14371.00     62730.41
 1004.27        2965.00           1422       15385.00     67167.90
 1004.30        2965.25           1426       16913.00     73857.02
 1004.33        2965.50           1429       17940.00     78354.43
 1004.36        2965.75           1432       19155.00     83676.66
 1004.39        2966.00           1436       20683.00     90372.41
 1004.42        2966.25           1439       21716.00     94900.59
 1004.45        2966.50           1442       22802.00     99662.39
 1004.48        2966.75           1446       23950.00    104697.60
 1004.52        2967.00           1449       24082.00    105276.60
 1004.55        2967.25           1452       24078.00    105259.10
 1004.58        2967.50           1456       24166.00    105645.10
 1004.61        2967.75           1459       24084.00    105285.40
 1004.64        2968.00           1462       24052.00    105145.00
 1004.67        2968.25           1466       23232.00    101548.20
 1004.70        2968.50           1469       22312.00     97513.72
 1004.73        2968.75           1472       21329.00     93204.02
 1004.76        2969.00           1476       19871.00     86813.87
 1004.80        2969.25           1479       18573.00     81127.03
 1004.83        2969.50           1482       17665.00     77150.03
 1004.86        2969.75           1486       15981.00     69776.68
 1004.89        2970.00           1489       14896.00     65027.78
 1004.92        2970.25           1492       14105.00     61566.53
 1004.95        2970.50           1496       12673.00     55302.23
 1004.98        2970.75           1499       11536.00     50330.08
 1005.01        2971.00           1502       10350.00     45145.24
 1005.04        2971.25           1506        8951.00     39031.29
 1005.07        2971.50           1509        7665.00     33413.17
 1005.11        2971.75           1513        6117.00     26652.95
 1005.14        2972.00           1516        5022.00     21872.68
 1005.17        2972.25           1519        4046.00     17613.06
 1005.20        2972.50           1523        2504.00     10885.42
 1005.23        2972.75           1526        1478.00      6410.56
 1005.26        2973.00           1529         694.00      2991.99
 1005.29        2973.25           1533         331.00      1409.39
 1005.32        2973.50           1536         256.00      1082.42
 1005.35        2973.75           1539         225.00       947.28
 1005.39        2974.00           1543         184.00       768.54
 1005.42        2974.25           1546         168.00       698.79
 1005.45        2974.50           1549         127.00       520.06
 1005.48        2974.75           1553          95.00       380.56
 1005.51        2975.00           1556          72.00       280.30
 1005.54        2975.25           1559          50.00       184.40
 1005.57        2975.50           1563          49.00       180.04
 1005.60        2975.75           1566          43.00       153.88
 1005.63        2976.00           1569          44.00       158.24
 1005.67        2976.25           1573          49.00       180.04
 1005.70        2976.50           1576          47.00       171.32
 1005.73        2976.75           1579          48.00       175.68
 1005.76        2977.00           1583          49.00       180.04
 1005.79        2977.25           1586          51.00       188.75
 1005.82        2977.50           1590          50.00       184.40
 1005.85        2977.75           1593          43.00       153.88
 1005.88        2978.00           1596          42.00       149.52
 1005.91        2978.25           1600          43.00       153.88
 1005.94        2978.50           1603          48.00       175.68
 1005.97        2978.75           1606          51.00       188.75
 1006.01        2979.00           1610          46.00       166.96
 1006.04        2979.25           1613          45.00       162.60
 1006.07        2979.50           1616          40.00       140.80
 1006.10        2979.75           1620          51.00       188.75
 1006.13        2980.00           1623          40.00       140.80
 1006.16        2980.25           1626          46.00       166.96
 1006.19        2980.50           1630          46.00       166.96
 1006.22        2980.75           1633          39.00       136.44
 1006.25        2981.00           1637          47.00       171.32
 1006.28        2981.25           1640          38.00       132.08
 1006.31        2981.50           1643          46.00       166.96
 1006.34        2981.75           1647          43.00       153.88
 1006.37        2982.00           1650          49.00       180.04
 1006.40        2982.25           1653          40.00       140.80
 1006.43        2982.50           1657          46.00       166.96
 1006.47        2982.75           1660          45.00       162.60
 1006.50        2983.00           1663          40.00       140.80
 1006.53        2983.25           1667          40.00       140.80
 1006.56        2983.50           1670          46.00       166.96
 1006.59        2983.75           1673          49.00       180.04
 1006.62        2984.00           1677          45.00       162.60
HS scan finished at 16:46:50
end
