************************************************************
  HS Scan of (1) Internal mercury lamp
************************************************************
Integration time is 0.2294 seconds per sample
dh031218Manchester 53.47 2.23 2.804185pr1000
************************************************************
Dead Time -------------------------  3E-08 
Number of Cycles Used -------------  4 
Starting Wavelength (Angstroms) ---  2950 
Final Wavelength (Angstoms) -------  2984 
Wavelength Increment (Angstroms) --  .25 
Filter Wheel #1 Position ---------- (1) Ground quartz diffuser (ND=2.32)
Filter Wheel #2 Position ---------- (1) Neutral Density 0.494



************************************************************
HS scan start time = 05:07:51
Dark Count =  6.8 


Time (GMT)  Wavelength (Ang)  Step Number  Raw Counts  Counts/Second

  308.23        2950.00           1222          55.00       210.11
  308.29        2950.25           1226          54.00       205.76
  308.33        2950.50           1229          49.00       183.96
  308.36        2950.75           1232          47.00       175.24
  308.39        2951.00           1236          46.00       170.88
  308.42        2951.25           1239          54.00       205.76
  308.45        2951.50           1242          44.00       162.16
  308.48        2951.75           1246          52.00       197.04
  308.51        2952.00           1249          45.00       166.52
  308.54        2952.25           1252          46.00       170.88
  308.57        2952.50           1256          57.00       218.83
  308.60        2952.75           1259          45.00       166.52
  308.63        2953.00           1262          51.00       192.68
  308.66        2953.25           1266          51.00       192.68
  308.70        2953.50           1269          47.00       175.24
  308.73        2953.75           1272          49.00       183.96
  308.76        2954.00           1276          46.00       170.88
  308.79        2954.25           1279          46.00       170.88
  308.82        2954.50           1282          44.00       162.16
  308.85        2954.75           1286          50.00       188.32
  308.88        2955.00           1289          52.00       197.04
  308.91        2955.25           1292          48.00       179.60
  308.94        2955.50           1296          51.00       192.68
  308.97        2955.75           1299          44.00       162.16
  309.00        2956.00           1302          49.00       183.96
  309.04        2956.25           1306          53.00       201.40
  309.07        2956.50           1309          51.00       192.68
  309.10        2956.75           1312          50.00       188.32
  309.13        2957.00           1316          47.00       175.24
  309.16        2957.25           1319          47.00       175.24
  309.19        2957.50           1322          46.00       170.88
  309.22        2957.75           1326          41.00       149.09
  309.25        2958.00           1329          47.00       175.24
  309.28        2958.25           1332          48.00       179.60
  309.31        2958.50           1336          50.00       188.32
  309.34        2958.75           1339          49.00       183.96
  309.37        2959.00           1342          43.00       157.80
  309.40        2959.25           1346          56.00       214.47
  309.44        2959.50           1349          49.00       183.96
  309.47        2959.75           1352          55.00       210.11
  309.50        2960.00           1356          66.00       258.07
  309.53        2960.25           1359          89.00       358.33
  309.56        2960.50           1362         107.00       436.80
  309.59        2960.75           1366         142.00       589.37
  309.62        2961.00           1369         170.00       711.44
  309.65        2961.25           1372         207.00       872.73
  309.68        2961.50           1376         258.00      1095.07
  309.71        2961.75           1379         402.00      1722.84
  309.74        2962.00           1382         799.00      3453.71
  309.77        2962.25           1386        2079.00      9035.58
  309.81        2962.50           1389        3240.00     14100.12
  309.84        2962.75           1392        4361.00     18991.64
  309.87        2963.00           1396        5756.00     25080.77
  309.90        2963.25           1399        6849.00     29853.23
  309.93        2963.50           1402        8060.00     35142.53
  309.96        2963.75           1406        9547.00     41639.60
  309.99        2964.00           1409       10751.00     46902.05
  310.02        2964.25           1412       11901.00     51930.02
  310.05        2964.50           1416       13475.00     58814.23
  310.08        2964.75           1419       14561.00     63565.74
  310.11        2965.00           1422       15733.00     68695.04
  310.15        2965.25           1426       17400.00     75993.46
  310.18        2965.50           1429       18480.00     80723.59
  310.21        2965.75           1432       19574.00     85516.41
  310.24        2966.00           1436       21052.00     91993.72
  310.27        2966.25           1439       22140.00     96763.49
  310.30        2966.50           1442       23051.00    100758.30
  310.33        2966.75           1446       24153.00    105592.00
  310.36        2967.00           1449       24449.00    106890.60
  310.39        2967.25           1452       24446.00    106877.50
  310.42        2967.50           1456       24360.00    106500.10
  310.45        2967.75           1459       24397.00    106662.50
  310.49        2968.00           1462       24279.00    106144.80
  310.52        2968.25           1466       23360.00    102113.60
  310.55        2968.50           1469       22265.00     97311.57
  310.58        2968.75           1472       21399.00     93514.82
  310.61        2969.00           1476       19818.00     86585.56
  310.64        2969.25           1479       18733.00     81831.86
  310.67        2969.50           1482       17703.00     77320.38
  310.70        2969.75           1486       16202.00     70748.09
  310.73        2970.00           1489       15028.00     65609.40
  310.77        2970.25           1492       13918.00     60752.30
  310.80        2970.50           1496       12604.00     55004.39
  310.83        2970.75           1499       11283.00     49227.84
  310.86        2971.00           1502       10209.00     44532.87
  310.89        2971.25           1506        8686.00     37877.37
  310.92        2971.50           1509        7516.00     32766.28
  310.95        2971.75           1513        5962.00     25980.14
  310.98        2972.00           1516        4912.00     21396.47
  311.01        2972.25           1519        3821.00     16635.15
  311.04        2972.50           1523        2411.00     10483.68
  311.08        2972.75           1526        1385.00      6008.93
  311.11        2973.00           1529         651.00      2808.43
  311.14        2973.25           1533         334.00      1426.39
  311.17        2973.50           1536         274.00      1164.82
  311.20        2973.75           1539         237.00      1003.52
  311.23        2974.00           1543         190.00       798.62
  311.26        2974.25           1546         169.00       707.08
  311.29        2974.50           1549         127.00       523.98
  311.32        2974.75           1553          87.00       349.61
  311.35        2975.00           1556          72.00       284.22
  311.38        2975.25           1559          54.00       205.76
  311.41        2975.50           1563          50.00       188.32
  311.44        2975.75           1566          46.00       170.88
  311.48        2976.00           1569          49.00       183.96
  311.51        2976.25           1573          47.00       175.24
  311.54        2976.50           1576          50.00       188.32
  311.57        2976.75           1579          41.00       149.09
  311.60        2977.00           1583          52.00       197.04
  311.63        2977.25           1586          50.00       188.32
  311.66        2977.50           1590          41.00       149.09
  311.69        2977.75           1593          44.00       162.16
  311.72        2978.00           1596          42.00       153.44
  311.75        2978.25           1600          52.00       197.04
  311.78        2978.50           1603          44.00       162.16
  311.81        2978.75           1606          46.00       170.88
  311.84        2979.00           1610          40.00       144.73
  311.87        2979.25           1613          44.00       162.16
  311.90        2979.50           1616          40.00       144.73
  311.93        2979.75           1620          38.00       136.01
  311.96        2980.00           1623          44.00       162.16
  312.00        2980.25           1626          43.00       157.80
  312.03        2980.50           1630          40.00       144.73
  312.06        2980.75           1633          53.00       201.40
  312.09        2981.00           1637          35.00       122.93
  312.12        2981.25           1640          43.00       157.80
  312.15        2981.50           1643          46.00       170.88
  312.18        2981.75           1647          45.00       166.52
  312.21        2982.00           1650          44.00       162.16
  312.24        2982.25           1653          44.00       162.16
  312.27        2982.50           1657          38.00       136.01
  312.30        2982.75           1660          47.00       175.24
  312.33        2983.00           1663          52.00       197.04
  312.36        2983.25           1667          47.00       175.24
  312.39        2983.50           1670          44.00       162.16
  312.42        2983.75           1673          40.00       144.73
  312.45        2984.00           1677          41.00       149.09
HS scan finished at 05:12:40
end
************************************************************
  HS Scan of (1) Internal mercury lamp
************************************************************
Integration time is 0.2294 seconds per sample
dh031218Manchester 53.47 2.23 2.804185pr1000
************************************************************
Dead Time -------------------------  3E-08 
Number of Cycles Used -------------  4 
Starting Wavelength (Angstroms) ---  2950 
Final Wavelength (Angstoms) -------  2984 
Wavelength Increment (Angstroms) --  .25 
Filter Wheel #1 Position ---------- (1) Ground quartz diffuser (ND=2.32)
Filter Wheel #2 Position ---------- (1) Neutral Density 0.494



************************************************************
HS scan start time = 16:42:03
Dark Count =  3.6 


Time (GMT)  Wavelength (Ang)  Step Number  Raw Counts  Counts/Second

 1002.43        2950.00           1222          54.00       219.71
 1002.49        2950.25           1226          41.00       163.03
 1002.52        2950.50           1229          52.00       210.99
 1002.56        2950.75           1232          54.00       219.71
 1002.59        2951.00           1236          56.00       228.42
 1002.62        2951.25           1239          43.00       171.75
 1002.65        2951.50           1242          47.00       189.19
 1002.68        2951.75           1246          47.00       189.19
 1002.71        2952.00           1249          50.00       202.27
 1002.74        2952.25           1252          51.00       206.63
 1002.77        2952.50           1256          52.00       210.99
 1002.80        2952.75           1259          54.00       219.71
 1002.83        2953.00           1262          51.00       206.63
 1002.86        2953.25           1266          50.00       202.27
 1002.89        2953.50           1269          48.00       193.55
 1002.92        2953.75           1272          43.00       171.75
 1002.96        2954.00           1276          41.00       163.03
 1002.99        2954.25           1279          49.00       197.91
 1003.02        2954.50           1282          60.00       245.86
 1003.05        2954.75           1286          45.00       180.47
 1003.08        2955.00           1289          47.00       189.19
 1003.11        2955.25           1292          49.00       197.91
 1003.14        2955.50           1296          53.00       215.35
 1003.17        2955.75           1299          52.00       210.99
 1003.20        2956.00           1302          44.00       176.11
 1003.23        2956.25           1306          47.00       189.19
 1003.26        2956.50           1309          50.00       202.27
 1003.29        2956.75           1312          45.00       180.47
 1003.33        2957.00           1316          41.00       163.03
 1003.36        2957.25           1319          57.00       232.78
 1003.39        2957.50           1322          47.00       189.19
 1003.42        2957.75           1326          47.00       189.19
 1003.45        2958.00           1329          46.00       184.83
 1003.48        2958.25           1332          55.00       224.06
 1003.51        2958.50           1336          50.00       202.27
 1003.54        2958.75           1339          42.00       167.39
 1003.57        2959.00           1342          53.00       215.35
 1003.60        2959.25           1346          60.00       245.86
 1003.63        2959.50           1349          62.00       254.58
 1003.67        2959.75           1352          73.00       302.53
 1003.70        2960.00           1356          98.00       411.51
 1003.73        2960.25           1359         124.00       524.86
 1003.76        2960.50           1362         155.00       660.00
 1003.79        2960.75           1366         183.00       782.06
 1003.82        2961.00           1369         212.00       908.48
 1003.85        2961.25           1372         231.00       991.31
 1003.88        2961.50           1376         290.00      1248.52
 1003.91        2961.75           1379         393.00      1697.56
 1003.95        2962.00           1382         826.00      3585.39
 1003.98        2962.25           1386        2043.00      8892.52
 1004.01        2962.50           1389        3196.00     13922.12
 1004.04        2962.75           1392        4359.00     18996.87
 1004.07        2963.00           1396        5708.00     24885.18
 1004.10        2963.25           1399        6749.00     29430.51
 1004.13        2963.50           1402        8022.00     34990.51
 1004.16        2963.75           1406        9519.00     41531.23
 1004.19        2964.00           1409       10615.00     46321.52
 1004.22        2964.25           1412       11762.00     51336.20
 1004.26        2964.50           1416       13265.00     57909.59
 1004.29        2964.75           1419       14407.00     62905.88
 1004.32        2965.00           1422       15507.00     67719.84
 1004.35        2965.25           1426       17050.00     74474.85
 1004.38        2965.50           1429       18244.00     79703.87
 1004.41        2965.75           1432       19289.00     84281.72
 1004.44        2966.00           1436       20816.00     90973.31
 1004.47        2966.25           1439       21757.00     95098.31
 1004.50        2966.50           1442       22518.00     98434.99
 1004.54        2966.75           1446       23720.00    103706.60
 1004.57        2967.00           1449       23984.00    104864.70
 1004.60        2967.25           1452       24098.00    105364.80
 1004.63        2967.50           1456       24141.00    105553.40
 1004.66        2967.75           1459       24141.00    105553.40
 1004.69        2968.00           1462       24230.00    105943.90
 1004.72        2968.25           1466       23193.00    101395.20
 1004.75        2968.50           1469       22193.00     97009.91
 1004.78        2968.75           1472       21239.00     92827.46
 1004.81        2969.00           1476       19586.00     85583.01
 1004.84        2969.25           1479       18581.00     81180.04
 1004.88        2969.50           1482       17685.00     77255.58
 1004.91        2969.75           1486       16181.00     70670.16
 1004.94        2970.00           1489       15066.00     65789.71
 1004.97        2970.25           1492       14162.00     61833.87
 1005.00        2970.50           1496       12618.00     55079.61
 1005.03        2970.75           1499       11491.00     50151.25
 1005.06        2971.00           1502       10366.00     45233.10
 1005.09        2971.25           1506        8700.00     37952.52
 1005.13        2971.50           1509        7586.00     33086.01
 1005.16        2971.75           1513        6089.00     26548.60
 1005.19        2972.00           1516        5100.00     22231.04
 1005.22        2972.25           1519        3972.00     17308.03
 1005.25        2972.50           1523        2638.00     11487.83
 1005.28        2972.75           1526        1595.00      6938.67
 1005.31        2973.00           1529         736.00      3192.98
 1005.34        2973.25           1533         308.00      1326.99
 1005.37        2973.50           1536         217.00       930.28
 1005.40        2973.75           1539         189.00       808.21
 1005.43        2974.00           1543         155.00       660.00
 1005.46        2974.25           1546         117.00       494.34
 1005.50        2974.50           1549          86.00       359.20
 1005.53        2974.75           1553          65.00       267.66
 1005.56        2975.00           1556          50.00       202.27
 1005.59        2975.25           1559          46.00       184.83
 1005.62        2975.50           1563          48.00       193.55
 1005.65        2975.75           1566          48.00       193.55
 1005.68        2976.00           1569          55.00       224.06
 1005.71        2976.25           1573          46.00       184.83
 1005.74        2976.50           1576          47.00       189.19
 1005.77        2976.75           1579          50.00       202.27
 1005.80        2977.00           1583          47.00       189.19
 1005.83        2977.25           1586          48.00       193.55
 1005.87        2977.50           1590          46.00       184.83
 1005.90        2977.75           1593          44.00       176.11
 1005.93        2978.00           1596          46.00       184.83
 1005.96        2978.25           1600          43.00       171.75
 1005.99        2978.50           1603          41.00       163.03
 1006.02        2978.75           1606          45.00       180.47
 1006.05        2979.00           1610          47.00       189.19
 1006.08        2979.25           1613          42.00       167.39
 1006.11        2979.50           1616          46.00       184.83
 1006.14        2979.75           1620          41.00       163.03
 1006.17        2980.00           1623          39.00       154.32
 1006.20        2980.25           1626          44.00       176.11
 1006.24        2980.50           1630          47.00       189.19
 1006.27        2980.75           1633          44.00       176.11
 1006.30        2981.00           1637          53.00       215.35
 1006.33        2981.25           1640          47.00       189.19
 1006.36        2981.50           1643          47.00       189.19
 1006.39        2981.75           1647          45.00       180.47
 1006.42        2982.00           1650          54.00       219.71
 1006.45        2982.25           1653          41.00       163.03
 1006.48        2982.50           1657          43.00       171.75
 1006.51        2982.75           1660          48.00       193.55
 1006.54        2983.00           1663          40.00       158.68
 1006.58        2983.25           1667          45.00       180.47
 1006.61        2983.50           1670          41.00       163.03
 1006.64        2983.75           1673          44.00       176.11
 1006.67        2984.00           1677          38.00       149.96
HS scan finished at 16:46:53
end
