************************************************************
  HS Scan of (1) Internal mercury lamp
************************************************************
Integration time is 0.2294 seconds per sample
dh271118Manchester 53.47 2.23 2.804185pr1000
************************************************************
Dead Time -------------------------  3E-08 
Number of Cycles Used -------------  4 
Starting Wavelength (Angstroms) ---  2950 
Final Wavelength (Angstoms) -------  2984 
Wavelength Increment (Angstroms) --  .25 
Filter Wheel #1 Position ---------- (1) Ground quartz diffuser (ND=2.32)
Filter Wheel #2 Position ---------- (1) Neutral Density 0.494



************************************************************
HS scan start time = 05:00:36
Dark Count =  4.3 


Time (GMT)  Wavelength (Ang)  Step Number  Raw Counts  Counts/Second

  300.98        2950.00           1222          50.00       199.22
  301.04        2950.25           1226          49.00       194.86
  301.07        2950.50           1229          48.00       190.50
  301.11        2950.75           1232          53.00       212.29
  301.14        2951.00           1236          52.00       207.94
  301.17        2951.25           1239          50.00       199.22
  301.20        2951.50           1242          49.00       194.86
  301.23        2951.75           1246          48.00       190.50
  301.26        2952.00           1249          51.00       203.58
  301.29        2952.25           1252          46.00       181.78
  301.32        2952.50           1256          45.00       177.42
  301.35        2952.75           1259          47.00       186.14
  301.38        2953.00           1262          50.00       199.22
  301.41        2953.25           1266          46.00       181.78
  301.44        2953.50           1269          58.00       234.09
  301.47        2953.75           1272          53.00       212.29
  301.50        2954.00           1276          49.00       194.86
  301.53        2954.25           1279          51.00       203.58
  301.56        2954.50           1282          45.00       177.42
  301.59        2954.75           1286          53.00       212.29
  301.63        2955.00           1289          58.00       234.09
  301.66        2955.25           1292          53.00       212.29
  301.69        2955.50           1296          46.00       181.78
  301.72        2955.75           1299          45.00       177.42
  301.75        2956.00           1302          50.00       199.22
  301.78        2956.25           1306          44.00       173.06
  301.81        2956.50           1309          52.00       207.94
  301.84        2956.75           1312          51.00       203.58
  301.87        2957.00           1316          52.00       207.94
  301.91        2957.25           1319          49.00       194.86
  301.94        2957.50           1322          49.00       194.86
  301.97        2957.75           1326          56.00       225.37
  302.00        2958.00           1329          42.00       164.34
  302.03        2958.25           1332          46.00       181.78
  302.06        2958.50           1336          39.00       151.26
  302.09        2958.75           1339          53.00       212.29
  302.12        2959.00           1342          50.00       199.22
  302.15        2959.25           1346          53.00       212.29
  302.18        2959.50           1349          52.00       207.94
  302.21        2959.75           1352          55.00       221.01
  302.24        2960.00           1356          77.00       316.92
  302.27        2960.25           1359          98.00       408.46
  302.30        2960.50           1362         118.00       495.65
  302.33        2960.75           1366         165.00       700.54
  302.37        2961.00           1369         182.00       774.65
  302.40        2961.25           1372         228.00       975.18
  302.43        2961.50           1376         270.00      1158.28
  302.46        2961.75           1379         417.00      1799.14
  302.49        2962.00           1382         941.00      4083.76
  302.52        2962.25           1386        2247.00      9779.24
  302.55        2962.50           1389        3329.00     14499.33
  302.58        2962.75           1392        4369.00     19037.46
  302.61        2963.00           1396        5796.00     25266.31
  302.64        2963.25           1399        6803.00     29663.27
  302.67        2963.50           1402        8048.00     35101.02
  302.70        2963.75           1406        9552.00     41672.38
  302.74        2964.00           1409       10767.00     46982.92
  302.77        2964.25           1412       11848.00     51709.19
  302.80        2964.50           1416       13621.00     59463.88
  302.83        2964.75           1419       14488.00     63257.24
  302.86        2965.00           1422       15613.00     68180.74
  302.89        2965.25           1426       16931.00     73950.72
  302.92        2965.50           1429       18120.00     79157.68
  302.95        2965.75           1432       19233.00     84033.29
  302.99        2966.00           1436       20657.00     90273.35
  303.02        2966.25           1439       21627.00     94525.30
  303.05        2966.50           1442       22786.00     99607.13
  303.08        2966.75           1446       23898.00    104484.40
  303.11        2967.00           1449       24194.00    105782.90
  303.14        2967.25           1452       24282.00    106168.90
  303.17        2967.50           1456       24322.00    106344.40
  303.20        2967.75           1459       24113.00    105427.50
  303.23        2968.00           1462       24065.00    105217.00
  303.27        2968.25           1466       23304.00    101878.90
  303.30        2968.50           1469       22405.00     97936.41
  303.33        2968.75           1472       21352.00     93319.75
  303.36        2969.00           1476       19954.00     87192.46
  303.39        2969.25           1479       18936.00     82732.11
  303.42        2969.50           1482       17730.00     77449.58
  303.45        2969.75           1486       16221.00     70842.21
  303.48        2970.00           1489       15121.00     66027.35
  303.51        2970.25           1492       14040.00     61297.02
  303.55        2970.50           1496       12423.00     54223.71
  303.58        2970.75           1499       11432.00     49890.23
  303.61        2971.00           1502       10167.00     44360.22
  303.64        2971.25           1506        8745.00     38146.07
  303.67        2971.50           1509        7689.00     33532.85
  303.70        2971.75           1513        6295.00     27445.00
  303.73        2972.00           1516        5148.00     22437.51
  303.76        2972.25           1519        3891.00     16951.51
  303.79        2972.50           1523        2523.00     10983.13
  303.82        2972.75           1526        1436.00      6242.23
  303.86        2973.00           1529         694.00      3006.81
  303.89        2973.25           1533         336.00      1446.01
  303.92        2973.50           1536         260.00      1114.68
  303.95        2973.75           1539         234.00      1001.34
  303.98        2974.00           1543         195.00       831.32
  304.01        2974.25           1546         153.00       648.23
  304.04        2974.50           1549         122.00       513.09
  304.07        2974.75           1553          92.00       382.31
  304.10        2975.00           1556          65.00       264.61
  304.13        2975.25           1559          60.00       242.81
  304.17        2975.50           1563          54.00       216.65
  304.20        2975.75           1566          44.00       173.06
  304.23        2976.00           1569          47.00       186.14
  304.26        2976.25           1573          47.00       186.14
  304.29        2976.50           1576          50.00       199.22
  304.32        2976.75           1579          43.00       168.70
  304.35        2977.00           1583          48.00       190.50
  304.38        2977.25           1586          50.00       199.22
  304.41        2977.50           1590          41.00       159.98
  304.44        2977.75           1593          46.00       181.78
  304.47        2978.00           1596          50.00       199.22
  304.50        2978.25           1600          45.00       177.42
  304.53        2978.50           1603          46.00       181.78
  304.57        2978.75           1606          39.00       151.26
  304.60        2979.00           1610          49.00       194.86
  304.63        2979.25           1613          48.00       190.50
  304.66        2979.50           1616          43.00       168.70
  304.69        2979.75           1620          48.00       190.50
  304.72        2980.00           1623          44.00       173.06
  304.75        2980.25           1626          43.00       168.70
  304.78        2980.50           1630          44.00       173.06
  304.81        2980.75           1633          44.00       173.06
  304.84        2981.00           1637          42.00       164.34
  304.87        2981.25           1640          44.00       173.06
  304.90        2981.50           1643          41.00       159.98
  304.93        2981.75           1647          51.00       203.58
  304.96        2982.00           1650          47.00       186.14
  304.99        2982.25           1653          46.00       181.78
  305.03        2982.50           1657          52.00       207.94
  305.06        2982.75           1660          46.00       181.78
  305.09        2983.00           1663          45.00       177.42
  305.12        2983.25           1667          44.00       173.06
  305.15        2983.50           1670          43.00       168.70
  305.18        2983.75           1673          44.00       173.06
  305.21        2984.00           1677          38.00       146.91
HS scan finished at 05:05:26
end
************************************************************
  HS Scan of (1) Internal mercury lamp
************************************************************
Integration time is 0.2294 seconds per sample
dh271118Manchester 53.47 2.23 2.804185pr1000
************************************************************
Dead Time -------------------------  3E-08 
Number of Cycles Used -------------  4 
Starting Wavelength (Angstroms) ---  2950 
Final Wavelength (Angstoms) -------  2984 
Wavelength Increment (Angstroms) --  .25 
Filter Wheel #1 Position ---------- (1) Ground quartz diffuser (ND=2.32)
Filter Wheel #2 Position ---------- (1) Neutral Density 0.494



************************************************************
HS scan start time = 17:12:02
Dark Count =  6 


Time (GMT)  Wavelength (Ang)  Step Number  Raw Counts  Counts/Second

 1032.40        2950.00           1222          48.00       183.09
 1032.46        2950.25           1226          47.00       178.73
 1032.49        2950.50           1229          44.00       165.65
 1032.52        2950.75           1232          50.00       191.81
 1032.55        2951.00           1236          56.00       217.96
 1032.59        2951.25           1239          45.00       170.01
 1032.62        2951.50           1242          49.00       187.45
 1032.65        2951.75           1246          53.00       204.88
 1032.68        2952.00           1249          53.00       204.88
 1032.71        2952.25           1252          43.00       161.29
 1032.74        2952.50           1256          45.00       170.01
 1032.77        2952.75           1259          48.00       183.09
 1032.80        2953.00           1262          51.00       196.17
 1032.83        2953.25           1266          46.00       174.37
 1032.86        2953.50           1269          44.00       165.65
 1032.89        2953.75           1272          49.00       187.45
 1032.93        2954.00           1276          58.00       226.68
 1032.96        2954.25           1279          55.00       213.60
 1032.99        2954.50           1282          53.00       204.88
 1033.02        2954.75           1286          52.00       200.52
 1033.05        2955.00           1289          47.00       178.73
 1033.08        2955.25           1292          47.00       178.73
 1033.11        2955.50           1296          50.00       191.81
 1033.14        2955.75           1299          52.00       200.52
 1033.17        2956.00           1302          50.00       191.81
 1033.20        2956.25           1306          54.00       209.24
 1033.23        2956.50           1309          51.00       196.17
 1033.26        2956.75           1312          63.00       248.48
 1033.29        2957.00           1316          43.00       161.29
 1033.33        2957.25           1319          51.00       196.17
 1033.36        2957.50           1322          45.00       170.01
 1033.39        2957.75           1326          48.00       183.09
 1033.42        2958.00           1329          56.00       217.96
 1033.45        2958.25           1332          45.00       170.01
 1033.48        2958.50           1336          50.00       191.81
 1033.51        2958.75           1339          47.00       178.73
 1033.54        2959.00           1342          49.00       187.45
 1033.57        2959.25           1346          47.00       178.73
 1033.60        2959.50           1349          57.00       222.32
 1033.63        2959.75           1352          73.00       292.07
 1033.66        2960.00           1356          83.00       335.66
 1033.70        2960.25           1359          98.00       401.05
 1033.73        2960.50           1362         120.00       496.96
 1033.76        2960.75           1366         159.00       666.97
 1033.79        2961.00           1369         183.00       771.60
 1033.82        2961.25           1372         220.00       932.89
 1033.85        2961.50           1376         287.00      1224.98
 1033.88        2961.75           1379         414.00      1778.65
 1033.91        2962.00           1382         876.00      3792.93
 1033.94        2962.25           1386        2031.00      8829.71
 1033.97        2962.50           1389        3112.00     13545.17
 1034.00        2962.75           1392        4251.00     18515.08
 1034.04        2963.00           1396        5584.00     24333.37
 1034.07        2963.25           1399        6608.00     28804.31
 1034.10        2963.50           1402        7811.00     34058.32
 1034.13        2963.75           1406        9342.00     40747.26
 1034.16        2964.00           1409       10445.00     45567.92
 1034.19        2964.25           1412       11556.00     50424.96
 1034.22        2964.50           1416       13205.00     57636.63
 1034.25        2964.75           1419       14092.00     61517.10
 1034.29        2965.00           1422       15252.00     66593.24
 1034.32        2965.25           1426       16693.00     72901.20
 1034.35        2965.50           1429       17791.00     77709.29
 1034.38        2965.75           1432       18918.00     82645.81
 1034.41        2966.00           1436       20547.00     89783.80
 1034.44        2966.25           1439       21577.00     94298.65
 1034.47        2966.50           1442       22709.00     99262.02
 1034.50        2966.75           1446       23618.00    103248.70
 1034.53        2967.00           1449       24037.00    105086.70
 1034.57        2967.25           1452       24030.00    105056.00
 1034.60        2967.50           1456       23962.00    104757.70
 1034.63        2967.75           1459       24086.00    105301.60
 1034.66        2968.00           1462       23987.00    104867.30
 1034.69        2968.25           1466       23415.00    102358.30
 1034.72        2968.50           1469       22523.00     98446.38
 1034.75        2968.75           1472       21376.00     93417.50
 1034.78        2969.00           1476       19983.00     87312.10
 1034.81        2969.25           1479       18822.00     82225.25
 1034.85        2969.50           1482       17641.00     77052.37
 1034.88        2969.75           1486       16252.00     70970.47
 1034.91        2970.00           1489       15245.00     66562.61
 1034.94        2970.25           1492       14180.00     61902.13
 1034.97        2970.50           1496       12752.00     55655.19
 1035.00        2970.75           1499       11754.00     51290.73
 1035.03        2971.00           1502       10579.00     46153.66
 1035.06        2971.25           1506        9038.00     39418.87
 1035.09        2971.50           1509        7892.00     34412.15
 1035.12        2971.75           1513        6362.00     27730.12
 1035.16        2972.00           1516        5235.00     22809.85
 1035.19        2972.25           1519        4237.00     18453.98
 1035.22        2972.50           1523        2738.00     11913.59
 1035.25        2972.75           1526        1677.00      7285.81
 1035.28        2973.00           1529         819.00      3544.40
 1035.31        2973.25           1533         336.00      1438.60
 1035.34        2973.50           1536         254.00      1081.12
 1035.37        2973.75           1539         217.00       919.82
 1035.40        2974.00           1543         178.00       749.80
 1035.43        2974.25           1546         146.00       610.30
 1035.47        2974.50           1549         119.00       492.60
 1035.50        2974.75           1553          83.00       335.66
 1035.53        2975.00           1556          61.00       239.76
 1035.56        2975.25           1559          51.00       196.17
 1035.59        2975.50           1563          61.00       239.76
 1035.62        2975.75           1566          49.00       187.45
 1035.65        2976.00           1569          50.00       191.81
 1035.68        2976.25           1573          47.00       178.73
 1035.71        2976.50           1576          50.00       191.81
 1035.74        2976.75           1579          41.00       152.57
 1035.77        2977.00           1583          42.00       156.93
 1035.80        2977.25           1586          43.00       161.29
 1035.83        2977.50           1590          47.00       178.73
 1035.87        2977.75           1593          55.00       213.60
 1035.90        2978.00           1596          52.00       200.52
 1035.93        2978.25           1600          58.00       226.68
 1035.96        2978.50           1603          39.00       143.85
 1035.99        2978.75           1606          42.00       156.93
 1036.02        2979.00           1610          39.00       143.85
 1036.05        2979.25           1613          45.00       170.01
 1036.08        2979.50           1616          52.00       200.52
 1036.11        2979.75           1620          40.00       148.21
 1036.14        2980.00           1623          46.00       174.37
 1036.17        2980.25           1626          48.00       183.09
 1036.21        2980.50           1630          46.00       174.37
 1036.24        2980.75           1633          55.00       213.60
 1036.27        2981.00           1637          40.00       148.21
 1036.30        2981.25           1640          44.00       165.65
 1036.33        2981.50           1643          46.00       174.37
 1036.36        2981.75           1647          42.00       156.93
 1036.39        2982.00           1650          46.00       174.37
 1036.42        2982.25           1653          38.00       139.49
 1036.45        2982.50           1657          45.00       170.01
 1036.48        2982.75           1660          42.00       156.93
 1036.51        2983.00           1663          44.00       165.65
 1036.55        2983.25           1667          49.00       187.45
 1036.58        2983.50           1670          51.00       196.17
 1036.61        2983.75           1673          44.00       165.65
 1036.64        2984.00           1677          40.00       148.21
HS scan finished at 17:16:51
end
