************************************************************
  HS Scan of (1) Internal mercury lamp
************************************************************
Integration time is 0.2294 seconds per sample
dh281117Manchester 53.47 2.23 2.750537pr1000
************************************************************
Dead Time -------------------------  3E-08 
Number of Cycles Used -------------  4 
Starting Wavelength (Angstroms) ---  2950 
Final Wavelength (Angstoms) -------  2984 
Wavelength Increment (Angstroms) --  .25 
Filter Wheel #1 Position ---------- (1) Ground quartz diffuser (ND=2.32)
Filter Wheel #2 Position ---------- (1) Neutral Density 0.494



************************************************************
HS scan start time = 16:42:00
Dark Count =  4.3 


Time (GMT)  Wavelength (Ang)  Step Number  Raw Counts  Counts/Second

 1002.37        2950.00           1222          76.00       312.56
 1002.44        2950.25           1226          63.00       255.89
 1002.47        2950.50           1229          73.00       299.48
 1002.50        2950.75           1232          70.00       286.40
 1002.53        2951.00           1236          71.00       290.76
 1002.56        2951.25           1239          71.00       290.76
 1002.59        2951.50           1242          68.00       277.68
 1002.62        2951.75           1246          70.00       286.40
 1002.65        2952.00           1249          62.00       251.53
 1002.68        2952.25           1252          69.00       282.04
 1002.72        2952.50           1256          61.00       247.17
 1002.75        2952.75           1259          60.00       242.81
 1002.78        2953.00           1262          62.00       251.53
 1002.81        2953.25           1266          61.00       247.17
 1002.84        2953.50           1269          63.00       255.89
 1002.87        2953.75           1272          66.00       268.96
 1002.90        2954.00           1276          64.00       260.25
 1002.93        2954.25           1279          79.00       325.64
 1002.96        2954.50           1282          66.00       268.96
 1002.99        2954.75           1286          70.00       286.40
 1003.02        2955.00           1289          67.00       273.32
 1003.05        2955.25           1292          65.00       264.61
 1003.09        2955.50           1296          64.00       260.25
 1003.12        2955.75           1299          59.00       238.45
 1003.15        2956.00           1302          64.00       260.25
 1003.18        2956.25           1306          65.00       264.61
 1003.21        2956.50           1309          68.00       277.68
 1003.24        2956.75           1312          68.00       277.68
 1003.27        2957.00           1316          60.00       242.81
 1003.30        2957.25           1319          68.00       277.68
 1003.33        2957.50           1322          64.00       260.25
 1003.36        2957.75           1326          66.00       268.96
 1003.39        2958.00           1329          63.00       255.89
 1003.42        2958.25           1332          72.00       295.12
 1003.45        2958.50           1336          73.00       299.48
 1003.48        2958.75           1339          63.00       255.89
 1003.51        2959.00           1342          67.00       273.32
 1003.55        2959.25           1346          75.00       308.20
 1003.58        2959.50           1349          70.00       286.40
 1003.61        2959.75           1352          90.00       373.59
 1003.64        2960.00           1356         111.00       465.13
 1003.67        2960.25           1359         150.00       635.15
 1003.70        2960.50           1362         188.00       800.80
 1003.73        2960.75           1366         245.00      1049.29
 1003.76        2961.00           1369         274.00      1175.72
 1003.79        2961.25           1372         322.00      1384.97
 1003.82        2961.50           1376         403.00      1738.10
 1003.85        2961.75           1379         601.00      2601.34
 1003.88        2962.00           1382        1326.00      5762.55
 1003.91        2962.25           1386        3060.00     13325.73
 1003.95        2962.50           1389        4520.00     19696.47
 1003.98        2962.75           1392        5976.00     26052.18
 1004.01        2963.00           1396        7965.00     34738.45
 1004.04        2963.25           1399        9396.00     40990.66
 1004.07        2963.50           1402       11013.00     48058.35
 1004.10        2963.75           1406       13173.00     57504.09
 1004.13        2964.00           1409       14527.00     63427.90
 1004.16        2964.25           1412       15961.00     69704.03
 1004.19        2964.50           1416       18126.00     79183.96
 1004.22        2964.75           1419       19676.00     85974.30
 1004.25        2965.00           1422       21204.00     92670.97
 1004.28        2965.25           1426       23413.00    102357.00
 1004.31        2965.50           1429       24902.00    108889.10
 1004.35        2965.75           1432       26158.00    114401.10
 1004.38        2966.00           1436       28355.00    124047.10
 1004.41        2966.25           1439       29807.00    130425.20
 1004.44        2966.50           1442       31120.00    136194.90
 1004.47        2966.75           1446       32629.00    142828.20
 1004.50        2967.00           1449       33096.00    144881.60
 1004.53        2967.25           1452       33133.00    145044.30
 1004.56        2967.50           1456       33030.00    144591.40
 1004.59        2967.75           1459       33056.00    144705.80
 1004.63        2968.00           1462       32835.00    143734.00
 1004.66        2968.25           1466       31794.00    139157.30
 1004.69        2968.50           1469       30608.00    133944.70
 1004.72        2968.75           1472       29275.00    128088.00
 1004.75        2969.00           1476       27165.00    118821.70
 1004.78        2969.25           1479       25815.00    112895.70
 1004.81        2969.50           1482       24296.00    106230.30
 1004.84        2969.75           1486       22331.00     97611.92
 1004.87        2970.00           1489       20885.00     91272.68
 1004.90        2970.25           1492       19196.00     83871.18
 1004.94        2970.50           1496       17150.00     74909.66
 1004.97        2970.75           1499       15455.00     67489.16
 1005.00        2971.00           1502       13887.00     60627.61
 1005.03        2971.25           1506       11933.00     52080.88
 1005.06        2971.50           1509       10332.00     45081.42
 1005.09        2971.75           1513        8401.00     36643.14
 1005.12        2972.00           1516        6799.00     29645.80
 1005.15        2972.25           1519        5400.00     23537.54
 1005.18        2972.50           1523        3487.00     15188.70
 1005.21        2972.75           1526        2071.00      9011.59
 1005.24        2973.00           1529        1005.00      4362.82
 1005.28        2973.25           1533         421.00      1816.58
 1005.31        2973.50           1536         297.00      1275.99
 1005.34        2973.75           1539         260.00      1114.68
 1005.37        2974.00           1543         208.00       887.99
 1005.40        2974.25           1546         159.00       674.38
 1005.43        2974.50           1549         132.00       556.68
 1005.46        2974.75           1553          99.00       412.82
 1005.49        2975.00           1556          70.00       286.40
 1005.52        2975.25           1559          71.00       290.76
 1005.55        2975.50           1563          65.00       264.61
 1005.59        2975.75           1566          72.00       295.12
 1005.62        2976.00           1569          69.00       282.04
 1005.65        2976.25           1573          62.00       251.53
 1005.68        2976.50           1576          70.00       286.40
 1005.71        2976.75           1579          64.00       260.25
 1005.74        2977.00           1583          70.00       286.40
 1005.77        2977.25           1586          59.00       238.45
 1005.80        2977.50           1590          59.00       238.45
 1005.83        2977.75           1593          67.00       273.32
 1005.86        2978.00           1596          75.00       308.20
 1005.89        2978.25           1600          64.00       260.25
 1005.92        2978.50           1603          55.00       221.01
 1005.95        2978.75           1606          67.00       273.32
 1005.99        2979.00           1610          58.00       234.09
 1006.02        2979.25           1613          61.00       247.17
 1006.05        2979.50           1616          61.00       247.17
 1006.08        2979.75           1620          64.00       260.25
 1006.11        2980.00           1623          61.00       247.17
 1006.14        2980.25           1626          60.00       242.81
 1006.17        2980.50           1630          58.00       234.09
 1006.20        2980.75           1633          61.00       247.17
 1006.23        2981.00           1637          61.00       247.17
 1006.26        2981.25           1640          53.00       212.29
 1006.29        2981.50           1643          62.00       251.53
 1006.32        2981.75           1647          57.00       229.73
 1006.36        2982.00           1650          62.00       251.53
 1006.39        2982.25           1653          57.00       229.73
 1006.42        2982.50           1657          55.00       221.01
 1006.45        2982.75           1660          57.00       229.73
 1006.48        2983.00           1663          60.00       242.81
 1006.51        2983.25           1667          56.00       225.37
 1006.54        2983.50           1670          64.00       260.25
 1006.57        2983.75           1673          59.00       238.45
 1006.60        2984.00           1677          56.00       225.37
HS scan finished at 16:46:49
end
