************************************************************
  HS Scan of (1) Internal mercury lamp
************************************************************
Integration time is 0.2294 seconds per sample
dh291117Manchester 53.47 2.23 2.804185pr1000
************************************************************
Dead Time -------------------------  3E-08 
Number of Cycles Used -------------  4 
Starting Wavelength (Angstroms) ---  2950 
Final Wavelength (Angstoms) -------  2984 
Wavelength Increment (Angstroms) --  .25 
Filter Wheel #1 Position ---------- (1) Ground quartz diffuser (ND=2.32)
Filter Wheel #2 Position ---------- (1) Neutral Density 0.494



************************************************************
HS scan start time = 16:42:01
Dark Count =  7.3 


Time (GMT)  Wavelength (Ang)  Step Number  Raw Counts  Counts/Second

 1002.38        2950.00           1222          65.00       251.53
 1002.45        2950.25           1226          62.00       238.45
 1002.48        2950.50           1229          68.00       264.61
 1002.51        2950.75           1232          68.00       264.61
 1002.54        2951.00           1236          67.00       260.25
 1002.57        2951.25           1239          62.00       238.45
 1002.60        2951.50           1242          65.00       251.53
 1002.64        2951.75           1246          70.00       273.32
 1002.67        2952.00           1249          61.00       234.09
 1002.70        2952.25           1252          56.00       212.29
 1002.73        2952.50           1256          68.00       264.61
 1002.76        2952.75           1259          69.00       268.96
 1002.79        2953.00           1262          64.00       247.17
 1002.82        2953.25           1266          63.00       242.81
 1002.85        2953.50           1269          63.00       242.81
 1002.88        2953.75           1272          71.00       277.68
 1002.91        2954.00           1276          62.00       238.45
 1002.94        2954.25           1279          65.00       251.53
 1002.97        2954.50           1282          79.00       312.56
 1003.00        2954.75           1286          68.00       264.61
 1003.03        2955.00           1289          70.00       273.32
 1003.06        2955.25           1292          71.00       277.68
 1003.09        2955.50           1296          69.00       268.96
 1003.12        2955.75           1299          62.00       238.45
 1003.16        2956.00           1302          67.00       260.25
 1003.19        2956.25           1306          65.00       251.53
 1003.22        2956.50           1309          62.00       238.45
 1003.25        2956.75           1312          71.00       277.68
 1003.28        2957.00           1316          68.00       264.61
 1003.31        2957.25           1319          74.00       290.76
 1003.34        2957.50           1322          71.00       277.68
 1003.37        2957.75           1326          58.00       221.01
 1003.40        2958.00           1329          72.00       282.04
 1003.43        2958.25           1332          67.00       260.25
 1003.46        2958.50           1336          60.00       229.73
 1003.49        2958.75           1339          65.00       251.53
 1003.52        2959.00           1342          60.00       229.73
 1003.56        2959.25           1346          64.00       247.17
 1003.59        2959.50           1349          74.00       290.76
 1003.62        2959.75           1352          95.00       382.31
 1003.65        2960.00           1356         124.00       508.73
 1003.68        2960.25           1359         150.00       622.07
 1003.71        2960.50           1362         198.00       831.32
 1003.74        2960.75           1366         250.00      1058.01
 1003.77        2961.00           1369         285.00      1210.59
 1003.80        2961.25           1372         347.00      1480.89
 1003.83        2961.50           1376         392.00      1677.07
 1003.86        2961.75           1379         526.00      2261.27
 1003.89        2962.00           1382        1009.00      4367.18
 1003.92        2962.25           1386        2617.00     11380.08
 1003.96        2962.50           1389        4076.00     17745.72
 1003.99        2962.75           1392        5463.00     23799.46
 1004.02        2963.00           1396        7389.00     32209.40
 1004.05        2963.25           1399        8777.00     38272.78
 1004.08        2963.50           1402       10343.00     45116.39
 1004.11        2963.75           1406       12360.00     53935.07
 1004.14        2964.00           1409       13990.00     61065.13
 1004.17        2964.25           1412       15642.00     68294.53
 1004.20        2964.50           1416       17616.00     76937.18
 1004.23        2964.75           1419       19203.00     83888.71
 1004.27        2965.00           1422       20669.00     90312.80
 1004.30        2965.25           1426       22615.00     98844.11
 1004.33        2965.50           1429       24137.00    105519.60
 1004.36        2965.75           1432       25687.00    112320.70
 1004.39        2966.00           1436       27845.00    121794.30
 1004.42        2966.25           1439       29004.00    126884.40
 1004.45        2966.50           1442       30560.00    133720.60
 1004.48        2966.75           1446       32232.00    141069.60
 1004.51        2967.00           1449       32702.00    143136.00
 1004.54        2967.25           1452       32935.00    144160.50
 1004.58        2967.50           1456       33066.00    144736.50
 1004.61        2967.75           1459       33056.00    144692.60
 1004.64        2968.00           1462       33002.00    144455.10
 1004.67        2968.25           1466       32262.00    141201.50
 1004.70        2968.50           1469       31096.00    136076.20
 1004.73        2968.75           1472       29865.00    130666.80
 1004.76        2969.00           1476       27985.00    122409.00
 1004.79        2969.25           1479       26369.00    115314.10
 1004.82        2969.50           1482       24673.00    107871.20
 1004.85        2969.75           1486       22676.00     99111.60
 1004.88        2970.00           1489       21185.00     92574.53
 1004.92        2970.25           1492       19669.00     85930.48
 1004.95        2970.50           1496       17816.00     77813.08
 1004.98        2970.75           1499       16194.00     70710.88
 1005.01        2971.00           1502       14787.00     64552.53
 1005.04        2971.25           1506       12835.00     56012.53
 1005.07        2971.50           1509       11222.00     48958.96
 1005.10        2971.75           1513        9037.00     39408.81
 1005.13        2972.00           1516        7546.00     32895.13
 1005.16        2972.25           1519        5898.00     25698.53
 1005.20        2972.50           1523        4031.00     17549.34
 1005.23        2972.75           1526        2508.00     10904.61
 1005.26        2973.00           1529        1187.00      5143.34
 1005.29        2973.25           1533         471.00      2021.48
 1005.32        2973.50           1536         330.00      1406.77
 1005.35        2973.75           1539         272.00      1153.92
 1005.38        2974.00           1543         223.00       940.31
 1005.41        2974.25           1546         169.00       704.90
 1005.44        2974.50           1549         142.00       587.19
 1005.47        2974.75           1553          97.00       391.02
 1005.50        2975.00           1556          75.00       295.12
 1005.54        2975.25           1559          78.00       308.20
 1005.57        2975.50           1563          60.00       229.73
 1005.60        2975.75           1566          73.00       286.40
 1005.63        2976.00           1569          62.00       238.45
 1005.66        2976.25           1573          68.00       264.61
 1005.69        2976.50           1576          63.00       242.81
 1005.72        2976.75           1579          58.00       221.01
 1005.75        2977.00           1583          55.00       207.94
 1005.78        2977.25           1586          65.00       251.53
 1005.81        2977.50           1590          63.00       242.81
 1005.84        2977.75           1593          57.00       216.65
 1005.87        2978.00           1596          67.00       260.25
 1005.90        2978.25           1600          56.00       212.29
 1005.93        2978.50           1603          54.00       203.58
 1005.96        2978.75           1606          58.00       221.01
 1006.00        2979.00           1610          53.00       199.22
 1006.03        2979.25           1613          59.00       225.37
 1006.06        2979.50           1616          67.00       260.25
 1006.09        2979.75           1620          56.00       212.29
 1006.12        2980.00           1623          58.00       221.01
 1006.15        2980.25           1626          62.00       238.45
 1006.18        2980.50           1630          64.00       247.17
 1006.21        2980.75           1633          61.00       234.09
 1006.24        2981.00           1637          63.00       242.81
 1006.27        2981.25           1640          58.00       221.01
 1006.31        2981.50           1643          63.00       242.81
 1006.34        2981.75           1647          57.00       216.65
 1006.37        2982.00           1650          57.00       216.65
 1006.40        2982.25           1653          58.00       221.01
 1006.43        2982.50           1657          57.00       216.65
 1006.46        2982.75           1660          55.00       207.94
 1006.49        2983.00           1663          56.00       212.29
 1006.52        2983.25           1667          60.00       229.73
 1006.55        2983.50           1670          54.00       203.58
 1006.58        2983.75           1673          60.00       229.73
 1006.61        2984.00           1677          65.00       251.53
HS scan finished at 16:46:50
end
