************************************************************
  HS Scan of (1) Internal mercury lamp
************************************************************
Integration time is 0.2294 seconds per sample
dh011218Manchester 53.47 2.23 2.804185pr1000
************************************************************
Dead Time -------------------------  3E-08 
Number of Cycles Used -------------  4 
Starting Wavelength (Angstroms) ---  2950 
Final Wavelength (Angstoms) -------  2984 
Wavelength Increment (Angstroms) --  .25 
Filter Wheel #1 Position ---------- (1) Ground quartz diffuser (ND=2.32)
Filter Wheel #2 Position ---------- (1) Neutral Density 0.494



************************************************************
HS scan start time = 05:05:34
Dark Count =  6.6 


Time (GMT)  Wavelength (Ang)  Step Number  Raw Counts  Counts/Second

  305.94        2950.00           1222          46.00       171.75
  306.01        2950.25           1226          48.00       180.47
  306.04        2950.50           1229          51.00       193.55
  306.07        2950.75           1232          51.00       193.55
  306.10        2951.00           1236          54.00       206.63
  306.13        2951.25           1239          48.00       180.47
  306.17        2951.50           1242          42.00       154.32
  306.20        2951.75           1246          55.00       210.99
  306.23        2952.00           1249          47.00       176.11
  306.26        2952.25           1252          49.00       184.83
  306.29        2952.50           1256          53.00       202.27
  306.32        2952.75           1259          57.00       219.71
  306.35        2953.00           1262          42.00       154.32
  306.38        2953.25           1266          56.00       215.35
  306.41        2953.50           1269          49.00       184.83
  306.44        2953.75           1272          50.00       189.19
  306.47        2954.00           1276          52.00       197.91
  306.51        2954.25           1279          47.00       176.11
  306.54        2954.50           1282          45.00       167.39
  306.57        2954.75           1286          53.00       202.27
  306.60        2955.00           1289          50.00       189.19
  306.63        2955.25           1292          52.00       197.91
  306.66        2955.50           1296          55.00       210.99
  306.69        2955.75           1299          47.00       176.11
  306.72        2956.00           1302          47.00       176.11
  306.75        2956.25           1306          45.00       167.39
  306.78        2956.50           1309          47.00       176.11
  306.81        2956.75           1312          65.00       254.58
  306.84        2957.00           1316          45.00       167.39
  306.88        2957.25           1319          48.00       180.47
  306.91        2957.50           1322          52.00       197.91
  306.94        2957.75           1326          45.00       167.39
  306.97        2958.00           1329          44.00       163.03
  307.00        2958.25           1332          51.00       193.55
  307.03        2958.50           1336          52.00       197.91
  307.06        2958.75           1339          48.00       180.47
  307.09        2959.00           1342          52.00       197.91
  307.12        2959.25           1346          52.00       197.91
  307.15        2959.50           1349          58.00       224.06
  307.18        2959.75           1352          64.00       250.22
  307.21        2960.00           1356          81.00       324.33
  307.24        2960.25           1359         111.00       455.11
  307.27        2960.50           1362         121.00       498.70
  307.30        2960.75           1366         175.00       734.11
  307.33        2961.00           1369         195.00       821.29
  307.36        2961.25           1372         239.00      1013.11
  307.40        2961.50           1376         282.00      1200.57
  307.43        2961.75           1379         464.00      1994.02
  307.46        2962.00           1382        1078.00      4671.10
  307.49        2962.25           1386        2394.00     10410.40
  307.52        2962.50           1389        3491.00     15196.12
  307.55        2962.75           1392        4631.00     20170.88
  307.58        2963.00           1396        6177.00     26919.73
  307.61        2963.25           1399        7203.00     31400.10
  307.64        2963.50           1402        8260.00     36017.10
  307.67        2963.75           1406        9958.00     43436.69
  307.70        2964.00           1409       11135.00     48581.66
  307.73        2964.25           1412       12365.00     53959.99
  307.77        2964.50           1416       13718.00     59878.17
  307.80        2964.75           1419       14855.00     64853.18
  307.83        2965.00           1422       16078.00     70206.13
  307.86        2965.25           1426       17614.00     76931.50
  307.89        2965.50           1429       18914.00     82625.66
  307.92        2965.75           1432       19936.00     87103.52
  307.95        2966.00           1436       21538.00     94125.06
  307.98        2966.25           1439       22526.00     98456.91
  308.01        2966.50           1442       23533.00    102873.20
  308.04        2966.75           1446       24449.00    106891.50
  308.08        2967.00           1449       24595.00    107532.00
  308.11        2967.25           1452       24453.00    106909.10
  308.14        2967.50           1456       24562.00    107387.30
  308.17        2967.75           1459       24587.00    107497.00
  308.20        2968.00           1462       24361.00    106505.40
  308.23        2968.25           1466       23544.00    102921.50
  308.26        2968.50           1469       22523.00     98443.75
  308.29        2968.75           1472       21456.00     93765.58
  308.32        2969.00           1476       19823.00     86608.35
  308.35        2969.25           1479       18773.00     82007.96
  308.39        2969.50           1482       17675.00     77198.63
  308.42        2969.75           1486       16041.00     70044.16
  308.45        2970.00           1489       15064.00     65767.82
  308.48        2970.25           1492       13849.00     60451.30
  308.51        2970.50           1496       12416.00     54183.04
  308.54        2970.75           1499       11333.00     49447.32
  308.57        2971.00           1502       10211.00     44542.49
  308.60        2971.25           1506        8827.00     38494.30
  308.63        2971.50           1509        7634.00     33282.56
  308.66        2971.75           1513        6136.00     26740.71
  308.70        2972.00           1516        4876.00     21240.21
  308.73        2972.25           1519        3753.00     16339.31
  308.76        2972.50           1523        2462.00     10707.01
  308.79        2972.75           1526        1381.00      5992.36
  308.82        2973.00           1529         673.00      2905.22
  308.85        2973.25           1533         324.00      1383.67
  308.88        2973.50           1536         252.00      1069.78
  308.91        2973.75           1539         206.00       869.25
  308.94        2974.00           1543         189.00       795.14
  308.97        2974.25           1546         139.00       577.17
  309.00        2974.50           1549         102.00       415.87
  309.04        2974.75           1553          76.00       302.53
  309.07        2975.00           1556          58.00       224.06
  309.10        2975.25           1559          60.00       232.78
  309.13        2975.50           1563          42.00       154.32
  309.16        2975.75           1566          45.00       167.39
  309.19        2976.00           1569          49.00       184.83
  309.22        2976.25           1573          54.00       206.63
  309.25        2976.50           1576          47.00       176.11
  309.28        2976.75           1579          52.00       197.91
  309.31        2977.00           1583          53.00       202.27
  309.34        2977.25           1586          47.00       176.11
  309.37        2977.50           1590          46.00       171.75
  309.41        2977.75           1593          41.00       149.96
  309.44        2978.00           1596          48.00       180.47
  309.47        2978.25           1600          54.00       206.63
  309.50        2978.50           1603          51.00       193.55
  309.53        2978.75           1606          43.00       158.68
  309.56        2979.00           1610          54.00       206.63
  309.59        2979.25           1613          44.00       163.03
  309.62        2979.50           1616          46.00       171.75
  309.65        2979.75           1620          43.00       158.68
  309.68        2980.00           1623          39.00       141.24
  309.71        2980.25           1626          56.00       215.35
  309.74        2980.50           1630          42.00       154.32
  309.77        2980.75           1633          44.00       163.03
  309.80        2981.00           1637          42.00       154.32
  309.83        2981.25           1640          56.00       215.35
  309.87        2981.50           1643          42.00       154.32
  309.90        2981.75           1647          43.00       158.68
  309.93        2982.00           1650          40.00       145.60
  309.96        2982.25           1653          45.00       167.39
  309.99        2982.50           1657          44.00       163.03
  310.02        2982.75           1660          50.00       189.19
  310.05        2983.00           1663          42.00       154.32
  310.08        2983.25           1667          42.00       154.32
  310.11        2983.50           1670          43.00       158.68
  310.14        2983.75           1673          46.00       171.75
  310.17        2984.00           1677          44.00       163.03
HS scan finished at 05:10:23
end
************************************************************
  HS Scan of (1) Internal mercury lamp
************************************************************
Integration time is 0.2294 seconds per sample
dh011218Manchester 53.47 2.23 2.804185pr1000
************************************************************
Dead Time -------------------------  3E-08 
Number of Cycles Used -------------  4 
Starting Wavelength (Angstroms) ---  2950 
Final Wavelength (Angstoms) -------  2984 
Wavelength Increment (Angstroms) --  .25 
Filter Wheel #1 Position ---------- (1) Ground quartz diffuser (ND=2.32)
Filter Wheel #2 Position ---------- (1) Neutral Density 0.494



************************************************************
HS scan start time = 16:42:04
Dark Count =  7.8 


Time (GMT)  Wavelength (Ang)  Step Number  Raw Counts  Counts/Second

 1002.43        2950.00           1222          50.00       183.96
 1002.50        2950.25           1226          53.00       197.04
 1002.53        2950.50           1229          47.00       170.88
 1002.56        2950.75           1232          52.00       192.68
 1002.59        2951.00           1236          47.00       170.88
 1002.62        2951.25           1239          46.00       166.52
 1002.65        2951.50           1242          48.00       175.24
 1002.68        2951.75           1246          44.00       157.80
 1002.71        2952.00           1249          50.00       183.96
 1002.74        2952.25           1252          50.00       183.96
 1002.77        2952.50           1256          54.00       201.40
 1002.81        2952.75           1259          43.00       153.44
 1002.84        2953.00           1262          44.00       157.80
 1002.87        2953.25           1266          47.00       170.88
 1002.90        2953.50           1269          47.00       170.88
 1002.93        2953.75           1272          49.00       179.60
 1002.96        2954.00           1276          45.00       162.16
 1002.99        2954.25           1279          49.00       179.60
 1003.02        2954.50           1282          50.00       183.96
 1003.05        2954.75           1286          52.00       192.68
 1003.08        2955.00           1289          48.00       175.24
 1003.11        2955.25           1292          51.00       188.32
 1003.14        2955.50           1296          53.00       197.04
 1003.17        2955.75           1299          51.00       188.32
 1003.20        2956.00           1302          48.00       175.24
 1003.23        2956.25           1306          51.00       188.32
 1003.26        2956.50           1309          55.00       205.76
 1003.30        2956.75           1312          48.00       175.24
 1003.33        2957.00           1316          45.00       162.16
 1003.36        2957.25           1319          45.00       162.16
 1003.39        2957.50           1322          40.00       140.37
 1003.42        2957.75           1326          47.00       170.88
 1003.45        2958.00           1329          45.00       162.16
 1003.48        2958.25           1332          40.00       140.37
 1003.51        2958.50           1336          51.00       188.32
 1003.54        2958.75           1339          49.00       179.60
 1003.57        2959.00           1342          45.00       162.16
 1003.60        2959.25           1346          48.00       175.24
 1003.63        2959.50           1349          54.00       201.40
 1003.66        2959.75           1352          63.00       240.63
 1003.69        2960.00           1356          89.00       353.97
 1003.73        2960.25           1359         118.00       480.39
 1003.76        2960.50           1362         138.00       567.58
 1003.79        2960.75           1366         184.00       768.11
 1003.82        2961.00           1369         198.00       829.14
 1003.85        2961.25           1372         246.00      1038.39
 1003.88        2961.50           1376         289.00      1225.85
 1003.91        2961.75           1379         429.00      1836.20
 1003.94        2962.00           1382         991.00      4286.51
 1003.97        2962.25           1386        2250.00      9777.06
 1004.01        2962.50           1389        3383.00     14719.66
 1004.04        2962.75           1392        4453.00     19388.78
 1004.07        2963.00           1396        5855.00     25508.62
 1004.10        2963.25           1399        6926.00     30185.13
 1004.13        2963.50           1402        8099.00     35308.52
 1004.16        2963.75           1406        9578.00     41770.71
 1004.19        2964.00           1409       10792.00     47076.91
 1004.22        2964.25           1412       12008.00     52393.54
 1004.25        2964.50           1416       13503.00     58932.35
 1004.29        2964.75           1419       14477.00     63193.80
 1004.32        2965.00           1422       15671.00     68419.28
 1004.35        2965.25           1426       17265.00     75397.90
 1004.38        2965.50           1429       18399.00     80364.41
 1004.41        2965.75           1432       19538.00     85354.29
 1004.44        2966.00           1436       20897.00     91309.94
 1004.47        2966.25           1439       21936.00     95864.66
 1004.50        2966.50           1442       23003.00    100543.40
 1004.53        2966.75           1446       23991.00    104877.00
 1004.56        2967.00           1449       24168.00    105653.50
 1004.60        2967.25           1452       24242.00    105978.10
 1004.63        2967.50           1456       24208.00    105828.90
 1004.66        2967.75           1459       24300.00    106232.50
 1004.69        2968.00           1462       23934.00    104626.90
 1004.72        2968.25           1466       23378.00    102188.10
 1004.75        2968.50           1469       22336.00     97618.51
 1004.78        2968.75           1472       21337.00     93238.64
 1004.81        2969.00           1476       19886.00     86879.15
 1004.84        2969.25           1479       18714.00     81744.25
 1004.87        2969.50           1482       17789.00     77692.65
 1004.91        2969.75           1486       16177.00     70634.27
 1004.94        2970.00           1489       15060.00     65745.07
 1004.97        2970.25           1492       13970.00     60975.44
 1005.00        2970.50           1496       12531.00     54680.74
 1005.03        2970.75           1499       11552.00     50399.60
 1005.06        2971.00           1502       10277.00     44825.72
 1005.09        2971.25           1506        8778.00     38274.97
 1005.12        2971.50           1509        7564.00     32971.57
 1005.15        2971.75           1513        6096.00     26560.83
 1005.19        2972.00           1516        5020.00     21863.51
 1005.22        2972.25           1519        3944.00     17167.51
 1005.25        2972.50           1523        2519.00     10950.41
 1005.28        2972.75           1526        1495.00      6484.26
 1005.31        2973.00           1529         674.00      2904.35
 1005.34        2973.25           1533         311.00      1321.76
 1005.37        2973.50           1536         243.00      1025.31
 1005.40        2973.75           1539         188.00       785.55
 1005.43        2974.00           1543         190.00       794.26
 1005.46        2974.25           1546         121.00       493.47
 1005.49        2974.50           1549          95.00       380.13
 1005.52        2974.75           1553          71.00       275.50
 1005.56        2975.00           1556          53.00       197.04
 1005.59        2975.25           1559          50.00       183.96
 1005.62        2975.50           1563          42.00       149.09
 1005.65        2975.75           1566          45.00       162.16
 1005.68        2976.00           1569          54.00       201.40
 1005.71        2976.25           1573          52.00       192.68
 1005.74        2976.50           1576          45.00       162.16
 1005.77        2976.75           1579          49.00       179.60
 1005.80        2977.00           1583          40.00       140.37
 1005.83        2977.25           1586          45.00       162.16
 1005.86        2977.50           1590          43.00       153.44
 1005.90        2977.75           1593          44.00       157.80
 1005.93        2978.00           1596          49.00       179.60
 1005.96        2978.25           1600          48.00       175.24
 1005.99        2978.50           1603          51.00       188.32
 1006.02        2978.75           1606          48.00       175.24
 1006.05        2979.00           1610          41.00       144.73
 1006.08        2979.25           1613          45.00       162.16
 1006.11        2979.50           1616          46.00       166.52
 1006.14        2979.75           1620          42.00       149.09
 1006.17        2980.00           1623          45.00       162.16
 1006.20        2980.25           1626          38.00       131.65
 1006.23        2980.50           1630          36.00       122.93
 1006.26        2980.75           1633          41.00       144.73
 1006.30        2981.00           1637          46.00       166.52
 1006.33        2981.25           1640          42.00       149.09
 1006.36        2981.50           1643          41.00       144.73
 1006.39        2981.75           1647          46.00       166.52
 1006.42        2982.00           1650          46.00       166.52
 1006.45        2982.25           1653          50.00       183.96
 1006.48        2982.50           1657          42.00       149.09
 1006.51        2982.75           1660          39.00       136.01
 1006.54        2983.00           1663          40.00       140.37
 1006.57        2983.25           1667          40.00       140.37
 1006.60        2983.50           1670          50.00       183.96
 1006.63        2983.75           1673          44.00       157.80
 1006.66        2984.00           1677          43.00       153.44
HS scan finished at 16:46:53
end
