************************************************************
  HS Scan of (1) Internal mercury lamp
************************************************************
Integration time is 0.2294 seconds per sample
dh261117Manchester 53.47 2.23 2.750537pr1000
************************************************************
Dead Time -------------------------  3E-08 
Number of Cycles Used -------------  4 
Starting Wavelength (Angstroms) ---  2950 
Final Wavelength (Angstoms) -------  2984 
Wavelength Increment (Angstroms) --  .25 
Filter Wheel #1 Position ---------- (1) Ground quartz diffuser (ND=2.32)
Filter Wheel #2 Position ---------- (1) Neutral Density 0.494



************************************************************
HS scan start time = 04:59:37
Dark Count =  5.7 


Time (GMT)  Wavelength (Ang)  Step Number  Raw Counts  Counts/Second

  299.99        2950.00           1222          73.00       293.38
  300.05        2950.25           1226          71.00       284.66
  300.08        2950.50           1229          66.00       262.86
  300.11        2950.75           1232          57.00       223.63
  300.14        2951.00           1236          68.00       271.58
  300.18        2951.25           1239          67.00       267.22
  300.21        2951.50           1242          71.00       284.66
  300.24        2951.75           1246          60.00       236.71
  300.27        2952.00           1249          60.00       236.71
  300.30        2952.25           1252          64.00       254.14
  300.33        2952.50           1256          61.00       241.07
  300.36        2952.75           1259          78.00       315.17
  300.39        2953.00           1262          62.00       245.42
  300.42        2953.25           1266          70.00       280.30
  300.45        2953.50           1269          61.00       241.07
  300.48        2953.75           1272          60.00       236.71
  300.51        2954.00           1276          65.00       258.50
  300.54        2954.25           1279          62.00       245.42
  300.58        2954.50           1282          63.00       249.78
  300.61        2954.75           1286          58.00       227.99
  300.64        2955.00           1289          69.00       275.94
  300.67        2955.25           1292          57.00       223.63
  300.70        2955.50           1296          63.00       249.78
  300.73        2955.75           1299          56.00       219.27
  300.76        2956.00           1302          59.00       232.35
  300.79        2956.25           1306          68.00       271.58
  300.82        2956.50           1309          69.00       275.94
  300.85        2956.75           1312          54.00       210.55
  300.88        2957.00           1316          66.00       262.86
  300.91        2957.25           1319          63.00       249.78
  300.94        2957.50           1322          55.00       214.91
  300.97        2957.75           1326          75.00       302.10
  301.00        2958.00           1329          62.00       245.42
  301.04        2958.25           1332          61.00       241.07
  301.07        2958.50           1336          69.00       275.94
  301.10        2958.75           1339          68.00       271.58
  301.13        2959.00           1342          60.00       236.71
  301.16        2959.25           1346          63.00       249.78
  301.19        2959.50           1349          72.00       289.02
  301.22        2959.75           1352          83.00       336.97
  301.25        2960.00           1356         108.00       445.95
  301.28        2960.25           1359         136.00       568.01
  301.31        2960.50           1362         165.00       694.43
  301.34        2960.75           1366         227.00       964.72
  301.37        2961.00           1369         264.00      1126.02
  301.40        2961.25           1372         302.00      1291.68
  301.44        2961.50           1376         404.00      1736.36
  301.47        2961.75           1379         644.00      2782.71
  301.50        2962.00           1382        1484.00      6445.45
  301.53        2962.25           1386        3228.00     14052.57
  301.56        2962.50           1389        4668.00     20336.29
  301.59        2962.75           1392        6075.00     26478.30
  301.62        2963.00           1396        8063.00     35160.43
  301.65        2963.25           1399        9568.00     41736.18
  301.69        2963.50           1402       11202.00     48878.51
  301.72        2963.75           1406       13592.00     59330.88
  301.75        2964.00           1409       15063.00     65767.38
  301.78        2964.25           1412       16784.00     73300.96
  301.81        2964.50           1416       18679.00     81600.13
  301.84        2964.75           1419       20022.00     87484.32
  301.87        2965.00           1422       21885.00     95650.28
  301.90        2965.25           1426       23673.00    103491.30
  301.93        2965.50           1429       25303.00    110642.60
  301.96        2965.75           1432       26911.00    117700.40
  301.99        2966.00           1436       28870.00    126302.90
  302.02        2966.25           1439       30447.00    133231.10
  302.06        2966.50           1442       31907.00    139647.90
  302.09        2966.75           1446       33090.00    144849.10
  302.12        2967.00           1449       33100.00    144893.10
  302.15        2967.25           1452       33258.00    145587.90
  302.18        2967.50           1456       33172.00    145209.70
  302.21        2967.75           1459       33153.00    145126.10
  302.24        2968.00           1462       32982.00    144374.20
  302.27        2968.25           1466       31898.00    139608.40
  302.30        2968.50           1469       30358.00    132840.00
  302.33        2968.75           1472       29058.00    127128.70
  302.36        2969.00           1476       27068.00    118389.70
  302.40        2969.25           1479       25485.00    111441.30
  302.43        2969.50           1482       23904.00    104504.60
  302.46        2969.75           1486       21972.00     96031.72
  302.49        2970.00           1489       20358.00     88956.80
  302.52        2970.25           1492       18884.00     82498.18
  302.55        2970.50           1496       16836.00     73528.63
  302.58        2970.75           1499       15292.00     66769.62
  302.61        2971.00           1502       13747.00     60008.98
  302.64        2971.25           1506       11827.00     51611.24
  302.67        2971.50           1509       10351.00     45158.35
  302.71        2971.75           1513        8502.00     37078.27
  302.74        2972.00           1516        6855.00     29884.24
  302.77        2972.25           1519        5335.00     23247.68
  302.80        2972.50           1523        3313.00     14423.42
  302.83        2972.75           1526        1817.00      7897.69
  302.86        2973.00           1529         857.00      3711.40
  302.89        2973.25           1533         410.00      1762.52
  302.92        2973.50           1536         321.00      1374.51
  302.95        2973.75           1539         261.00      1112.94
  302.99        2974.00           1543         223.00       947.28
  303.02        2974.25           1546         180.00       759.83
  303.05        2974.50           1549         134.00       559.29
  303.08        2974.75           1553          93.00       380.56
  303.11        2975.00           1556          84.00       341.33
  303.14        2975.25           1559          67.00       267.22
  303.17        2975.50           1563          62.00       245.42
  303.20        2975.75           1566          72.00       289.02
  303.23        2976.00           1569          67.00       267.22
  303.26        2976.25           1573          61.00       241.07
  303.29        2976.50           1576          59.00       232.35
  303.33        2976.75           1579          58.00       227.99
  303.36        2977.00           1583          61.00       241.07
  303.39        2977.25           1586          65.00       258.50
  303.42        2977.50           1590          65.00       258.50
  303.45        2977.75           1593          63.00       249.78
  303.48        2978.00           1596          56.00       219.27
  303.51        2978.25           1600          67.00       267.22
  303.54        2978.50           1603          63.00       249.78
  303.57        2978.75           1606          53.00       206.19
  303.60        2979.00           1610          58.00       227.99
  303.63        2979.25           1613          55.00       214.91
  303.67        2979.50           1616          51.00       197.47
  303.70        2979.75           1620          64.00       254.14
  303.73        2980.00           1623          62.00       245.42
  303.76        2980.25           1626          71.00       284.66
  303.79        2980.50           1630          66.00       262.86
  303.82        2980.75           1633          63.00       249.78
  303.85        2981.00           1637          58.00       227.99
  303.88        2981.25           1640          61.00       241.07
  303.91        2981.50           1643          54.00       210.55
  303.95        2981.75           1647          65.00       258.50
  303.98        2982.00           1650          63.00       249.78
  304.01        2982.25           1653          46.00       175.68
  304.04        2982.50           1657          61.00       241.07
  304.07        2982.75           1660          62.00       245.42
  304.10        2983.00           1663          55.00       214.91
  304.13        2983.25           1667          71.00       284.66
  304.16        2983.50           1670          60.00       236.71
  304.19        2983.75           1673          62.00       245.42
  304.22        2984.00           1677          57.00       223.63
HS scan finished at 05:04:26
end
************************************************************
  HS Scan of (1) Internal mercury lamp
************************************************************
Integration time is 0.2294 seconds per sample
dh261117Manchester 53.47 2.23 2.804185pr1000
************************************************************
Dead Time -------------------------  3E-08 
Number of Cycles Used -------------  4 
Starting Wavelength (Angstroms) ---  2950 
Final Wavelength (Angstoms) -------  2984 
Wavelength Increment (Angstroms) --  .25 
Filter Wheel #1 Position ---------- (1) Ground quartz diffuser (ND=2.32)
Filter Wheel #2 Position ---------- (1) Neutral Density 0.494



************************************************************
HS scan start time = 17:12:03
Dark Count =  5.6 


Time (GMT)  Wavelength (Ang)  Step Number  Raw Counts  Counts/Second

 1032.41        2950.00           1222          67.00       267.66
 1032.48        2950.25           1226          58.00       228.42
 1032.51        2950.50           1229          72.00       289.45
 1032.54        2950.75           1232          69.00       276.38
 1032.57        2951.00           1236          66.00       263.30
 1032.60        2951.25           1239          57.00       224.06
 1032.63        2951.50           1242          61.00       241.50
 1032.67        2951.75           1246          57.00       224.06
 1032.70        2952.00           1249          64.00       254.58
 1032.73        2952.25           1252          61.00       241.50
 1032.76        2952.50           1256          59.00       232.78
 1032.79        2952.75           1259          73.00       293.81
 1032.82        2953.00           1262          67.00       267.66
 1032.85        2953.25           1266          64.00       254.58
 1032.88        2953.50           1269          55.00       215.35
 1032.91        2953.75           1272          72.00       289.45
 1032.94        2954.00           1276          61.00       241.50
 1032.97        2954.25           1279          63.00       250.22
 1033.01        2954.50           1282          78.00       315.61
 1033.04        2954.75           1286          64.00       254.58
 1033.07        2955.00           1289          62.00       245.86
 1033.10        2955.25           1292          67.00       267.66
 1033.13        2955.50           1296          68.00       272.02
 1033.16        2955.75           1299          67.00       267.66
 1033.19        2956.00           1302          69.00       276.38
 1033.22        2956.25           1306          83.00       337.41
 1033.25        2956.50           1309          59.00       232.78
 1033.28        2956.75           1312          66.00       263.30
 1033.31        2957.00           1316          73.00       293.81
 1033.34        2957.25           1319          71.00       285.09
 1033.37        2957.50           1322          63.00       250.22
 1033.40        2957.75           1326          66.00       263.30
 1033.43        2958.00           1329          70.00       280.73
 1033.46        2958.25           1332          61.00       241.50
 1033.49        2958.50           1336          66.00       263.30
 1033.52        2958.75           1339          65.00       258.94
 1033.56        2959.00           1342          66.00       263.30
 1033.59        2959.25           1346          71.00       285.09
 1033.62        2959.50           1349          97.00       398.44
 1033.65        2959.75           1352          95.00       389.72
 1033.68        2960.00           1356         104.00       428.95
 1033.71        2960.25           1359         140.00       585.89
 1033.74        2960.50           1362         194.00       821.29
 1033.77        2960.75           1366         236.00      1004.39
 1033.80        2961.00           1369         253.00      1078.50
 1033.83        2961.25           1372         304.00      1300.84
 1033.86        2961.50           1376         357.00      1531.89
 1033.89        2961.75           1379         473.00      2037.61
 1033.93        2962.00           1382         897.00      3886.24
 1033.96        2962.25           1386        2352.00     10231.56
 1033.99        2962.50           1389        3706.00     16138.59
 1034.02        2962.75           1392        5275.00     22986.20
 1034.05        2963.00           1396        7285.00     31762.60
 1034.08        2963.25           1399        8772.00     38258.36
 1034.11        2963.50           1402       10236.00     44656.13
 1034.14        2963.75           1406       12423.00     54218.03
 1034.17        2964.00           1409       13705.00     59825.68
 1034.20        2964.25           1412       15426.00     67356.55
 1034.24        2964.50           1416       17602.00     76883.33
 1034.27        2964.75           1419       19052.00     83234.61
 1034.30        2965.00           1422       20687.00     90399.16
 1034.33        2965.25           1426       22695.00     99202.38
 1034.36        2965.50           1429       24228.00    105926.30
 1034.39        2965.75           1432       25891.00    113223.50
 1034.42        2966.00           1436       27617.00    120800.60
 1034.45        2966.25           1439       28989.00    126826.00
 1034.48        2966.50           1442       30454.00    133262.30
 1034.51        2966.75           1446       32249.00    141151.80
 1034.54        2967.00           1449       32837.00    143737.10
 1034.58        2967.25           1452       33002.00    144462.60
 1034.61        2967.50           1456       32800.00    143574.40
 1034.64        2967.75           1459       32992.00    144418.60
 1034.67        2968.00           1462       32916.00    144084.40
 1034.70        2968.25           1466       31992.00    140022.00
 1034.73        2968.50           1469       30910.00    135266.20
 1034.76        2968.75           1472       29246.00    127954.90
 1034.79        2969.00           1476       27488.00    120234.10
 1034.82        2969.25           1479       26037.00    113864.30
 1034.85        2969.50           1482       24590.00    107514.50
 1034.89        2969.75           1486       22627.00     98904.19
 1034.92        2970.00           1489       21086.00     92148.03
 1034.95        2970.25           1492       19498.00     85188.68
 1034.98        2970.50           1496       17530.00     76568.01
 1035.01        2970.75           1499       15942.00     69615.16
 1035.04        2971.00           1502       14422.00     62962.76
 1035.07        2971.25           1506       12321.00     53771.94
 1035.10        2971.50           1509       10923.00     47659.20
 1035.13        2971.75           1513        9032.00     39394.40
 1035.16        2972.00           1516        7365.00     32112.00
 1035.19        2972.25           1519        5977.00     26050.86
 1035.23        2972.50           1523        4133.00     18001.88
 1035.26        2972.75           1526        2620.00     11400.59
 1035.29        2973.00           1529        1277.00      5543.21
 1035.32        2973.25           1533         464.00      1998.38
 1035.35        2973.50           1536         306.00      1309.55
 1035.38        2973.75           1539         256.00      1091.58
 1035.41        2974.00           1543         217.00       921.56
 1035.44        2974.25           1546         174.00       734.11
 1035.47        2974.50           1549         122.00       507.42
 1035.50        2974.75           1553          94.00       385.36
 1035.53        2975.00           1556          72.00       289.45
 1035.56        2975.25           1559          72.00       289.45
 1035.59        2975.50           1563          60.00       237.14
 1035.63        2975.75           1566          55.00       215.35
 1035.66        2976.00           1569          63.00       250.22
 1035.69        2976.25           1573          59.00       232.78
 1035.72        2976.50           1576          59.00       232.78
 1035.75        2976.75           1579          68.00       272.02
 1035.78        2977.00           1583          65.00       258.94
 1035.81        2977.25           1586          62.00       245.86
 1035.84        2977.50           1590          56.00       219.71
 1035.87        2977.75           1593          63.00       250.22
 1035.90        2978.00           1596          52.00       202.27
 1035.94        2978.25           1600          52.00       202.27
 1035.97        2978.50           1603          61.00       241.50
 1036.00        2978.75           1606          63.00       250.22
 1036.03        2979.00           1610          55.00       215.35
 1036.06        2979.25           1613          61.00       241.50
 1036.09        2979.50           1616          68.00       272.02
 1036.12        2979.75           1620          62.00       245.86
 1036.15        2980.00           1623          53.00       206.63
 1036.18        2980.25           1626          61.00       241.50
 1036.21        2980.50           1630          64.00       254.58
 1036.24        2980.75           1633          62.00       245.86
 1036.27        2981.00           1637          55.00       215.35
 1036.31        2981.25           1640          62.00       245.86
 1036.34        2981.50           1643          57.00       224.06
 1036.37        2981.75           1647          56.00       219.71
 1036.40        2982.00           1650          58.00       228.42
 1036.43        2982.25           1653          55.00       215.35
 1036.46        2982.50           1657          60.00       237.14
 1036.49        2982.75           1660          55.00       215.35
 1036.52        2983.00           1663          70.00       280.73
 1036.55        2983.25           1667          61.00       241.50
 1036.58        2983.50           1670          58.00       228.42
 1036.61        2983.75           1673          60.00       237.14
 1036.64        2984.00           1677          49.00       189.19
HS scan finished at 17:16:52
end
