************************************************************
  HS Scan of (1) Internal mercury lamp
************************************************************
Integration time is 0.2294 seconds per sample
dh091218Manchester 53.47 2.23 2.804185pr1000
************************************************************
Dead Time -------------------------  3E-08 
Number of Cycles Used -------------  4 
Starting Wavelength (Angstroms) ---  2950 
Final Wavelength (Angstoms) -------  2984 
Wavelength Increment (Angstroms) --  .25 
Filter Wheel #1 Position ---------- (1) Ground quartz diffuser (ND=2.32)
Filter Wheel #2 Position ---------- (1) Neutral Density 0.494



************************************************************
HS scan start time = 05:14:11
Dark Count =  9.3 


Time (GMT)  Wavelength (Ang)  Step Number  Raw Counts  Counts/Second

  314.55        2950.00           1222          61.00       225.37
  314.62        2950.25           1226          53.00       190.50
  314.65        2950.50           1229          55.00       199.22
  314.68        2950.75           1232          67.00       251.53
  314.71        2951.00           1236          60.00       221.01
  314.74        2951.25           1239          56.00       203.58
  314.77        2951.50           1242          57.00       207.94
  314.80        2951.75           1246          51.00       181.78
  314.83        2952.00           1249          59.00       216.65
  314.86        2952.25           1252          48.00       168.70
  314.89        2952.50           1256          55.00       199.22
  314.92        2952.75           1259          54.00       194.86
  314.95        2953.00           1262          67.00       251.53
  314.99        2953.25           1266          50.00       177.42
  315.02        2953.50           1269          51.00       181.78
  315.05        2953.75           1272          63.00       234.09
  315.08        2954.00           1276          51.00       181.78
  315.11        2954.25           1279          60.00       221.01
  315.14        2954.50           1282          56.00       203.58
  315.17        2954.75           1286          59.00       216.65
  315.20        2955.00           1289          61.00       225.37
  315.23        2955.25           1292          52.00       186.14
  315.26        2955.50           1296          49.00       173.06
  315.29        2955.75           1299          55.00       199.22
  315.32        2956.00           1302          55.00       199.22
  315.35        2956.25           1306          54.00       194.86
  315.38        2956.50           1309          54.00       194.86
  315.42        2956.75           1312          59.00       216.65
  315.45        2957.00           1316          51.00       181.78
  315.48        2957.25           1319          55.00       199.22
  315.51        2957.50           1322          57.00       207.94
  315.54        2957.75           1326          54.00       194.86
  315.57        2958.00           1329          55.00       199.22
  315.60        2958.25           1332          56.00       203.58
  315.63        2958.50           1336          64.00       238.45
  315.66        2958.75           1339          50.00       177.42
  315.69        2959.00           1342          48.00       168.70
  315.72        2959.25           1346          57.00       207.94
  315.75        2959.50           1349          60.00       221.01
  315.78        2959.75           1352          60.00       221.01
  315.81        2960.00           1356          71.00       268.96
  315.85        2960.25           1359          96.00       377.95
  315.88        2960.50           1362         117.00       469.49
  315.91        2960.75           1366         163.00       670.02
  315.94        2961.00           1369         183.00       757.21
  315.97        2961.25           1372         226.00       944.67
  316.00        2961.50           1376         265.00      1114.68
  316.03        2961.75           1379         381.00      1620.39
  316.06        2962.00           1382         772.00      3325.09
  316.09        2962.25           1386        1966.00      8531.83
  316.12        2962.50           1389        3007.00     13072.69
  316.17        2962.75           1392        4081.00     17758.81
  316.20        2963.00           1396        5525.00     24061.39
  316.23        2963.25           1399        6578.00     28658.90
  316.27        2963.50           1402        7572.00     32999.96
  316.30        2963.75           1406        9177.00     40011.82
  316.33        2964.00           1409       10326.00     45033.34
  316.36        2964.25           1412       11542.00     50349.32
  316.39        2964.50           1416       13200.00     57600.32
  316.42        2964.75           1419       14229.00     62102.08
  316.45        2965.00           1422       15568.00     67961.88
  316.48        2965.25           1426       16913.00     73850.01
  316.51        2965.50           1429       18030.00     78741.58
  316.55        2965.75           1432       19281.00     84221.69
  316.58        2966.00           1436       20649.00     90216.38
  316.61        2966.25           1439       21713.00     94880.41
  316.64        2966.50           1442       22587.00     98712.56
  316.67        2966.75           1446       23843.00    104221.20
  316.70        2967.00           1449       24243.00    105975.90
  316.73        2967.25           1452       24245.00    105984.70
  316.76        2967.50           1456       24135.00    105502.10
  316.80        2967.75           1459       24152.00    105576.70
  316.83        2968.00           1462       24040.00    105085.40
  316.86        2968.25           1466       23430.00    102409.60
  316.89        2968.50           1469       22614.00     98830.96
  316.92        2968.75           1472       21597.00     94371.86
  316.95        2969.00           1476       20271.00     88559.72
  316.98        2969.25           1479       19133.00     83573.26
  317.01        2969.50           1482       18110.00     79091.98
  317.04        2969.75           1486       16510.00     72085.54
  317.08        2970.00           1489       15346.00     66990.21
  317.11        2970.25           1492       14270.00     62281.48
  317.14        2970.50           1496       12700.00     55413.32
  317.17        2970.75           1499       11680.00     50952.72
  317.20        2971.00           1502       10600.00     46231.03
  317.23        2971.25           1506        9041.00     39417.56
  317.26        2971.50           1509        7953.00     34664.19
  317.29        2971.75           1513        6478.00     28222.23
  317.32        2972.00           1516        5312.00     23131.57
  317.36        2972.25           1519        4184.00     18208.29
  317.39        2972.50           1523        2794.00     12143.48
  317.42        2972.75           1526        1812.00      7860.18
  317.45        2973.00           1529         930.00      4014.00
  317.48        2973.25           1533         369.00      1568.08
  317.51        2973.50           1536         276.00      1162.64
  317.54        2973.75           1539         232.00       970.82
  317.57        2974.00           1543         190.00       787.73
  317.60        2974.25           1546         163.00       670.02
  317.64        2974.50           1549         130.00       526.16
  317.67        2974.75           1553          90.00       351.79
  317.70        2975.00           1556          76.00       290.76
  317.73        2975.25           1559          62.00       229.73
  317.76        2975.50           1563          64.00       238.45
  317.79        2975.75           1566          55.00       199.22
  317.82        2976.00           1569          54.00       194.86
  317.85        2976.25           1573          51.00       181.78
  317.88        2976.50           1576          50.00       177.42
  317.91        2976.75           1579          50.00       177.42
  317.94        2977.00           1583          52.00       186.14
  317.98        2977.25           1586          46.00       159.98
  318.01        2977.50           1590          50.00       177.42
  318.04        2977.75           1593          55.00       199.22
  318.07        2978.00           1596          58.00       212.29
  318.10        2978.25           1600          51.00       181.78
  318.13        2978.50           1603          46.00       159.98
  318.16        2978.75           1606          52.00       186.14
  318.19        2979.00           1610          52.00       186.14
  318.22        2979.25           1613          54.00       194.86
  318.25        2979.50           1616          56.00       203.58
  318.29        2979.75           1620          54.00       194.86
  318.32        2980.00           1623          42.00       142.55
  318.35        2980.25           1626          55.00       199.22
  318.38        2980.50           1630          52.00       186.14
  318.41        2980.75           1633          56.00       203.58
  318.44        2981.00           1637          45.00       155.62
  318.47        2981.25           1640          49.00       173.06
  318.50        2981.50           1643          49.00       173.06
  318.53        2981.75           1647          52.00       186.14
  318.56        2982.00           1650          50.00       177.42
  318.60        2982.25           1653          58.00       212.29
  318.63        2982.50           1657          51.00       181.78
  318.66        2982.75           1660          49.00       173.06
  318.69        2983.00           1663          48.00       168.70
  318.72        2983.25           1667          49.00       173.06
  318.75        2983.50           1670          43.00       146.91
  318.78        2983.75           1673          44.00       151.26
  318.81        2984.00           1677          53.00       190.50
HS scan finished at 05:19:02
end
************************************************************
  HS Scan of (1) Internal mercury lamp
************************************************************
Integration time is 0.2294 seconds per sample
dh091218Manchester 53.47 2.23 2.804185pr1000
************************************************************
Dead Time -------------------------  3E-08 
Number of Cycles Used -------------  4 
Starting Wavelength (Angstroms) ---  2950 
Final Wavelength (Angstoms) -------  2984 
Wavelength Increment (Angstroms) --  .25 
Filter Wheel #1 Position ---------- (1) Ground quartz diffuser (ND=2.32)
Filter Wheel #2 Position ---------- (1) Neutral Density 0.494



************************************************************
HS scan start time = 16:42:03
Dark Count =  7.3 


Time (GMT)  Wavelength (Ang)  Step Number  Raw Counts  Counts/Second

 1002.42        2950.00           1222          50.00       186.14
 1002.49        2950.25           1226          61.00       234.09
 1002.52        2950.50           1229          48.00       177.42
 1002.55        2950.75           1232          55.00       207.94
 1002.58        2951.00           1236          50.00       186.14
 1002.61        2951.25           1239          56.00       212.29
 1002.64        2951.50           1242          59.00       225.37
 1002.67        2951.75           1246          56.00       212.29
 1002.70        2952.00           1249          52.00       194.86
 1002.73        2952.25           1252          61.00       234.09
 1002.77        2952.50           1256          56.00       212.29
 1002.80        2952.75           1259          55.00       207.94
 1002.83        2953.00           1262          59.00       225.37
 1002.86        2953.25           1266          54.00       203.58
 1002.89        2953.50           1269          49.00       181.78
 1002.92        2953.75           1272          57.00       216.65
 1002.95        2954.00           1276          61.00       234.09
 1002.98        2954.25           1279          56.00       212.29
 1003.01        2954.50           1282          57.00       216.65
 1003.05        2954.75           1286          51.00       190.50
 1003.08        2955.00           1289          52.00       194.86
 1003.11        2955.25           1292          55.00       207.94
 1003.14        2955.50           1296          63.00       242.81
 1003.17        2955.75           1299          50.00       186.14
 1003.20        2956.00           1302          51.00       190.50
 1003.23        2956.25           1306          54.00       203.58
 1003.26        2956.50           1309          51.00       190.50
 1003.29        2956.75           1312          57.00       216.65
 1003.32        2957.00           1316          55.00       207.94
 1003.36        2957.25           1319          60.00       229.73
 1003.39        2957.50           1322          50.00       186.14
 1003.42        2957.75           1326          61.00       234.09
 1003.45        2958.00           1329          50.00       186.14
 1003.48        2958.25           1332          55.00       207.94
 1003.51        2958.50           1336          54.00       203.58
 1003.54        2958.75           1339          49.00       181.78
 1003.57        2959.00           1342          49.00       181.78
 1003.60        2959.25           1346          62.00       238.45
 1003.63        2959.50           1349          61.00       234.09
 1003.66        2959.75           1352          72.00       282.04
 1003.69        2960.00           1356          95.00       382.31
 1003.72        2960.25           1359         121.00       495.65
 1003.75        2960.50           1362         150.00       622.07
 1003.78        2960.75           1366         186.00       779.01
 1003.82        2961.00           1369         214.00       901.07
 1003.85        2961.25           1372         235.00       992.62
 1003.88        2961.50           1376         307.00      1306.50
 1003.91        2961.75           1379         466.00      1999.68
 1003.94        2962.00           1382        1018.00      4406.42
 1003.97        2962.25           1386        2317.00     10071.48
 1004.00        2962.50           1389        3349.00     14573.50
 1004.03        2962.75           1392        4472.00     19473.89
 1004.06        2963.00           1396        5892.00     25672.34
 1004.09        2963.25           1399        7066.00     30798.72
 1004.13        2963.50           1402        8253.00     35983.46
 1004.16        2963.75           1406        9735.00     42459.02
 1004.19        2964.00           1409       11018.00     48067.09
 1004.22        2964.25           1412       12088.00     52745.56
 1004.25        2964.50           1416       13573.00     59240.77
 1004.28        2964.75           1419       14644.00     63926.76
 1004.31        2965.00           1422       15777.00     68885.46
 1004.34        2965.25           1426       17382.00     75912.45
 1004.37        2965.50           1429       18590.00     81203.24
 1004.41        2965.75           1432       19651.00     85851.60
 1004.44        2966.00           1436       21253.00     92872.61
 1004.47        2966.25           1439       22591.00     98738.87
 1004.50        2966.50           1442       23388.00    102234.20
 1004.53        2966.75           1446       24441.00    106853.30
 1004.56        2967.00           1449       24702.00    107998.40
 1004.59        2967.25           1452       24793.00    108397.70
 1004.62        2967.50           1456       24723.00    108090.60
 1004.65        2967.75           1459       24697.00    107976.50
 1004.68        2968.00           1462       24464.00    106954.20
 1004.72        2968.25           1466       23846.00    104243.10
 1004.75        2968.50           1469       22804.00     99672.92
 1004.78        2968.75           1472       21726.00     94946.16
 1004.81        2969.00           1476       20235.00     88410.74
 1004.84        2969.25           1479       18960.00     82824.11
 1004.87        2969.50           1482       18044.00     78811.66
 1004.90        2969.75           1486       16505.00     72072.40
 1004.93        2970.00           1489       15397.00     67222.18
 1004.97        2970.25           1492       14303.00     62434.62
 1005.00        2970.50           1496       12881.00     56213.73
 1005.03        2970.75           1499       11696.00     51031.42
 1005.06        2971.00           1502       10541.00     45981.87
 1005.09        2971.25           1506        9001.00     39251.52
 1005.12        2971.50           1509        7777.00     33904.13
 1005.15        2971.75           1513        6322.00     27549.79
 1005.18        2972.00           1516        5078.00     22118.86
 1005.21        2972.25           1519        4044.00     17606.07
 1005.24        2972.50           1523        2566.00     11157.61
 1005.27        2972.75           1526        1472.00      6386.14
 1005.31        2973.00           1529         611.00      2631.86
 1005.34        2973.25           1533         289.00      1228.03
 1005.37        2973.50           1536         234.00       988.26
 1005.40        2973.75           1539         204.00       857.48
 1005.43        2974.00           1543         165.00       687.46
 1005.46        2974.25           1546         134.00       552.32
 1005.49        2974.50           1549          96.00       386.67
 1005.52        2974.75           1553          82.00       325.64
 1005.55        2975.00           1556          56.00       212.29
 1005.58        2975.25           1559          51.00       190.50
 1005.61        2975.50           1563          52.00       194.86
 1005.64        2975.75           1566          51.00       190.50
 1005.67        2976.00           1569          54.00       203.58
 1005.70        2976.25           1573          56.00       212.29
 1005.74        2976.50           1576          53.00       199.22
 1005.77        2976.75           1579          49.00       181.78
 1005.80        2977.00           1583          54.00       203.58
 1005.83        2977.25           1586          47.00       173.06
 1005.86        2977.50           1590          49.00       181.78
 1005.89        2977.75           1593          56.00       212.29
 1005.92        2978.00           1596          49.00       181.78
 1005.95        2978.25           1600          53.00       199.22
 1005.98        2978.50           1603          55.00       207.94
 1006.01        2978.75           1606          45.00       164.34
 1006.05        2979.00           1610          53.00       199.22
 1006.08        2979.25           1613          45.00       164.34
 1006.11        2979.50           1616          45.00       164.34
 1006.14        2979.75           1620          49.00       181.78
 1006.17        2980.00           1623          47.00       173.06
 1006.20        2980.25           1626          48.00       177.42
 1006.23        2980.50           1630          52.00       194.86
 1006.26        2980.75           1633          45.00       164.34
 1006.29        2981.00           1637          46.00       168.70
 1006.32        2981.25           1640          47.00       173.06
 1006.35        2981.50           1643          48.00       177.42
 1006.38        2981.75           1647          52.00       194.86
 1006.42        2982.00           1650          49.00       181.78
 1006.45        2982.25           1653          47.00       173.06
 1006.49        2982.50           1657          44.00       159.98
 1006.52        2982.75           1660          51.00       190.50
 1006.55        2983.00           1663          48.00       177.42
 1006.59        2983.25           1667          50.00       186.14
 1006.62        2983.50           1670          49.00       181.78
 1006.65        2983.75           1673          47.00       173.06
 1006.68        2984.00           1677          48.00       177.42
HS scan finished at 16:46:54
end
