************************************************************
  HS Scan of (1) Internal mercury lamp
************************************************************
Integration time is 0.2294 seconds per sample
dh131218Manchester 53.47 2.23 2.750537pr1000
************************************************************
Dead Time -------------------------  3E-08 
Number of Cycles Used -------------  4 
Starting Wavelength (Angstroms) ---  2950 
Final Wavelength (Angstoms) -------  2984 
Wavelength Increment (Angstroms) --  .25 
Filter Wheel #1 Position ---------- (1) Ground quartz diffuser (ND=2.32)
Filter Wheel #2 Position ---------- (1) Neutral Density 0.494



************************************************************
HS scan start time = 05:17:43
Dark Count =  7.9 


Time (GMT)  Wavelength (Ang)  Step Number  Raw Counts  Counts/Second

  318.09        2950.00           1222          62.00       235.83
  318.15        2950.25           1226          50.00       183.52
  318.18        2950.50           1229          64.00       244.55
  318.21        2950.75           1232          58.00       218.40
  318.24        2951.00           1236          57.00       214.04
  318.27        2951.25           1239          61.00       231.48
  318.31        2951.50           1242          53.00       196.60
  318.34        2951.75           1246          51.00       187.88
  318.37        2952.00           1249          53.00       196.60
  318.40        2952.25           1252          56.00       209.68
  318.43        2952.50           1256          49.00       179.16
  318.46        2952.75           1259          57.00       214.04
  318.49        2953.00           1262          57.00       214.04
  318.52        2953.25           1266          58.00       218.40
  318.55        2953.50           1269          60.00       227.12
  318.58        2953.75           1272          57.00       214.04
  318.61        2954.00           1276          58.00       218.40
  318.65        2954.25           1279          50.00       183.52
  318.68        2954.50           1282          55.00       205.32
  318.71        2954.75           1286          59.00       222.76
  318.74        2955.00           1289          57.00       214.04
  318.77        2955.25           1292          54.00       200.96
  318.80        2955.50           1296          51.00       187.88
  318.83        2955.75           1299          52.00       192.24
  318.86        2956.00           1302          54.00       200.96
  318.89        2956.25           1306          49.00       179.16
  318.92        2956.50           1309          49.00       179.16
  318.95        2956.75           1312          61.00       231.48
  318.98        2957.00           1316          52.00       192.24
  319.02        2957.25           1319          57.00       214.04
  319.05        2957.50           1322          58.00       218.40
  319.08        2957.75           1326          64.00       244.55
  319.11        2958.00           1329          51.00       187.88
  319.14        2958.25           1332          61.00       231.48
  319.17        2958.50           1336          53.00       196.60
  319.20        2958.75           1339          55.00       205.32
  319.23        2959.00           1342          62.00       235.83
  319.26        2959.25           1346          52.00       192.24
  319.29        2959.50           1349          57.00       214.04
  319.32        2959.75           1352          66.00       253.27
  319.35        2960.00           1356          84.00       331.74
  319.38        2960.25           1359         100.00       401.49
  319.41        2960.50           1362         123.00       501.75
  319.45        2960.75           1366         168.00       697.92
  319.48        2961.00           1369         197.00       824.34
  319.51        2961.25           1372         225.00       946.41
  319.54        2961.50           1376         285.00      1207.98
  319.57        2961.75           1379         417.00      1783.44
  319.60        2962.00           1382         863.00      3727.97
  319.63        2962.25           1386        2114.00      9183.44
  319.66        2962.50           1389        3284.00     14287.29
  319.69        2962.75           1392        4475.00     19484.36
  319.72        2963.00           1396        6009.00     26180.54
  319.76        2963.25           1399        7118.00     31023.19
  319.79        2963.50           1402        8192.00     35714.36
  319.82        2963.75           1406        9828.00     42862.84
  319.85        2964.00           1409       11078.00     48326.78
  319.88        2964.25           1412       12406.00     54133.61
  319.91        2964.50           1416       14013.00     61163.13
  319.94        2964.75           1419       15228.00     66479.88
  319.97        2965.00           1422       16215.00     70800.18
  320.00        2965.25           1426       17851.00     77963.74
  320.03        2965.50           1429       18933.00     82703.21
  320.06        2965.75           1432       20134.00     87965.49
  320.09        2966.00           1436       21807.00     95298.66
  320.13        2966.25           1439       22718.00     99293.15
  320.16        2966.50           1442       23791.00    103999.20
  320.19        2966.75           1446       25068.00    109601.70
  320.22        2967.00           1449       25585.00    111870.50
  320.25        2967.25           1452       25658.00    112190.80
  320.28        2967.50           1456       25620.00    112024.10
  320.31        2967.75           1459       25492.00    111462.30
  320.34        2968.00           1462       25505.00    111519.40
  320.37        2968.25           1466       24865.00    108711.00
  320.41        2968.50           1469       23739.00    103771.10
  320.44        2968.75           1472       22740.00     99389.64
  320.47        2969.00           1476       21353.00     93308.34
  320.50        2969.25           1479       20200.00     88254.71
  320.53        2969.50           1482       19062.00     83268.34
  320.56        2969.75           1486       17330.00     75682.10
  320.59        2970.00           1489       16071.00     70169.79
  320.62        2970.25           1492       14905.00     65066.29
  320.65        2970.50           1496       13417.00     58555.70
  320.68        2970.75           1499       12138.00     52961.59
  320.71        2971.00           1502       10990.00     47942.06
  320.74        2971.25           1506        9273.00     40437.43
  320.77        2971.50           1509        8116.00     35382.35
  320.80        2971.75           1513        6631.00     28896.44
  320.83        2972.00           1516        5551.00     24181.01
  320.87        2972.25           1519        4274.00     18607.16
  320.90        2972.50           1523        2738.00     11905.30
  320.93        2972.75           1526        1697.00      7364.75
  320.96        2973.00           1529         743.00      3204.75
  320.99        2973.25           1533         359.00      1530.58
  321.02        2973.50           1536         246.00      1037.96
  321.05        2973.75           1539         219.00       920.25
  321.08        2974.00           1543         192.00       802.55
  321.11        2974.25           1546         141.00       580.22
  321.14        2974.50           1549         120.00       488.67
  321.17        2974.75           1553          83.00       327.38
  321.20        2975.00           1556          67.00       257.63
  321.23        2975.25           1559          63.00       240.19
  321.26        2975.50           1563          53.00       196.60
  321.29        2975.75           1566          56.00       209.68
  321.33        2976.00           1569          50.00       183.52
  321.36        2976.25           1573          48.00       174.80
  321.39        2976.50           1576          55.00       205.32
  321.42        2976.75           1579          52.00       192.24
  321.45        2977.00           1583          62.00       235.83
  321.48        2977.25           1586          54.00       200.96
  321.51        2977.50           1590          51.00       187.88
  321.54        2977.75           1593          44.00       157.37
  321.57        2978.00           1596          54.00       200.96
  321.60        2978.25           1600          51.00       187.88
  321.63        2978.50           1603          50.00       183.52
  321.66        2978.75           1606          50.00       183.52
  321.69        2979.00           1610          43.00       153.01
  321.72        2979.25           1613          50.00       183.52
  321.76        2979.50           1616          59.00       222.76
  321.79        2979.75           1620          56.00       209.68
  321.82        2980.00           1623          52.00       192.24
  321.85        2980.25           1626          55.00       205.32
  321.88        2980.50           1630          41.00       144.29
  321.91        2980.75           1633          51.00       187.88
  321.94        2981.00           1637          49.00       179.16
  321.97        2981.25           1640          49.00       179.16
  322.00        2981.50           1643          47.00       170.45
  322.03        2981.75           1647          45.00       161.73
  322.06        2982.00           1650          59.00       222.76
  322.09        2982.25           1653          48.00       174.80
  322.12        2982.50           1657          49.00       179.16
  322.15        2982.75           1660          45.00       161.73
  322.19        2983.00           1663          59.00       222.76
  322.22        2983.25           1667          49.00       179.16
  322.25        2983.50           1670          49.00       179.16
  322.28        2983.75           1673          50.00       183.52
  322.31        2984.00           1677          55.00       205.32
HS scan finished at 05:22:32
end
************************************************************
  HS Scan of (1) Internal mercury lamp
************************************************************
Integration time is 0.2294 seconds per sample
dh131218Manchester 53.47 2.23 2.804185pr1000
************************************************************
Dead Time -------------------------  3E-08 
Number of Cycles Used -------------  4 
Starting Wavelength (Angstroms) ---  2950 
Final Wavelength (Angstoms) -------  2984 
Wavelength Increment (Angstroms) --  .25 
Filter Wheel #1 Position ---------- (1) Ground quartz diffuser (ND=2.32)
Filter Wheel #2 Position ---------- (1) Neutral Density 0.494



************************************************************
HS scan start time = 16:42:05
Dark Count =  6.4 


Time (GMT)  Wavelength (Ang)  Step Number  Raw Counts  Counts/Second

 1002.45        2950.00           1222          57.00       220.58
 1002.52        2950.25           1226          58.00       224.94
 1002.55        2950.50           1229          59.00       229.30
 1002.58        2950.75           1232          58.00       224.94
 1002.61        2951.00           1236          52.00       198.78
 1002.64        2951.25           1239          56.00       216.22
 1002.67        2951.50           1242          58.00       224.94
 1002.70        2951.75           1246          47.00       176.98
 1002.73        2952.00           1249          57.00       220.58
 1002.76        2952.25           1252          63.00       246.73
 1002.80        2952.50           1256          59.00       229.30
 1002.83        2952.75           1259          50.00       190.06
 1002.86        2953.00           1262          58.00       224.94
 1002.89        2953.25           1266          51.00       194.42
 1002.92        2953.50           1269          63.00       246.73
 1002.95        2953.75           1272          55.00       211.86
 1002.98        2954.00           1276          61.00       238.01
 1003.01        2954.25           1279          57.00       220.58
 1003.04        2954.50           1282          51.00       194.42
 1003.07        2954.75           1286          57.00       220.58
 1003.10        2955.00           1289          56.00       216.22
 1003.13        2955.25           1292          58.00       224.94
 1003.16        2955.50           1296          56.00       216.22
 1003.20        2955.75           1299          52.00       198.78
 1003.23        2956.00           1302          57.00       220.58
 1003.26        2956.25           1306          50.00       190.06
 1003.29        2956.50           1309          45.00       168.27
 1003.32        2956.75           1312          62.00       242.37
 1003.35        2957.00           1316          67.00       264.17
 1003.38        2957.25           1319          56.00       216.22
 1003.41        2957.50           1322          50.00       190.06
 1003.44        2957.75           1326          53.00       203.14
 1003.47        2958.00           1329          57.00       220.58
 1003.50        2958.25           1332          55.00       211.86
 1003.53        2958.50           1336          58.00       224.94
 1003.56        2958.75           1339          65.00       255.45
 1003.59        2959.00           1342          54.00       207.50
 1003.62        2959.25           1346          55.00       211.86
 1003.65        2959.50           1349          64.00       251.09
 1003.69        2959.75           1352          69.00       272.89
 1003.72        2960.00           1356          84.00       338.28
 1003.75        2960.25           1359         108.00       442.90
 1003.78        2960.50           1362         141.00       586.76
 1003.81        2960.75           1366         178.00       748.06
 1003.84        2961.00           1369         220.00       931.15
 1003.87        2961.25           1372         235.00       996.54
 1003.90        2961.50           1376         295.00      1258.11
 1003.93        2961.75           1379         404.00      1733.31
 1003.96        2962.00           1382         794.00      3433.66
 1004.00        2962.25           1386        1978.00      8596.81
 1004.03        2962.50           1389        3068.00     13351.47
 1004.06        2962.75           1392        4235.00     18443.51
 1004.09        2963.00           1396        5688.00     24785.65
 1004.12        2963.25           1399        6789.00     29592.96
 1004.15        2963.50           1402        8078.00     35222.90
 1004.18        2963.75           1406        9650.00     42091.48
 1004.21        2964.00           1409       10955.00     47795.60
 1004.24        2964.25           1412       12180.00     53151.82
 1004.27        2964.50           1416       13622.00     59459.07
 1004.31        2964.75           1419       14778.00     64517.08
 1004.34        2965.00           1422       15993.00     69834.91
 1004.37        2965.25           1426       17524.00     76538.24
 1004.40        2965.50           1429       18697.00     81675.91
 1004.43        2965.75           1432       19767.00     86363.84
 1004.46        2966.00           1436       21441.00     93700.69
 1004.49        2966.25           1439       22653.00     99014.69
 1004.52        2966.50           1442       23734.00    103755.80
 1004.55        2966.75           1446       25134.00    109897.90
 1004.58        2967.00           1449       25513.00    111561.10
 1004.62        2967.25           1452       25471.00    111376.80
 1004.65        2967.50           1456       25380.00    110977.40
 1004.68        2967.75           1459       25550.00    111723.50
 1004.71        2968.00           1462       25346.00    110828.20
 1004.74        2968.25           1466       24867.00    108726.40
 1004.77        2968.50           1469       24034.00    105071.70
 1004.80        2968.75           1472       22805.00     99681.25
 1004.83        2969.00           1476       21397.00     93507.81
 1004.86        2969.25           1479       20282.00     88620.65
 1004.89        2969.50           1482       19030.00     83134.73
 1004.93        2969.75           1486       17336.00     75714.95
 1004.96        2970.00           1489       16223.00     70841.77
 1004.99        2970.25           1492       15193.00     66333.28
 1005.02        2970.50           1496       13520.00     59012.84
 1005.05        2970.75           1499       12548.00     54761.21
 1005.08        2971.00           1502       11404.00     49758.62
 1005.11        2971.25           1506        9932.00     43323.93
 1005.14        2971.50           1509        8713.00     37997.08
 1005.17        2971.75           1513        7119.00     31034.11
 1005.20        2972.00           1516        5917.00     25785.42
 1005.24        2972.25           1519        4717.00     20547.10
 1005.27        2972.50           1523        3177.00     13827.01
 1005.30        2972.75           1526        1969.00      8557.56
 1005.33        2973.00           1529         941.00      4074.60
 1005.36        2973.25           1533         375.00      1606.88
 1005.39        2973.50           1536         261.00      1109.89
 1005.42        2973.75           1539         226.00       957.31
 1005.45        2974.00           1543         198.00       835.24
 1005.48        2974.25           1546         156.00       652.15
 1005.51        2974.50           1549         127.00       525.73
 1005.54        2974.75           1553          96.00       390.59
 1005.57        2975.00           1556          75.00       299.04
 1005.61        2975.25           1559          61.00       238.01
 1005.64        2975.50           1563          58.00       224.94
 1005.67        2975.75           1566          49.00       185.70
 1005.70        2976.00           1569          53.00       203.14
 1005.73        2976.25           1573          59.00       229.30
 1005.76        2976.50           1576          53.00       203.14
 1005.79        2976.75           1579          51.00       194.42
 1005.82        2977.00           1583          54.00       207.50
 1005.85        2977.25           1586          52.00       198.78
 1005.88        2977.50           1590          55.00       211.86
 1005.91        2977.75           1593          50.00       190.06
 1005.94        2978.00           1596          54.00       207.50
 1005.97        2978.25           1600          51.00       194.42
 1006.01        2978.50           1603          57.00       220.58
 1006.04        2978.75           1606          55.00       211.86
 1006.07        2979.00           1610          53.00       203.14
 1006.10        2979.25           1613          51.00       194.42
 1006.13        2979.50           1616          52.00       198.78
 1006.16        2979.75           1620          52.00       198.78
 1006.19        2980.00           1623          49.00       185.70
 1006.22        2980.25           1626          47.00       176.98
 1006.25        2980.50           1630          44.00       163.91
 1006.28        2980.75           1633          48.00       181.34
 1006.31        2981.00           1637          48.00       181.34
 1006.35        2981.25           1640          61.00       238.01
 1006.38        2981.50           1643          49.00       185.70
 1006.41        2981.75           1647          50.00       190.06
 1006.44        2982.00           1650          50.00       190.06
 1006.47        2982.25           1653          47.00       176.98
 1006.50        2982.50           1657          50.00       190.06
 1006.53        2982.75           1660          48.00       181.34
 1006.56        2983.00           1663          46.00       172.63
 1006.59        2983.25           1667          44.00       163.91
 1006.62        2983.50           1670          46.00       172.63
 1006.65        2983.75           1673          47.00       176.98
 1006.69        2984.00           1677          46.00       172.63
HS scan finished at 16:46:54
end
