************************************************************
  HS Scan of (1) Internal mercury lamp
************************************************************
Integration time is 0.2294 seconds per sample
dh151218Manchester 53.47 2.23 2.750537pr1000
************************************************************
Dead Time -------------------------  3E-08 
Number of Cycles Used -------------  4 
Starting Wavelength (Angstroms) ---  2950 
Final Wavelength (Angstoms) -------  2984 
Wavelength Increment (Angstroms) --  .25 
Filter Wheel #1 Position ---------- (1) Ground quartz diffuser (ND=2.32)
Filter Wheel #2 Position ---------- (1) Neutral Density 0.494



************************************************************
HS scan start time = 05:19:14
Dark Count =  6.3 


Time (GMT)  Wavelength (Ang)  Step Number  Raw Counts  Counts/Second

  319.61        2950.00           1222          61.00       238.45
  319.68        2950.25           1226          52.00       199.22
  319.71        2950.50           1229          55.00       212.29
  319.74        2950.75           1232          55.00       212.29
  319.77        2951.00           1236          54.00       207.94
  319.80        2951.25           1239          56.00       216.65
  319.83        2951.50           1242          53.00       203.58
  319.86        2951.75           1246          56.00       216.65
  319.89        2952.00           1249          51.00       194.86
  319.92        2952.25           1252          53.00       203.58
  319.95        2952.50           1256          50.00       190.50
  319.98        2952.75           1259          60.00       234.09
  320.01        2953.00           1262          51.00       194.86
  320.04        2953.25           1266          46.00       173.06
  320.08        2953.50           1269          49.00       186.14
  320.11        2953.75           1272          53.00       203.58
  320.14        2954.00           1276          48.00       181.78
  320.17        2954.25           1279          60.00       234.09
  320.20        2954.50           1282          44.00       164.34
  320.23        2954.75           1286          56.00       216.65
  320.26        2955.00           1289          60.00       234.09
  320.29        2955.25           1292          57.00       221.01
  320.32        2955.50           1296          49.00       186.14
  320.35        2955.75           1299          60.00       234.09
  320.38        2956.00           1302          58.00       225.37
  320.41        2956.25           1306          54.00       207.94
  320.44        2956.50           1309          49.00       186.14
  320.47        2956.75           1312          58.00       225.37
  320.50        2957.00           1316          52.00       199.22
  320.53        2957.25           1319          62.00       242.81
  320.56        2957.50           1322          55.00       212.29
  320.59        2957.75           1326          54.00       207.94
  320.63        2958.00           1329          57.00       221.01
  320.66        2958.25           1332          58.00       225.37
  320.69        2958.50           1336          58.00       225.37
  320.72        2958.75           1339          53.00       203.58
  320.75        2959.00           1342          61.00       238.45
  320.78        2959.25           1346          51.00       194.86
  320.81        2959.50           1349          64.00       251.53
  320.84        2959.75           1352          66.00       260.25
  320.87        2960.00           1356          95.00       386.67
  320.90        2960.25           1359         128.00       530.52
  320.93        2960.50           1362         152.00       635.15
  320.96        2960.75           1366         198.00       835.68
  321.00        2961.00           1369         211.00       892.35
  321.03        2961.25           1372         264.00      1123.40
  321.06        2961.50           1376         297.00      1267.27
  321.09        2961.75           1379         394.00      1690.15
  321.12        2962.00           1382         807.00      3490.78
  321.15        2962.25           1386        2003.00      8706.28
  321.18        2962.50           1389        3100.00     13491.51
  321.21        2962.75           1392        4243.00     18478.86
  321.24        2963.00           1396        5792.00     25240.12
  321.27        2963.25           1399        6919.00     30161.11
  321.30        2963.50           1402        8037.00     35044.24
  321.33        2963.75           1406        9477.00     41335.88
  321.36        2964.00           1409       10841.00     47297.67
  321.40        2964.25           1412       12178.00     53143.51
  321.43        2964.50           1416       13886.00     60614.49
  321.46        2964.75           1419       14948.00     65261.48
  321.49        2965.00           1422       16151.00     70527.01
  321.52        2965.25           1426       17584.00     76801.43
  321.55        2965.50           1429       18785.00     82061.85
  321.58        2965.75           1432       20015.00     87451.02
  321.61        2966.00           1436       21570.00     94266.65
  321.65        2966.25           1439       22629.00     98909.88
  321.68        2966.50           1442       23706.00    103633.40
  321.71        2966.75           1446       25052.00    109538.50
  321.74        2967.00           1449       25415.00    111131.50
  321.77        2967.25           1452       25587.00    111886.30
  321.80        2967.50           1456       25563.00    111780.90
  321.83        2967.75           1459       25561.00    111772.20
  321.86        2968.00           1462       25557.00    111754.60
  321.89        2968.25           1466       24993.00    109279.60
  321.93        2968.50           1469       24179.00    105708.30
  321.96        2968.75           1472       23135.00    101128.90
  321.99        2969.00           1476       21459.00     93780.03
  322.02        2969.25           1479       20394.00     89111.93
  322.05        2969.50           1482       19269.00     84182.25
  322.08        2969.75           1486       17526.00     76547.43
  322.11        2970.00           1489       16434.00     71765.94
  322.14        2970.25           1492       15187.00     66307.45
  322.17        2970.50           1496       13698.00     59791.99
  322.20        2970.75           1499       12431.00     54249.95
  322.23        2971.00           1502       11352.00     49531.70
  322.27        2971.25           1506        9808.00     42782.42
  322.30        2971.50           1509        8468.00     36927.11
  322.33        2971.75           1513        7152.00     31178.67
  322.36        2972.00           1516        5866.00     25563.19
  322.39        2972.25           1519        4750.00     20691.57
  322.42        2972.50           1523        3086.00     13430.43
  322.45        2972.75           1526        1940.00      8431.51
  322.48        2973.00           1529         956.00      4140.44
  322.51        2973.25           1533         360.00      1541.92
  322.54        2973.50           1536         253.00      1075.45
  322.57        2973.75           1539         211.00       892.35
  322.60        2974.00           1543         175.00       735.41
  322.64        2974.25           1546         131.00       543.60
  322.67        2974.50           1549         113.00       465.13
  322.70        2974.75           1553          75.00       299.48
  322.73        2975.00           1556          70.00       277.68
  322.76        2975.25           1559          64.00       251.53
  322.79        2975.50           1563          51.00       194.86
  322.82        2975.75           1566          47.00       177.42
  322.85        2976.00           1569          57.00       221.01
  322.88        2976.25           1573          51.00       194.86
  322.91        2976.50           1576          48.00       181.78
  322.94        2976.75           1579          49.00       186.14
  322.97        2977.00           1583          52.00       199.22
  323.00        2977.25           1586          54.00       207.94
  323.03        2977.50           1590          49.00       186.14
  323.06        2977.75           1593          51.00       194.86
  323.10        2978.00           1596          53.00       203.58
  323.13        2978.25           1600          52.00       199.22
  323.16        2978.50           1603          49.00       186.14
  323.19        2978.75           1606          50.00       190.50
  323.22        2979.00           1610          45.00       168.70
  323.25        2979.25           1613          54.00       207.94
  323.28        2979.50           1616          50.00       190.50
  323.31        2979.75           1620          50.00       190.50
  323.34        2980.00           1623          52.00       199.22
  323.37        2980.25           1626          50.00       190.50
  323.40        2980.50           1630          59.00       229.73
  323.43        2980.75           1633          52.00       199.22
  323.47        2981.00           1637          61.00       238.45
  323.50        2981.25           1640          45.00       168.70
  323.53        2981.50           1643          51.00       194.86
  323.56        2981.75           1647          50.00       190.50
  323.59        2982.00           1650          43.00       159.98
  323.62        2982.25           1653          49.00       186.14
  323.65        2982.50           1657          46.00       173.06
  323.68        2982.75           1660          46.00       173.06
  323.71        2983.00           1663          56.00       216.65
  323.74        2983.25           1667          50.00       190.50
  323.77        2983.50           1670          61.00       238.45
  323.80        2983.75           1673          56.00       216.65
  323.83        2984.00           1677          49.00       186.14
HS scan finished at 05:24:03
end
************************************************************
  HS Scan of (1) Internal mercury lamp
************************************************************
Integration time is 0.2294 seconds per sample
dh151218Manchester 53.47 2.23 2.750537pr1000
************************************************************
Dead Time -------------------------  3E-08 
Number of Cycles Used -------------  4 
Starting Wavelength (Angstroms) ---  2950 
Final Wavelength (Angstoms) -------  2984 
Wavelength Increment (Angstroms) --  .25 
Filter Wheel #1 Position ---------- (1) Ground quartz diffuser (ND=2.32)
Filter Wheel #2 Position ---------- (1) Neutral Density 0.494



************************************************************
HS scan start time = 16:42:05
Dark Count =  4.9 


Time (GMT)  Wavelength (Ang)  Step Number  Raw Counts  Counts/Second

 1002.46        2950.00           1222          57.00       227.12
 1002.53        2950.25           1226          59.00       235.83
 1002.56        2950.50           1229          57.00       227.12
 1002.59        2950.75           1232          57.00       227.12
 1002.62        2951.00           1236          53.00       209.68
 1002.65        2951.25           1239          51.00       200.96
 1002.68        2951.50           1242          52.00       205.32
 1002.71        2951.75           1246          55.00       218.40
 1002.74        2952.00           1249          54.00       214.04
 1002.77        2952.25           1252          73.00       296.86
 1002.80        2952.50           1256          57.00       227.12
 1002.84        2952.75           1259          52.00       205.32
 1002.87        2953.00           1262          57.00       227.12
 1002.90        2953.25           1266          55.00       218.40
 1002.93        2953.50           1269          56.00       222.76
 1002.96        2953.75           1272          59.00       235.83
 1002.99        2954.00           1276          58.00       231.48
 1003.02        2954.25           1279          51.00       200.96
 1003.05        2954.50           1282          53.00       209.68
 1003.08        2954.75           1286          57.00       227.12
 1003.11        2955.00           1289          48.00       187.88
 1003.14        2955.25           1292          51.00       200.96
 1003.17        2955.50           1296          56.00       222.76
 1003.20        2955.75           1299          55.00       218.40
 1003.23        2956.00           1302          56.00       222.76
 1003.27        2956.25           1306          54.00       214.04
 1003.30        2956.50           1309          57.00       227.12
 1003.33        2956.75           1312          45.00       174.80
 1003.36        2957.00           1316          56.00       222.76
 1003.39        2957.25           1319          55.00       218.40
 1003.42        2957.50           1322          53.00       209.68
 1003.45        2957.75           1326          55.00       218.40
 1003.48        2958.00           1329          57.00       227.12
 1003.51        2958.25           1332          61.00       244.55
 1003.54        2958.50           1336          55.00       218.40
 1003.57        2958.75           1339          59.00       235.83
 1003.60        2959.00           1342          58.00       231.48
 1003.64        2959.25           1346          62.00       248.91
 1003.67        2959.50           1349          58.00       231.48
 1003.70        2959.75           1352          66.00       266.35
 1003.73        2960.00           1356         102.00       423.28
 1003.76        2960.25           1359         125.00       523.55
 1003.79        2960.50           1362         132.00       554.06
 1003.82        2960.75           1366         189.00       802.55
 1003.85        2961.00           1369         204.00       867.94
 1003.88        2961.25           1372         241.00      1029.24
 1003.91        2961.50           1376         308.00      1321.33
 1003.94        2961.75           1379         418.00      1800.88
 1003.97        2962.00           1382         913.00      3959.06
 1004.01        2962.25           1386        2150.00      9353.54
 1004.04        2962.50           1389        3176.00     13829.19
 1004.07        2962.75           1392        4415.00     19235.60
 1004.10        2963.00           1396        5865.00     25564.94
 1004.13        2963.25           1399        6994.00     30494.76
 1004.16        2963.50           1402        8296.00     36181.80
 1004.19        2963.75           1406       10003.00     43640.80
 1004.22        2964.00           1409       11263.00     49148.70
 1004.25        2964.25           1412       12460.00     54382.90
 1004.28        2964.50           1416       13888.00     60629.36
 1004.32        2964.75           1419       15111.00     65980.96
 1004.35        2965.00           1422       16150.00     70528.76
 1004.38        2965.25           1426       17926.00     78305.36
 1004.41        2965.50           1429       19116.00     83518.06
 1004.44        2965.75           1432       20237.00     88430.02
 1004.47        2966.00           1436       21792.00     95246.05
 1004.50        2966.25           1439       23020.00    100630.70
 1004.53        2966.50           1442       24093.00    105337.20
 1004.56        2966.75           1446       25059.00    109575.40
 1004.60        2967.00           1449       25483.00    111436.00
 1004.63        2967.25           1452       25328.00    110755.80
 1004.66        2967.50           1456       25391.00    111032.30
 1004.69        2967.75           1459       25195.00    110172.20
 1004.72        2968.00           1462       25149.00    109970.30
 1004.75        2968.25           1466       24576.00    107456.10
 1004.78        2968.50           1469       23584.00    103104.40
 1004.81        2968.75           1472       22613.00     98845.86
 1004.84        2969.00           1476       21097.00     92199.31
 1004.88        2969.25           1479       19909.00     86992.65
 1004.91        2969.50           1482       18604.00     81275.08
 1004.94        2969.75           1486       16905.00     73834.25
 1004.97        2970.00           1489       15833.00     69141.09
 1005.00        2970.25           1492       14724.00     64287.34
 1005.03        2970.50           1496       13282.00     57978.26
 1005.06        2970.75           1499       12001.00     52375.61
 1005.09        2971.00           1502       10910.00     47605.43
 1005.12        2971.25           1506        9376.00     40900.63
 1005.16        2971.50           1509        8335.00     36352.18
 1005.19        2971.75           1513        6853.00     29879.00
 1005.22        2972.00           1516        5711.00     24892.60
 1005.25        2972.25           1519        4516.00     19676.39
 1005.28        2972.50           1523        2970.00     12930.47
 1005.31        2972.75           1526        1749.00      7604.61
 1005.34        2973.00           1529         787.00      3409.68
 1005.37        2973.25           1533         354.00      1521.87
 1005.40        2973.50           1536         253.00      1081.55
 1005.43        2973.75           1539         221.00       942.05
 1005.46        2974.00           1543         178.00       754.59
 1005.49        2974.25           1546         142.00       597.66
 1005.53        2974.50           1549         107.00       445.08
 1005.56        2974.75           1553          77.00       314.30
 1005.59        2975.00           1556          72.00       292.50
 1005.62        2975.25           1559          51.00       200.96
 1005.65        2975.50           1563          60.00       240.19
 1005.68        2975.75           1566          52.00       205.32
 1005.71        2976.00           1569          54.00       214.04
 1005.74        2976.25           1573          51.00       200.96
 1005.77        2976.50           1576          61.00       244.55
 1005.80        2976.75           1579          52.00       205.32
 1005.83        2977.00           1583          54.00       214.04
 1005.87        2977.25           1586          49.00       192.24
 1005.90        2977.50           1590          57.00       227.12
 1005.93        2977.75           1593          51.00       200.96
 1005.96        2978.00           1596          44.00       170.45
 1005.99        2978.25           1600          51.00       200.96
 1006.02        2978.50           1603          49.00       192.24
 1006.05        2978.75           1606          47.00       183.52
 1006.08        2979.00           1610          45.00       174.80
 1006.11        2979.25           1613          50.00       196.60
 1006.14        2979.50           1616          46.00       179.16
 1006.17        2979.75           1620          51.00       200.96
 1006.21        2980.00           1623          50.00       196.60
 1006.24        2980.25           1626          57.00       227.12
 1006.27        2980.50           1630          53.00       209.68
 1006.30        2980.75           1633          48.00       187.88
 1006.33        2981.00           1637          49.00       192.24
 1006.36        2981.25           1640          50.00       196.60
 1006.39        2981.50           1643          54.00       214.04
 1006.42        2981.75           1647          53.00       209.68
 1006.45        2982.00           1650          57.00       227.12
 1006.48        2982.25           1653          53.00       209.68
 1006.51        2982.50           1657          55.00       218.40
 1006.54        2982.75           1660          47.00       183.52
 1006.57        2983.00           1663          52.00       205.32
 1006.61        2983.25           1667          44.00       170.45
 1006.64        2983.50           1670          50.00       196.60
 1006.67        2983.75           1673          54.00       214.04
 1006.70        2984.00           1677          48.00       187.88
HS scan finished at 16:46:55
end
