************************************************************
  HS Scan of (1) Internal mercury lamp
************************************************************
Integration time is 0.2294 seconds per sample
dh091217Manchester 53.47 2.23 2.750537pr1000
************************************************************
Dead Time -------------------------  3E-08 
Number of Cycles Used -------------  4 
Starting Wavelength (Angstroms) ---  2950 
Final Wavelength (Angstoms) -------  2984 
Wavelength Increment (Angstroms) --  .25 
Filter Wheel #1 Position ---------- (1) Ground quartz diffuser (ND=2.32)
Filter Wheel #2 Position ---------- (1) Neutral Density 0.494



************************************************************
HS scan start time = 05:14:21
Dark Count =  6.2 


Time (GMT)  Wavelength (Ang)  Step Number  Raw Counts  Counts/Second

  314.72        2950.00           1222          62.00       243.25
  314.79        2950.25           1226          69.00       273.76
  314.82        2950.50           1229          69.00       273.76
  314.85        2950.75           1232          61.00       238.89
  314.88        2951.00           1236          67.00       265.04
  314.91        2951.25           1239          59.00       230.17
  314.94        2951.50           1242          65.00       256.32
  314.97        2951.75           1246          62.00       243.25
  315.00        2952.00           1249          65.00       256.32
  315.03        2952.25           1252          70.00       278.12
  315.07        2952.50           1256          70.00       278.12
  315.10        2952.75           1259          61.00       238.89
  315.13        2953.00           1262          63.00       247.60
  315.16        2953.25           1266          62.00       243.25
  315.19        2953.50           1269          61.00       238.89
  315.22        2953.75           1272          71.00       282.48
  315.25        2954.00           1276          61.00       238.89
  315.28        2954.25           1279          69.00       273.76
  315.31        2954.50           1282          63.00       247.60
  315.34        2954.75           1286          64.00       251.96
  315.37        2955.00           1289          66.00       260.68
  315.40        2955.25           1292          65.00       256.32
  315.43        2955.50           1296          69.00       273.76
  315.47        2955.75           1299          64.00       251.96
  315.50        2956.00           1302          71.00       282.48
  315.53        2956.25           1306          59.00       230.17
  315.56        2956.50           1309          69.00       273.76
  315.59        2956.75           1312          65.00       256.32
  315.62        2957.00           1316          58.00       225.81
  315.65        2957.25           1319          75.00       299.92
  315.68        2957.50           1322          69.00       273.76
  315.71        2957.75           1326          69.00       273.76
  315.74        2958.00           1329          68.00       269.40
  315.77        2958.25           1332          63.00       247.60
  315.80        2958.50           1336          63.00       247.60
  315.83        2958.75           1339          66.00       260.68
  315.86        2959.00           1342          67.00       265.04
  315.90        2959.25           1346          72.00       286.84
  315.93        2959.50           1349          87.00       352.23
  315.96        2959.75           1352          90.00       365.30
  315.99        2960.00           1356         109.00       448.13
  316.02        2960.25           1359         145.00       605.07
  316.05        2960.50           1362         183.00       770.72
  316.08        2960.75           1366         242.00      1027.93
  316.11        2961.00           1369         271.00      1154.36
  316.14        2961.25           1372         298.00      1272.06
  316.17        2961.50           1376         366.00      1568.51
  316.20        2961.75           1379         487.00      2096.03
  316.23        2962.00           1382         896.00      3879.27
  316.26        2962.25           1386        2383.00     10364.17
  316.29        2962.50           1389        3795.00     16524.32
  316.32        2962.75           1392        5215.00     22721.67
  316.36        2963.00           1396        7142.00     31135.43
  316.39        2963.25           1399        8650.00     37722.70
  316.42        2963.50           1402       10144.00     44251.39
  316.45        2963.75           1406       12161.00     53069.60
  316.48        2964.00           1409       13779.00     60146.80
  316.51        2964.25           1412       15426.00     67353.91
  316.54        2964.50           1416       17390.00     75952.30
  316.57        2964.75           1419       19204.00     83897.91
  316.60        2965.00           1422       20771.00     90764.69
  316.63        2965.25           1426       22711.00     99269.91
  316.66        2965.50           1429       24261.00    106068.50
  316.70        2965.75           1432       25797.00    112808.30
  316.73        2966.00           1436       27807.00    121632.20
  316.76        2966.25           1439       29218.00    127829.30
  316.79        2966.50           1442       30693.00    134309.90
  316.82        2966.75           1446       32291.00    141333.80
  316.85        2967.00           1449       32852.00    143800.40
  316.88        2967.25           1452       32880.00    143923.50
  316.91        2967.50           1456       33359.00    146029.80
  316.94        2967.75           1459       33206.00    145357.00
  316.97        2968.00           1462       33000.00    144451.10
  317.01        2968.25           1466       32242.00    141118.40
  317.04        2968.50           1469       30887.00    135162.50
  317.07        2968.75           1472       29394.00    128602.40
  317.10        2969.00           1476       27451.00    120069.00
  317.13        2969.25           1479       26145.00    114335.70
  317.16        2969.50           1482       24493.00    107086.30
  317.19        2969.75           1486       22511.00     98392.89
  317.22        2970.00           1489       21051.00     91991.99
  317.25        2970.25           1492       19557.00     85444.55
  317.29        2970.50           1496       17452.00     76223.81
  317.32        2970.75           1499       15883.00     69354.27
  317.35        2971.00           1502       14298.00     62417.56
  317.38        2971.25           1506       12304.00     53694.97
  317.41        2971.50           1509       10644.00     46436.92
  317.44        2971.75           1513        8761.00     38207.68
  317.47        2972.00           1516        7202.00     31397.48
  317.50        2972.25           1519        5774.00     25161.97
  317.53        2972.50           1523        3861.00     16812.31
  317.56        2972.75           1526        2433.00     10582.26
  317.59        2973.00           1529        1135.00      4921.39
  317.62        2973.25           1533         463.00      1991.40
  317.65        2973.50           1536         328.00      1402.85
  317.68        2973.75           1539         307.00      1311.30
  317.72        2974.00           1543         242.00      1027.93
  317.75        2974.25           1546         183.00       770.72
  317.78        2974.50           1549         139.00       578.91
  317.81        2974.75           1553         106.00       435.05
  317.84        2975.00           1556          82.00       330.43
  317.87        2975.25           1559          71.00       282.48
  317.90        2975.50           1563          56.00       217.09
  317.93        2975.75           1566          66.00       260.68
  317.96        2976.00           1569          55.00       212.73
  317.99        2976.25           1573          67.00       265.04
  318.03        2976.50           1576          58.00       225.81
  318.06        2976.75           1579          55.00       212.73
  318.09        2977.00           1583          60.00       234.53
  318.12        2977.25           1586          68.00       269.40
  318.15        2977.50           1590          62.00       243.25
  318.18        2977.75           1593          61.00       238.89
  318.21        2978.00           1596          51.00       195.29
  318.24        2978.25           1600          58.00       225.81
  318.27        2978.50           1603          59.00       230.17
  318.30        2978.75           1606          71.00       282.48
  318.34        2979.00           1610          55.00       212.73
  318.37        2979.25           1613          54.00       208.37
  318.40        2979.50           1616          60.00       234.53
  318.43        2979.75           1620          66.00       260.68
  318.46        2980.00           1623          57.00       221.45
  318.49        2980.25           1626          52.00       199.65
  318.52        2980.50           1630          53.00       204.01
  318.55        2980.75           1633          64.00       251.96
  318.58        2981.00           1637          56.00       217.09
  318.61        2981.25           1640          56.00       217.09
  318.64        2981.50           1643          57.00       221.45
  318.67        2981.75           1647          59.00       230.17
  318.70        2982.00           1650          59.00       230.17
  318.74        2982.25           1653          58.00       225.81
  318.77        2982.50           1657          69.00       273.76
  318.80        2982.75           1660          57.00       221.45
  318.83        2983.00           1663          54.00       208.37
  318.86        2983.25           1667          59.00       230.17
  318.89        2983.50           1670          56.00       217.09
  318.92        2983.75           1673          57.00       221.45
  318.95        2984.00           1677          59.00       230.17
HS scan finished at 05:19:10
end
************************************************************
  HS Scan of (1) Internal mercury lamp
************************************************************
Integration time is 0.2294 seconds per sample
dh091217Manchester 53.47 2.23 2.750537pr1000
************************************************************
Dead Time -------------------------  3E-08 
Number of Cycles Used -------------  4 
Starting Wavelength (Angstroms) ---  2950 
Final Wavelength (Angstoms) -------  2984 
Wavelength Increment (Angstroms) --  .25 
Filter Wheel #1 Position ---------- (1) Ground quartz diffuser (ND=2.32)
Filter Wheel #2 Position ---------- (1) Neutral Density 0.494



************************************************************
HS scan start time = 16:42:01
Dark Count =  4.6 


Time (GMT)  Wavelength (Ang)  Step Number  Raw Counts  Counts/Second

 1002.39        2950.00           1222          64.00       258.94
 1002.46        2950.25           1226          72.00       293.81
 1002.49        2950.50           1229          81.00       333.05
 1002.52        2950.75           1232          64.00       258.94
 1002.55        2951.00           1236          54.00       215.35
 1002.58        2951.25           1239          60.00       241.50
 1002.61        2951.50           1242          66.00       267.66
 1002.64        2951.75           1246          64.00       258.94
 1002.67        2952.00           1249          59.00       237.14
 1002.70        2952.25           1252          61.00       245.86
 1002.73        2952.50           1256          69.00       280.73
 1002.76        2952.75           1259          68.00       276.38
 1002.80        2953.00           1262          60.00       241.50
 1002.83        2953.25           1266          56.00       224.06
 1002.86        2953.50           1269          69.00       280.73
 1002.89        2953.75           1272          64.00       258.94
 1002.92        2954.00           1276          69.00       280.73
 1002.95        2954.25           1279          67.00       272.02
 1002.98        2954.50           1282          65.00       263.30
 1003.01        2954.75           1286          61.00       245.86
 1003.04        2955.00           1289          67.00       272.02
 1003.07        2955.25           1292          65.00       263.30
 1003.10        2955.50           1296          61.00       245.86
 1003.13        2955.75           1299          61.00       245.86
 1003.16        2956.00           1302          68.00       276.38
 1003.19        2956.25           1306          70.00       285.09
 1003.23        2956.50           1309          64.00       258.94
 1003.26        2956.75           1312          66.00       267.66
 1003.29        2957.00           1316          61.00       245.86
 1003.32        2957.25           1319          61.00       245.86
 1003.35        2957.50           1322          65.00       263.30
 1003.38        2957.75           1326          73.00       298.17
 1003.41        2958.00           1329          59.00       237.14
 1003.44        2958.25           1332          63.00       254.58
 1003.47        2958.50           1336          60.00       241.50
 1003.50        2958.75           1339          64.00       258.94
 1003.53        2959.00           1342          64.00       258.94
 1003.56        2959.25           1346          74.00       302.53
 1003.59        2959.50           1349          79.00       324.33
 1003.62        2959.75           1352         101.00       420.23
 1003.66        2960.00           1356         151.00       638.20
 1003.69        2960.25           1359         164.00       694.87
 1003.72        2960.50           1362         216.00       921.56
 1003.75        2960.75           1366         271.00      1161.33
 1003.78        2961.00           1369         309.00      1326.99
 1003.81        2961.25           1372         338.00      1453.42
 1003.84        2961.50           1376         401.00      1728.08
 1003.87        2961.75           1379         499.00      2155.33
 1003.90        2962.00           1382         867.00      3759.80
 1003.94        2962.25           1386        2173.00      9455.17
 1003.97        2962.50           1389        3654.00     15916.05
 1004.00        2962.75           1392        5113.00     22283.42
 1004.03        2963.00           1396        7165.00     31242.87
 1004.06        2963.25           1399        8641.00     37690.37
 1004.09        2963.50           1402       10094.00     44039.84
 1004.12        2963.75           1406       12298.00     53675.73
 1004.15        2964.00           1409       13799.00     60241.30
 1004.18        2964.25           1412       15325.00     66918.87
 1004.22        2964.50           1416       17349.00     75779.76
 1004.25        2964.75           1419       18771.00     82007.96
 1004.28        2965.00           1422       20252.00     88497.07
 1004.31        2965.25           1426       22403.00     97926.33
 1004.34        2965.50           1429       24146.00    105571.00
 1004.37        2965.75           1432       25764.00    112670.50
 1004.40        2966.00           1436       27655.00    120971.80
 1004.43        2966.25           1439       29024.00    126984.20
 1004.46        2966.50           1442       30551.00    133692.90
 1004.49        2966.75           1446       32093.00    140470.40
 1004.52        2967.00           1449       32870.00    143886.50
 1004.56        2967.25           1452       33062.00    144730.80
 1004.59        2967.50           1456       32881.00    143934.90
 1004.62        2967.75           1459       33055.00    144700.00
 1004.65        2968.00           1462       32891.00    143978.90
 1004.68        2968.25           1466       32334.00    141529.90
 1004.71        2968.50           1469       31280.00    136896.70
 1004.74        2968.75           1472       29914.00    130894.00
 1004.77        2969.00           1476       27870.00    121915.90
 1004.80        2969.25           1479       26254.00    114821.20
 1004.83        2969.50           1482       24613.00    107619.80
 1004.87        2969.75           1486       22630.00     98921.72
 1004.90        2970.00           1489       21274.00     92976.51
 1004.93        2970.25           1492       19705.00     86100.06
 1004.96        2970.50           1496       17792.00     77719.80
 1004.99        2970.75           1499       16326.00     71300.57
 1005.02        2971.00           1502       14888.00     65006.34
 1005.05        2971.25           1506       12924.00     56413.62
 1005.08        2971.50           1509       11469.00     50050.69
 1005.11        2971.75           1513        9311.00     40617.91
 1005.15        2972.00           1516        7672.00     33457.28
 1005.18        2972.25           1519        6142.00     26775.64
 1005.21        2972.50           1523        4276.00     18630.29
 1005.24        2972.75           1526        2838.00     12355.93
 1005.27        2973.00           1529        1545.00      6716.26
 1005.30        2973.25           1533         485.00      2094.29
 1005.33        2973.50           1536         329.00      1414.18
 1005.36        2973.75           1539         243.00      1039.27
 1005.39        2974.00           1543         204.00       869.25
 1005.43        2974.25           1546         152.00       642.56
 1005.46        2974.50           1549         112.00       468.18
 1005.49        2974.75           1553          87.00       359.20
 1005.52        2975.00           1556          76.00       311.25
 1005.55        2975.25           1559          64.00       258.94
 1005.58        2975.50           1563          67.00       272.02
 1005.61        2975.75           1566          68.00       276.38
 1005.64        2976.00           1569          62.00       250.22
 1005.67        2976.25           1573          65.00       263.30
 1005.70        2976.50           1576          56.00       224.06
 1005.73        2976.75           1579          60.00       241.50
 1005.77        2977.00           1583          62.00       250.22
 1005.80        2977.25           1586          57.00       228.42
 1005.83        2977.50           1590          59.00       237.14
 1005.86        2977.75           1593          61.00       245.86
 1005.89        2978.00           1596          58.00       232.78
 1005.92        2978.25           1600          60.00       241.50
 1005.95        2978.50           1603          62.00       250.22
 1005.98        2978.75           1606          59.00       237.14
 1006.01        2979.00           1610          58.00       232.78
 1006.04        2979.25           1613          62.00       250.22
 1006.07        2979.50           1616          55.00       219.71
 1006.10        2979.75           1620          65.00       263.30
 1006.13        2980.00           1623          55.00       219.71
 1006.16        2980.25           1626          62.00       250.22
 1006.20        2980.50           1630          56.00       224.06
 1006.23        2980.75           1633          64.00       258.94
 1006.26        2981.00           1637          59.00       237.14
 1006.29        2981.25           1640          49.00       193.55
 1006.32        2981.50           1643          70.00       285.09
 1006.35        2981.75           1647          48.00       189.19
 1006.38        2982.00           1650          56.00       224.06
 1006.41        2982.25           1653          53.00       210.99
 1006.44        2982.50           1657          58.00       232.78
 1006.47        2982.75           1660          59.00       237.14
 1006.51        2983.00           1663          60.00       241.50
 1006.54        2983.25           1667          60.00       241.50
 1006.57        2983.50           1670          60.00       241.50
 1006.60        2983.75           1673          53.00       210.99
 1006.63        2984.00           1677          60.00       241.50
HS scan finished at 16:46:51
end
