************************************************************
  HS Scan of (1) Internal mercury lamp
************************************************************
Integration time is 0.2294 seconds per sample
dh061218Manchester 53.47 2.23 2.804185pr1000
************************************************************
Dead Time -------------------------  3E-08 
Number of Cycles Used -------------  4 
Starting Wavelength (Angstroms) ---  2950 
Final Wavelength (Angstoms) -------  2984 
Wavelength Increment (Angstroms) --  .25 
Filter Wheel #1 Position ---------- (1) Ground quartz diffuser (ND=2.32)
Filter Wheel #2 Position ---------- (1) Neutral Density 0.494



************************************************************
HS scan start time = 05:11:10
Dark Count =  5.6 


Time (GMT)  Wavelength (Ang)  Step Number  Raw Counts  Counts/Second

  311.53        2950.00           1222          54.00       210.99
  311.59        2950.25           1226          50.00       193.55
  311.63        2950.50           1229          58.00       228.42
  311.66        2950.75           1232          57.00       224.06
  311.69        2951.00           1236          55.00       215.35
  311.72        2951.25           1239          59.00       232.78
  311.75        2951.50           1242          51.00       197.91
  311.78        2951.75           1246          52.00       202.27
  311.81        2952.00           1249          55.00       215.35
  311.84        2952.25           1252          59.00       232.78
  311.87        2952.50           1256          50.00       193.55
  311.90        2952.75           1259          54.00       210.99
  311.93        2953.00           1262          55.00       215.35
  311.96        2953.25           1266          57.00       224.06
  311.99        2953.50           1269          57.00       224.06
  312.03        2953.75           1272          52.00       202.27
  312.06        2954.00           1276          54.00       210.99
  312.09        2954.25           1279          52.00       202.27
  312.12        2954.50           1282          46.00       176.11
  312.15        2954.75           1286          57.00       224.06
  312.18        2955.00           1289          62.00       245.86
  312.21        2955.25           1292          47.00       180.47
  312.24        2955.50           1296          51.00       197.91
  312.27        2955.75           1299          49.00       189.19
  312.30        2956.00           1302          49.00       189.19
  312.33        2956.25           1306          51.00       197.91
  312.36        2956.50           1309          55.00       215.35
  312.40        2956.75           1312          60.00       237.14
  312.43        2957.00           1316          52.00       202.27
  312.46        2957.25           1319          53.00       206.63
  312.49        2957.50           1322          59.00       232.78
  312.52        2957.75           1326          48.00       184.83
  312.55        2958.00           1329          61.00       241.50
  312.58        2958.25           1332          64.00       254.58
  312.61        2958.50           1336          54.00       210.99
  312.64        2958.75           1339          50.00       193.55
  312.67        2959.00           1342          50.00       193.55
  312.70        2959.25           1346          53.00       206.63
  312.74        2959.50           1349          54.00       210.99
  312.77        2959.75           1352          64.00       254.58
  312.80        2960.00           1356          81.00       328.69
  312.83        2960.25           1359          93.00       381.00
  312.86        2960.50           1362         127.00       529.22
  312.89        2960.75           1366         171.00       721.03
  312.92        2961.00           1369         200.00       847.45
  312.95        2961.25           1372         227.00       965.15
  312.98        2961.50           1376         270.00      1152.61
  313.01        2961.75           1379         337.00      1444.70
  313.04        2962.00           1382         574.00      2477.95
  313.08        2962.25           1386        1634.00      7100.03
  313.11        2962.50           1389        2715.00     11815.00
  313.14        2962.75           1392        3825.00     16657.84
  313.17        2963.00           1396        5283.00     23021.12
  313.20        2963.25           1399        6234.00     27172.97
  313.23        2963.50           1402        7266.00     31679.61
  313.26        2963.75           1406        8746.00     38144.76
  313.29        2964.00           1409        9838.00     42916.60
  313.32        2964.25           1412       11036.00     48153.21
  313.35        2964.50           1416       12548.00     54764.71
  313.39        2964.75           1419       13538.00     59095.09
  313.42        2965.00           1422       14791.00     64577.48
  313.45        2965.25           1426       16347.00     71388.13
  313.48        2965.50           1429       17329.00     75687.80
  313.51        2965.75           1432       18463.00     80654.38
  313.54        2966.00           1436       19945.00     87147.34
  313.57        2966.25           1439       20784.00     90824.30
  313.60        2966.50           1442       21839.00     95449.04
  313.64        2966.75           1446       23101.00    100982.90
  313.67        2967.00           1449       23232.00    101557.40
  313.70        2967.25           1452       23368.00    102153.90
  313.73        2967.50           1456       23364.00    102136.40
  313.76        2967.75           1459       23504.00    102750.40
  313.79        2968.00           1462       23179.00    101325.00
  313.82        2968.25           1466       22782.00     99583.91
  313.85        2968.50           1469       21683.00     94765.10
  313.88        2968.75           1472       20891.00     91293.28
  313.92        2969.00           1476       19529.00     85324.49
  313.95        2969.25           1479       18414.00     80439.75
  313.98        2969.50           1482       17426.00     76112.57
  314.01        2969.75           1486       16045.00     70066.04
  314.04        2970.00           1489       14848.00     64826.92
  314.07        2970.25           1492       13871.00     60551.92
  314.10        2970.50           1496       12464.00     54397.34
  314.13        2970.75           1499       11396.00     49727.14
  314.16        2971.00           1502       10365.00     45219.98
  314.19        2971.25           1506        8831.00     38516.15
  314.23        2971.50           1509        7550.00     32920.03
  314.26        2971.75           1513        6190.00     26980.86
  314.29        2972.00           1516        5206.00     22685.01
  314.32        2972.25           1519        4207.00     18324.81
  314.35        2972.50           1523        2737.00     11910.97
  314.38        2972.75           1526        1801.00      7828.34
  314.41        2973.00           1529         914.00      3960.37
  314.44        2973.25           1533         358.00      1536.25
  314.47        2973.50           1536         266.00      1135.17
  314.51        2973.75           1539         208.00       882.32
  314.54        2974.00           1543         190.00       803.86
  314.57        2974.25           1546         157.00       660.00
  314.60        2974.50           1549         121.00       503.06
  314.63        2974.75           1553          83.00       337.41
  314.66        2975.00           1556          68.00       272.02
  314.69        2975.25           1559          55.00       215.35
  314.72        2975.50           1563          52.00       202.27
  314.75        2975.75           1566          53.00       206.63
  314.79        2976.00           1569          56.00       219.71
  314.82        2976.25           1573          52.00       202.27
  314.85        2976.50           1576          45.00       171.75
  314.88        2976.75           1579          49.00       189.19
  314.91        2977.00           1583          57.00       224.06
  314.94        2977.25           1586          48.00       184.83
  314.97        2977.50           1590          46.00       176.11
  315.00        2977.75           1593          55.00       215.35
  315.03        2978.00           1596          43.00       163.03
  315.06        2978.25           1600          55.00       215.35
  315.09        2978.50           1603          45.00       171.75
  315.12        2978.75           1606          49.00       189.19
  315.15        2979.00           1610          61.00       241.50
  315.18        2979.25           1613          48.00       184.83
  315.22        2979.50           1616          55.00       215.35
  315.25        2979.75           1620          41.00       154.32
  315.28        2980.00           1623          45.00       171.75
  315.31        2980.25           1626          50.00       193.55
  315.34        2980.50           1630          47.00       180.47
  315.37        2980.75           1633          55.00       215.35
  315.40        2981.00           1637          52.00       202.27
  315.43        2981.25           1640          56.00       219.71
  315.46        2981.50           1643          50.00       193.55
  315.49        2981.75           1647          39.00       145.60
  315.52        2982.00           1650          46.00       176.11
  315.55        2982.25           1653          41.00       154.32
  315.58        2982.50           1657          49.00       189.19
  315.61        2982.75           1660          48.00       184.83
  315.64        2983.00           1663          50.00       193.55
  315.67        2983.25           1667          48.00       184.83
  315.70        2983.50           1670          50.00       193.55
  315.74        2983.75           1673          52.00       202.27
  315.77        2984.00           1677          48.00       184.83
HS scan finished at 05:15:59
end
************************************************************
  HS Scan of (1) Internal mercury lamp
************************************************************
Integration time is 0.2294 seconds per sample
dh061218Manchester 53.47 2.23 2.804185pr1000
************************************************************
Dead Time -------------------------  3E-08 
Number of Cycles Used -------------  4 
Starting Wavelength (Angstroms) ---  2950 
Final Wavelength (Angstoms) -------  2984 
Wavelength Increment (Angstroms) --  .25 
Filter Wheel #1 Position ---------- (1) Ground quartz diffuser (ND=2.32)
Filter Wheel #2 Position ---------- (1) Neutral Density 0.494



************************************************************
HS scan start time = 16:42:05
Dark Count =  5.5 


Time (GMT)  Wavelength (Ang)  Step Number  Raw Counts  Counts/Second

 1002.45        2950.00           1222          50.00       193.99
 1002.52        2950.25           1226          52.00       202.70
 1002.55        2950.50           1229          55.00       215.78
 1002.58        2950.75           1232          55.00       215.78
 1002.61        2951.00           1236          51.00       198.34
 1002.65        2951.25           1239          50.00       193.99
 1002.68        2951.50           1242          51.00       198.34
 1002.71        2951.75           1246          47.00       180.91
 1002.74        2952.00           1249          50.00       193.99
 1002.77        2952.25           1252          46.00       176.55
 1002.80        2952.50           1256          52.00       202.70
 1002.83        2952.75           1259          57.00       224.50
 1002.86        2953.00           1262          52.00       202.70
 1002.89        2953.25           1266          60.00       237.58
 1002.92        2953.50           1269          50.00       193.99
 1002.95        2953.75           1272          54.00       211.42
 1002.99        2954.00           1276          46.00       176.55
 1003.02        2954.25           1279          58.00       228.86
 1003.05        2954.50           1282          51.00       198.34
 1003.08        2954.75           1286          58.00       228.86
 1003.11        2955.00           1289          56.00       220.14
 1003.14        2955.25           1292          54.00       211.42
 1003.17        2955.50           1296          57.00       224.50
 1003.20        2955.75           1299          47.00       180.91
 1003.23        2956.00           1302          51.00       198.34
 1003.26        2956.25           1306          50.00       193.99
 1003.29        2956.50           1309          47.00       180.91
 1003.32        2956.75           1312          53.00       207.06
 1003.36        2957.00           1316          55.00       215.78
 1003.39        2957.25           1319          43.00       163.47
 1003.42        2957.50           1322          61.00       241.94
 1003.45        2957.75           1326          53.00       207.06
 1003.48        2958.00           1329          56.00       220.14
 1003.51        2958.25           1332          48.00       185.27
 1003.54        2958.50           1336          57.00       224.50
 1003.57        2958.75           1339          55.00       215.78
 1003.60        2959.00           1342          53.00       207.06
 1003.63        2959.25           1346          57.00       224.50
 1003.66        2959.50           1349          60.00       237.58
 1003.69        2959.75           1352          67.00       268.09
 1003.72        2960.00           1356          77.00       311.69
 1003.75        2960.25           1359          94.00       385.79
 1003.78        2960.50           1362         121.00       503.50
 1003.82        2960.75           1366         168.00       708.38
 1003.85        2961.00           1369         198.00       839.17
 1003.88        2961.25           1372         221.00       939.43
 1003.91        2961.50           1376         281.00      1201.00
 1003.94        2961.75           1379         400.00      1719.79
 1003.97        2962.00           1382         939.00      4069.81
 1004.00        2962.25           1386        2179.00      9477.41
 1004.03        2962.50           1389        3235.00     14083.98
 1004.06        2962.75           1392        4212.00     18347.06
 1004.10        2963.00           1396        5557.00     24217.68
 1004.13        2963.25           1399        6651.00     28994.26
 1004.16        2963.50           1402        7733.00     33719.80
 1004.19        2963.75           1406        9103.00     39705.07
 1004.22        2964.00           1409       10126.00     44175.77
 1004.25        2964.25           1412       11199.00     48866.27
 1004.28        2964.50           1416       12668.00     55289.98
 1004.31        2964.75           1419       13710.00     59847.99
 1004.34        2965.00           1422       14692.00     64144.68
 1004.38        2965.25           1426       16030.00     70000.82
 1004.41        2965.50           1429       17234.00     75272.23
 1004.44        2965.75           1432       18363.00     80216.79
 1004.47        2966.00           1436       19637.00     85798.16
 1004.50        2966.25           1439       20526.00     89693.96
 1004.53        2966.50           1442       21524.00     94068.50
 1004.56        2966.75           1446       22570.00     98654.68
 1004.59        2967.00           1449       22716.00     99294.92
 1004.62        2967.25           1452       22707.00     99255.46
 1004.65        2967.50           1456       22726.00     99338.77
 1004.68        2967.75           1459       22643.00     98974.79
 1004.72        2968.00           1462       22469.00     98211.78
 1004.75        2968.25           1466       21697.00     94826.93
 1004.78        2968.50           1469       20754.00     90693.24
 1004.81        2968.75           1472       19762.00     86345.88
 1004.84        2969.00           1476       18382.00     80300.02
 1004.87        2969.25           1479       17233.00     75267.85
 1004.90        2969.50           1482       16352.00     71410.46
 1004.93        2969.75           1486       15001.00     65496.92
 1004.96        2970.00           1489       14003.00     61129.88
 1004.99        2970.25           1492       13051.00     56965.19
 1005.03        2970.50           1496       11698.00     51048.04
 1005.06        2970.75           1499       10570.00     46116.51
 1005.09        2971.00           1502        9487.00     41383.08
 1005.12        2971.25           1506        7995.00     34864.26
 1005.15        2971.50           1509        6988.00     30465.93
 1005.18        2971.75           1513        5679.00     24750.28
 1005.21        2972.00           1516        4587.00     19983.65
 1005.24        2972.25           1519        3531.00     15375.44
 1005.27        2972.50           1523        2152.00      9359.65
 1005.30        2972.75           1526        1263.00      5482.59
 1005.34        2973.00           1529         513.00      2212.44
 1005.37        2973.25           1533         286.00      1222.80
 1005.40        2973.50           1536         232.00       987.39
 1005.43        2973.75           1539         199.00       843.53
 1005.46        2974.00           1543         168.00       708.38
 1005.49        2974.25           1546         129.00       538.37
 1005.52        2974.50           1549         111.00       459.90
 1005.55        2974.75           1553          74.00       298.61
 1005.58        2975.00           1556          66.00       263.73
 1005.61        2975.25           1559          59.00       233.22
 1005.64        2975.50           1563          58.00       228.86
 1005.67        2975.75           1566          51.00       198.34
 1005.70        2976.00           1569          51.00       198.34
 1005.74        2976.25           1573          55.00       215.78
 1005.77        2976.50           1576          49.00       189.63
 1005.80        2976.75           1579          48.00       185.27
 1005.83        2977.00           1583          58.00       228.86
 1005.86        2977.25           1586          50.00       193.99
 1005.89        2977.50           1590          46.00       176.55
 1005.92        2977.75           1593          51.00       198.34
 1005.95        2978.00           1596          45.00       172.19
 1005.98        2978.25           1600          51.00       198.34
 1006.01        2978.50           1603          50.00       193.99
 1006.04        2978.75           1606          55.00       215.78
 1006.07        2979.00           1610          43.00       163.47
 1006.11        2979.25           1613          53.00       207.06
 1006.14        2979.50           1616          46.00       176.55
 1006.17        2979.75           1620          56.00       220.14
 1006.20        2980.00           1623          48.00       185.27
 1006.23        2980.25           1626          50.00       193.99
 1006.26        2980.50           1630          49.00       189.63
 1006.29        2980.75           1633          45.00       172.19
 1006.32        2981.00           1637          47.00       180.91
 1006.35        2981.25           1640          49.00       189.63
 1006.39        2981.50           1643          45.00       172.19
 1006.42        2981.75           1647          53.00       207.06
 1006.45        2982.00           1650          44.00       167.83
 1006.48        2982.25           1653          58.00       228.86
 1006.51        2982.50           1657          48.00       185.27
 1006.54        2982.75           1660          47.00       180.91
 1006.57        2983.00           1663          52.00       202.70
 1006.60        2983.25           1667          58.00       228.86
 1006.63        2983.50           1670          44.00       167.83
 1006.66        2983.75           1673          37.00       137.32
 1006.69        2984.00           1677          52.00       202.70
HS scan finished at 16:46:55
end
