************************************************************
  HS Scan of (1) Internal mercury lamp
************************************************************
Integration time is 0.2294 seconds per sample
dh101217Manchester 53.47 2.23 2.804185pr1000
************************************************************
Dead Time -------------------------  3E-08 
Number of Cycles Used -------------  4 
Starting Wavelength (Angstroms) ---  2950 
Final Wavelength (Angstoms) -------  2984 
Wavelength Increment (Angstroms) --  .25 
Filter Wheel #1 Position ---------- (1) Ground quartz diffuser (ND=2.32)
Filter Wheel #2 Position ---------- (1) Neutral Density 0.494



************************************************************
HS scan start time = 05:15:19
Dark Count =  7.5 


Time (GMT)  Wavelength (Ang)  Step Number  Raw Counts  Counts/Second

  315.69        2950.00           1222          59.00       224.50
  315.76        2950.25           1226          58.00       220.14
  315.79        2950.50           1229          65.00       250.66
  315.82        2950.75           1232          64.00       246.30
  315.85        2951.00           1236          66.00       255.02
  315.88        2951.25           1239          73.00       285.53
  315.91        2951.50           1242          64.00       246.30
  315.94        2951.75           1246          54.00       202.70
  315.97        2952.00           1249          70.00       272.45
  316.00        2952.25           1252          63.00       241.94
  316.03        2952.50           1256          61.00       233.22
  316.07        2952.75           1259          65.00       250.66
  316.10        2953.00           1262          68.00       263.73
  316.13        2953.25           1266          62.00       237.58
  316.16        2953.50           1269          54.00       202.70
  316.19        2953.75           1272          59.00       224.50
  316.22        2954.00           1276          58.00       220.14
  316.25        2954.25           1279          69.00       268.09
  316.28        2954.50           1282          60.00       228.86
  316.31        2954.75           1286          61.00       233.22
  316.34        2955.00           1289          62.00       237.58
  316.37        2955.25           1292          62.00       237.58
  316.40        2955.50           1296          63.00       241.94
  316.44        2955.75           1299          61.00       233.22
  316.47        2956.00           1302          71.00       276.81
  316.50        2956.25           1306          65.00       250.66
  316.53        2956.50           1309          59.00       224.50
  316.56        2956.75           1312          70.00       272.45
  316.59        2957.00           1316          69.00       268.09
  316.62        2957.25           1319          60.00       228.86
  316.65        2957.50           1322          61.00       233.22
  316.68        2957.75           1326          64.00       246.30
  316.71        2958.00           1329          71.00       276.81
  316.74        2958.25           1332          69.00       268.09
  316.77        2958.50           1336          66.00       255.02
  316.80        2958.75           1339          66.00       255.02
  316.83        2959.00           1342          76.00       298.61
  316.87        2959.25           1346          69.00       268.09
  316.90        2959.50           1349          75.00       294.25
  316.93        2959.75           1352          79.00       311.69
  316.96        2960.00           1356         111.00       451.18
  316.99        2960.25           1359         129.00       529.65
  317.02        2960.50           1362         170.00       708.38
  317.05        2960.75           1366         221.00       930.71
  317.08        2961.00           1369         263.00      1113.81
  317.11        2961.25           1372         290.00      1231.52
  317.14        2961.50           1376         368.00      1571.57
  317.17        2961.75           1379         568.00      2443.51
  317.21        2962.00           1382        1230.00      5329.97
  317.24        2962.25           1386        3005.00     13071.82
  317.27        2962.50           1389        4392.00     19123.87
  317.30        2962.75           1392        5967.00     25998.91
  317.33        2963.00           1396        7997.00     34864.26
  317.36        2963.25           1399        9425.00     41103.40
  317.39        2963.50           1402       11054.00     48223.60
  317.42        2963.75           1406       13210.00     57651.94
  317.45        2964.00           1409       14626.00     63847.12
  317.49        2964.25           1412       16076.00     70193.43
  317.52        2964.50           1416       18352.00     80159.84
  317.55        2964.75           1419       19896.00     86924.29
  317.58        2965.00           1422       21380.00     93428.46
  317.61        2965.25           1426       23659.00    103422.00
  317.64        2965.50           1429       25070.00    109612.30
  317.67        2965.75           1432       26853.00    117437.90
  317.70        2966.00           1436       28855.00    126229.10
  317.73        2966.25           1439       30103.00    131711.70
  317.76        2966.50           1442       31496.00    137833.40
  317.79        2966.75           1446       32992.00    144410.30
  317.82        2967.00           1449       33592.00    147048.80
  317.86        2967.25           1452       33565.00    146930.00
  317.89        2967.50           1456       33438.00    146371.50
  317.92        2967.75           1459       33283.00    145689.90
  317.95        2968.00           1462       33344.00    145958.10
  317.98        2968.25           1466       32246.00    141130.30
  318.01        2968.50           1469       31010.00    135697.30
  318.04        2968.75           1472       29550.00    129282.10
  318.07        2969.00           1476       27568.00    120577.10
  318.11        2969.25           1479       26014.00    113755.00
  318.14        2969.50           1482       24628.00    107672.90
  318.17        2969.75           1486       22446.00     98102.18
  318.20        2970.00           1489       21191.00     92599.96
  318.23        2970.25           1492       19555.00     85430.09
  318.26        2970.50           1496       17528.00     76550.93
  318.29        2970.75           1499       15923.00     69523.66
  318.32        2971.00           1502       14113.00     61602.41
  318.35        2971.25           1506       12265.00     53518.73
  318.38        2971.50           1509       10591.00     46199.56
  318.42        2971.75           1513        8596.00     37481.10
  318.45        2972.00           1516        7047.00     30714.86
  318.48        2972.25           1519        5533.00     24104.17
  318.51        2972.50           1523        3468.00     15091.84
  318.54        2972.75           1526        2030.00      8818.81
  318.57        2973.00           1529         972.00      4204.98
  318.60        2973.25           1533         450.00      1929.06
  318.63        2973.50           1536         358.00      1527.97
  318.66        2973.75           1539         289.00      1227.16
  318.69        2974.00           1543         274.00      1161.77
  318.72        2974.25           1546         197.00       826.09
  318.76        2974.50           1549         150.00       621.20
  318.79        2974.75           1553         123.00       503.50
  318.82        2975.00           1556          87.00       346.56
  318.85        2975.25           1559          78.00       307.33
  318.88        2975.50           1563          65.00       250.66
  318.91        2975.75           1566          61.00       233.22
  318.94        2976.00           1569          65.00       250.66
  318.97        2976.25           1573          61.00       233.22
  319.00        2976.50           1576          59.00       224.50
  319.03        2976.75           1579          67.00       259.37
  319.06        2977.00           1583          63.00       241.94
  319.10        2977.25           1586          78.00       307.33
  319.13        2977.50           1590          69.00       268.09
  319.16        2977.75           1593          64.00       246.30
  319.19        2978.00           1596          60.00       228.86
  319.22        2978.25           1600          58.00       220.14
  319.25        2978.50           1603          67.00       259.37
  319.28        2978.75           1606          59.00       224.50
  319.31        2979.00           1610          59.00       224.50
  319.34        2979.25           1613          67.00       259.37
  319.37        2979.50           1616          57.00       215.78
  319.40        2979.75           1620          54.00       202.70
  319.43        2980.00           1623          68.00       263.73
  319.46        2980.25           1626          59.00       224.50
  319.50        2980.50           1630          53.00       198.34
  319.53        2980.75           1633          58.00       220.14
  319.56        2981.00           1637          67.00       259.37
  319.59        2981.25           1640          61.00       233.22
  319.62        2981.50           1643          64.00       246.30
  319.65        2981.75           1647          58.00       220.14
  319.68        2982.00           1650          57.00       215.78
  319.71        2982.25           1653          57.00       215.78
  319.74        2982.50           1657          62.00       237.58
  319.77        2982.75           1660          67.00       259.37
  319.80        2983.00           1663          58.00       220.14
  319.83        2983.25           1667          57.00       215.78
  319.86        2983.50           1670          62.00       237.58
  319.89        2983.75           1673          59.00       224.50
  319.92        2984.00           1677          64.00       246.30
HS scan finished at 05:20:08
end
************************************************************
  HS Scan of (1) Internal mercury lamp
************************************************************
Integration time is 0.2294 seconds per sample
dh101217Manchester 53.47 2.23 2.804185pr1000
************************************************************
Dead Time -------------------------  3E-08 
Number of Cycles Used -------------  4 
Starting Wavelength (Angstroms) ---  2950 
Final Wavelength (Angstoms) -------  2984 
Wavelength Increment (Angstroms) --  .25 
Filter Wheel #1 Position ---------- (1) Ground quartz diffuser (ND=2.32)
Filter Wheel #2 Position ---------- (1) Neutral Density 0.494



************************************************************
HS scan start time = 16:42:01
Dark Count =  6.8 


Time (GMT)  Wavelength (Ang)  Step Number  Raw Counts  Counts/Second

 1002.38        2950.00           1222          78.00       310.38
 1002.45        2950.25           1226          68.00       266.79
 1002.48        2950.50           1229          67.00       262.43
 1002.51        2950.75           1232          62.00       240.63
 1002.54        2951.00           1236          69.00       271.14
 1002.58        2951.25           1239          64.00       249.35
 1002.61        2951.50           1242          68.00       266.79
 1002.64        2951.75           1246          58.00       223.19
 1002.67        2952.00           1249          71.00       279.86
 1002.70        2952.25           1252          66.00       258.07
 1002.73        2952.50           1256          67.00       262.43
 1002.76        2952.75           1259          60.00       231.91
 1002.79        2953.00           1262          59.00       227.55
 1002.82        2953.25           1266          60.00       231.91
 1002.85        2953.50           1269          59.00       227.55
 1002.88        2953.75           1272          74.00       292.94
 1002.91        2954.00           1276          70.00       275.50
 1002.94        2954.25           1279          64.00       249.35
 1002.97        2954.50           1282          59.00       227.55
 1003.01        2954.75           1286          70.00       275.50
 1003.04        2955.00           1289          67.00       262.43
 1003.07        2955.25           1292          65.00       253.71
 1003.10        2955.50           1296          67.00       262.43
 1003.13        2955.75           1299          61.00       236.27
 1003.16        2956.00           1302          66.00       258.07
 1003.19        2956.25           1306          64.00       249.35
 1003.22        2956.50           1309          67.00       262.43
 1003.25        2956.75           1312          65.00       253.71
 1003.28        2957.00           1316          70.00       275.50
 1003.31        2957.25           1319          63.00       244.99
 1003.34        2957.50           1322          64.00       249.35
 1003.38        2957.75           1326          67.00       262.43
 1003.41        2958.00           1329          58.00       223.19
 1003.44        2958.25           1332          68.00       266.79
 1003.47        2958.50           1336          61.00       236.27
 1003.50        2958.75           1339          63.00       244.99
 1003.53        2959.00           1342          72.00       284.22
 1003.56        2959.25           1346          75.00       297.30
 1003.59        2959.50           1349          77.00       306.02
 1003.62        2959.75           1352         110.00       449.88
 1003.65        2960.00           1356         136.00       563.22
 1003.68        2960.25           1359         173.00       724.51
 1003.71        2960.50           1362         208.00       877.09
 1003.74        2960.75           1366         271.00      1151.74
 1003.77        2961.00           1369         296.00      1260.73
 1003.81        2961.25           1372         332.00      1417.67
 1003.84        2961.50           1376         422.00      1810.04
 1003.87        2961.75           1379         580.00      2498.88
 1003.90        2962.00           1382        1281.00      5555.42
 1003.93        2962.25           1386        2906.00     12642.98
 1003.96        2962.50           1389        4378.00     19065.83
 1003.99        2962.75           1392        5807.00     25303.42
 1004.02        2963.00           1396        7889.00     34395.54
 1004.05        2963.25           1399        9459.00     41255.04
 1004.08        2963.50           1402       10998.00     47981.84
 1004.11        2963.75           1406       13104.00     57191.33
 1004.15        2964.00           1409       14713.00     64230.89
 1004.18        2964.25           1412       16424.00     71719.96
 1004.21        2964.50           1416       18333.00     80079.69
 1004.24        2964.75           1419       19859.00     86765.22
 1004.27        2965.00           1422       21340.00     93256.18
 1004.30        2965.25           1426       23370.00    102157.40
 1004.33        2965.50           1429       25205.00    110207.70
 1004.36        2965.75           1432       26689.00    116721.00
 1004.39        2966.00           1436       28743.00    125740.20
 1004.42        2966.25           1439       30221.00    132233.20
 1004.45        2966.50           1442       31518.00    137933.20
 1004.49        2966.75           1446       33138.00    145055.30
 1004.52        2967.00           1449       33137.00    145050.90
 1004.55        2967.25           1452       33228.00    145451.10
 1004.58        2967.50           1456       33243.00    145517.10
 1004.61        2967.75           1459       33324.00    145873.30
 1004.64        2968.00           1462       33127.00    145006.90
 1004.67        2968.25           1466       32213.00    140988.30
 1004.70        2968.50           1469       30658.00    134153.50
 1004.73        2968.75           1472       29239.00    127918.90
 1004.77        2969.00           1476       27057.00    118336.50
 1004.80        2969.25           1479       25435.00    111217.00
 1004.83        2969.50           1482       23979.00    104828.70
 1004.86        2969.75           1486       21878.00     95614.77
 1004.89        2970.00           1489       20367.00     88991.41
 1004.92        2970.25           1492       18929.00     82690.50
 1004.95        2970.50           1496       17024.00     74346.99
 1004.98        2970.75           1499       15525.00     67784.61
 1005.02        2971.00           1502       14228.00     62108.65
 1005.05        2971.25           1506       12083.00     52725.88
 1005.08        2971.50           1509       10600.00     46241.96
 1005.11        2971.75           1513        8312.00     36243.40
 1005.14        2972.00           1516        6828.00     29761.52
 1005.17        2972.25           1519        5246.00     22854.37
 1005.20        2972.50           1523        3383.00     14724.03
 1005.23        2972.75           1526        2025.00      8800.06
 1005.26        2973.00           1529         864.00      3737.12
 1005.30        2973.25           1533         410.00      1757.72
 1005.33        2973.50           1536         313.00      1334.84
 1005.36        2973.75           1539         264.00      1121.22
 1005.39        2974.00           1543         202.00       850.94
 1005.42        2974.25           1546         159.00       663.48
 1005.45        2974.50           1549         132.00       545.78
 1005.48        2974.75           1553         101.00       410.64
 1005.51        2975.00           1556          78.00       310.38
 1005.54        2975.25           1559          68.00       266.79
 1005.57        2975.50           1563          67.00       262.43
 1005.61        2975.75           1566          59.00       227.55
 1005.64        2976.00           1569          67.00       262.43
 1005.67        2976.25           1573          62.00       240.63
 1005.70        2976.50           1576          63.00       244.99
 1005.73        2976.75           1579          63.00       244.99
 1005.76        2977.00           1583          61.00       236.27
 1005.79        2977.25           1586          64.00       249.35
 1005.82        2977.50           1590          57.00       218.83
 1005.85        2977.75           1593          60.00       231.91
 1005.88        2978.00           1596          53.00       201.40
 1005.91        2978.25           1600          60.00       231.91
 1005.94        2978.50           1603          60.00       231.91
 1005.97        2978.75           1606          55.00       210.11
 1006.00        2979.00           1610          57.00       218.83
 1006.04        2979.25           1613          65.00       253.71
 1006.07        2979.50           1616          55.00       210.11
 1006.10        2979.75           1620          59.00       227.55
 1006.13        2980.00           1623          51.00       192.68
 1006.16        2980.25           1626          55.00       210.11
 1006.19        2980.50           1630          64.00       249.35
 1006.22        2980.75           1633          49.00       183.96
 1006.25        2981.00           1637          57.00       218.83
 1006.28        2981.25           1640          59.00       227.55
 1006.31        2981.50           1643          61.00       236.27
 1006.34        2981.75           1647          57.00       218.83
 1006.38        2982.00           1650          64.00       249.35
 1006.41        2982.25           1653          50.00       188.32
 1006.44        2982.50           1657          54.00       205.76
 1006.47        2982.75           1660          54.00       205.76
 1006.50        2983.00           1663          64.00       249.35
 1006.53        2983.25           1667          53.00       201.40
 1006.56        2983.50           1670          59.00       227.55
 1006.59        2983.75           1673          59.00       227.55
 1006.62        2984.00           1677          67.00       262.43
HS scan finished at 16:46:50
end
