************************************************************
  HS Scan of (1) Internal mercury lamp
************************************************************
Integration time is 0.2294 seconds per sample
dh111217Manchester 53.47 2.23 2.750537pr1000
************************************************************
Dead Time -------------------------  3E-08 
Number of Cycles Used -------------  4 
Starting Wavelength (Angstroms) ---  2950 
Final Wavelength (Angstoms) -------  2984 
Wavelength Increment (Angstroms) --  .25 
Filter Wheel #1 Position ---------- (1) Ground quartz diffuser (ND=2.32)
Filter Wheel #2 Position ---------- (1) Neutral Density 0.494



************************************************************
HS scan start time = 05:16:10
Dark Count =  7 


Time (GMT)  Wavelength (Ang)  Step Number  Raw Counts  Counts/Second

  316.54        2950.00           1222          66.00       257.19
  316.60        2950.25           1226          60.00       231.04
  316.64        2950.50           1229          68.00       265.91
  316.67        2950.75           1232          66.00       257.19
  316.70        2951.00           1236          68.00       265.91
  316.73        2951.25           1239          57.00       217.96
  316.76        2951.50           1242          63.00       244.12
  316.79        2951.75           1246          65.00       252.84
  316.82        2952.00           1249          58.00       222.32
  316.85        2952.25           1252          61.00       235.40
  316.88        2952.50           1256          67.00       261.55
  316.91        2952.75           1259          60.00       231.04
  316.94        2953.00           1262          69.00       270.27
  316.97        2953.25           1266          69.00       270.27
  317.00        2953.50           1269          58.00       222.32
  317.03        2953.75           1272          63.00       244.12
  317.07        2954.00           1276          62.00       239.76
  317.10        2954.25           1279          70.00       274.63
  317.13        2954.50           1282          58.00       222.32
  317.16        2954.75           1286          67.00       261.55
  317.19        2955.00           1289          59.00       226.68
  317.22        2955.25           1292          72.00       283.35
  317.25        2955.50           1296          63.00       244.12
  317.28        2955.75           1299          66.00       257.19
  317.31        2956.00           1302          65.00       252.84
  317.34        2956.25           1306          66.00       257.19
  317.37        2956.50           1309          61.00       235.40
  317.40        2956.75           1312          65.00       252.84
  317.43        2957.00           1316          61.00       235.40
  317.47        2957.25           1319          57.00       217.96
  317.50        2957.50           1322          58.00       222.32
  317.53        2957.75           1326          68.00       265.91
  317.56        2958.00           1329          61.00       235.40
  317.59        2958.25           1332          70.00       274.63
  317.62        2958.50           1336          64.00       248.48
  317.65        2958.75           1339          68.00       265.91
  317.68        2959.00           1342          68.00       265.91
  317.71        2959.25           1346          73.00       287.71
  317.74        2959.50           1349          73.00       287.71
  317.77        2959.75           1352          88.00       353.10
  317.80        2960.00           1356         118.00       483.88
  317.84        2960.25           1359         154.00       640.81
  317.87        2960.50           1362         198.00       832.63
  317.90        2960.75           1366         239.00      1011.36
  317.93        2961.00           1369         295.00      1255.50
  317.96        2961.25           1372         297.00      1264.22
  317.99        2961.50           1376         391.00      1674.02
  318.02        2961.75           1379         656.00      2829.36
  318.05        2962.00           1382        1542.00      6692.71
  318.08        2962.25           1386        3249.00     14138.52
  318.11        2962.50           1389        4858.00     21159.90
  318.14        2962.75           1392        6386.00     27830.55
  318.17        2963.00           1396        8446.00     36827.94
  318.21        2963.25           1399        9837.00     42906.12
  318.24        2963.50           1402       11310.00     49345.01
  318.27        2963.75           1406       13488.00     58870.23
  318.30        2964.00           1409       15195.00     66339.40
  318.33        2964.25           1412       16635.00     72642.88
  318.36        2964.50           1416       18893.00     82531.91
  318.39        2964.75           1419       20267.00     88552.29
  318.42        2965.00           1422       21953.00     95942.72
  318.45        2965.25           1426       24193.00    105766.60
  318.49        2965.50           1429       25774.00    112703.90
  318.52        2965.75           1432       27173.00    118845.00
  318.55        2966.00           1436       29049.00    127083.40
  318.58        2966.25           1439       30617.00    133972.40
  318.61        2966.50           1442       32049.00    140266.40
  318.64        2966.75           1446       33122.00    144984.10
  318.67        2967.00           1449       33263.00    145604.10
  318.70        2967.25           1452       33485.00    146580.40
  318.73        2967.50           1456       33382.00    146127.40
  318.77        2967.75           1459       33336.00    145925.10
  318.80        2968.00           1462       33127.00    145006.10
  318.83        2968.25           1466       31678.00    138635.60
  318.86        2968.50           1469       30149.00    131916.00
  318.89        2968.75           1472       28600.00    125111.20
  318.92        2969.00           1476       26790.00    117163.50
  318.95        2969.25           1479       25493.00    111470.70
  318.98        2969.50           1482       23829.00    104169.80
  319.01        2969.75           1486       21921.00     95802.41
  319.05        2970.00           1489       20294.00     88670.60
  319.08        2970.25           1492       18741.00     81866.04
  319.11        2970.50           1496       16631.00     72625.37
  319.14        2970.75           1499       15081.00     65840.48
  319.17        2971.00           1502       13448.00     58695.24
  319.20        2971.25           1506       11381.00     49655.44
  319.23        2971.50           1509        9828.00     42866.78
  319.26        2971.75           1513        8028.00     35001.86
  319.29        2972.00           1516        6421.00     27983.38
  319.33        2972.25           1519        4898.00     21334.49
  319.36        2972.50           1523        2922.00     12711.91
  319.39        2972.75           1526        1461.00      6339.48
  319.42        2973.00           1529         678.00      2925.28
  319.45        2973.25           1533         380.00      1626.06
  319.48        2973.50           1536         308.00      1312.17
  319.51        2973.75           1539         261.00      1107.27
  319.54        2974.00           1543         209.00       880.58
  319.57        2974.25           1546         149.00       619.02
  319.60        2974.50           1549         111.00       453.36
  319.63        2974.75           1553          87.00       348.74
  319.67        2975.00           1556          72.00       283.35
  319.70        2975.25           1559          61.00       235.40
  319.73        2975.50           1563          68.00       265.91
  319.76        2975.75           1566          66.00       257.19
  319.79        2976.00           1569          60.00       231.04
  319.82        2976.25           1573          61.00       235.40
  319.85        2976.50           1576          59.00       226.68
  319.88        2976.75           1579          56.00       213.60
  319.91        2977.00           1583          60.00       231.04
  319.94        2977.25           1586          65.00       252.84
  319.97        2977.50           1590          59.00       226.68
  320.00        2977.75           1593          54.00       204.88
  320.04        2978.00           1596          53.00       200.52
  320.07        2978.25           1600          57.00       217.96
  320.10        2978.50           1603          55.00       209.24
  320.13        2978.75           1606          54.00       204.88
  320.16        2979.00           1610          64.00       248.48
  320.19        2979.25           1613          68.00       265.91
  320.22        2979.50           1616          63.00       244.12
  320.25        2979.75           1620          64.00       248.48
  320.28        2980.00           1623          66.00       257.19
  320.31        2980.25           1626          60.00       231.04
  320.35        2980.50           1630          62.00       239.76
  320.38        2980.75           1633          56.00       213.60
  320.41        2981.00           1637          56.00       213.60
  320.44        2981.25           1640          53.00       200.52
  320.47        2981.50           1643          65.00       252.84
  320.50        2981.75           1647          49.00       183.09
  320.53        2982.00           1650          56.00       213.60
  320.56        2982.25           1653          61.00       235.40
  320.59        2982.50           1657          57.00       217.96
  320.62        2982.75           1660          49.00       183.09
  320.65        2983.00           1663          62.00       239.76
  320.68        2983.25           1667          62.00       239.76
  320.71        2983.50           1670          52.00       196.17
  320.75        2983.75           1673          53.00       200.52
  320.78        2984.00           1677          64.00       248.48
HS scan finished at 05:21:00
end
************************************************************
  HS Scan of (1) Internal mercury lamp
************************************************************
Integration time is 0.2294 seconds per sample
dh111217Manchester 53.47 2.23 2.750537pr1000
************************************************************
Dead Time -------------------------  3E-08 
Number of Cycles Used -------------  4 
Starting Wavelength (Angstroms) ---  2950 
Final Wavelength (Angstoms) -------  2984 
Wavelength Increment (Angstroms) --  .25 
Filter Wheel #1 Position ---------- (1) Ground quartz diffuser (ND=2.32)
Filter Wheel #2 Position ---------- (1) Neutral Density 0.494



************************************************************
HS scan start time = 16:42:00
Dark Count =  7.7 


Time (GMT)  Wavelength (Ang)  Step Number  Raw Counts  Counts/Second

 1002.36        2950.00           1222          61.00       232.35
 1002.43        2950.25           1226          77.00       302.10
 1002.46        2950.50           1229          64.00       245.42
 1002.49        2950.75           1232          60.00       227.99
 1002.52        2951.00           1236          58.00       219.27
 1002.55        2951.25           1239          61.00       232.35
 1002.58        2951.50           1242          63.00       241.07
 1002.61        2951.75           1246          67.00       258.50
 1002.64        2952.00           1249          69.00       267.22
 1002.67        2952.25           1252          65.00       249.78
 1002.70        2952.50           1256          66.00       254.14
 1002.73        2952.75           1259          58.00       219.27
 1002.77        2953.00           1262          65.00       249.78
 1002.80        2953.25           1266          64.00       245.42
 1002.83        2953.50           1269          68.00       262.86
 1002.86        2953.75           1272          57.00       214.91
 1002.89        2954.00           1276          62.00       236.71
 1002.92        2954.25           1279          58.00       219.27
 1002.95        2954.50           1282          60.00       227.99
 1002.98        2954.75           1286          67.00       258.50
 1003.01        2955.00           1289          56.00       210.55
 1003.04        2955.25           1292          74.00       289.02
 1003.07        2955.50           1296          67.00       258.50
 1003.10        2955.75           1299          63.00       241.07
 1003.14        2956.00           1302          58.00       219.27
 1003.17        2956.25           1306          67.00       258.50
 1003.20        2956.50           1309          64.00       245.42
 1003.23        2956.75           1312          64.00       245.42
 1003.26        2957.00           1316          65.00       249.78
 1003.29        2957.25           1319          60.00       227.99
 1003.32        2957.50           1322          65.00       249.78
 1003.35        2957.75           1326          69.00       267.22
 1003.38        2958.00           1329          59.00       223.63
 1003.41        2958.25           1332          66.00       254.14
 1003.45        2958.50           1336          59.00       223.63
 1003.48        2958.75           1339          68.00       262.86
 1003.51        2959.00           1342          66.00       254.14
 1003.54        2959.25           1346          64.00       245.42
 1003.57        2959.50           1349          71.00       275.94
 1003.60        2959.75           1352          84.00       332.61
 1003.63        2960.00           1356         127.00       520.06
 1003.66        2960.25           1359         153.00       633.40
 1003.69        2960.50           1362         189.00       790.34
 1003.72        2960.75           1366         244.00      1030.11
 1003.76        2961.00           1369         272.00      1152.18
 1003.79        2961.25           1372         330.00      1405.03
 1003.82        2961.50           1376         394.00      1684.04
 1003.85        2961.75           1379         526.00      2259.53
 1003.88        2962.00           1382        1104.00      4779.67
 1003.91        2962.25           1386        2712.00     11792.75
 1003.94        2962.50           1389        4089.00     17800.70
 1003.97        2962.75           1392        5525.00     24068.37
 1004.00        2963.00           1396        7525.00     32801.66
 1004.03        2963.25           1399        9024.00     39350.26
 1004.06        2963.50           1402       10620.00     46325.46
 1004.10        2963.75           1406       12485.00     54479.99
 1004.13        2964.00           1409       14157.00     61794.05
 1004.16        2964.25           1412       15636.00     68266.52
 1004.19        2964.50           1416       17726.00     77417.18
 1004.22        2964.75           1419       19181.00     83790.57
 1004.25        2965.00           1422       20650.00     90227.78
 1004.28        2965.25           1426       22824.00     99758.88
 1004.31        2965.50           1429       24496.00    107092.90
 1004.34        2965.75           1432       25954.00    113490.80
 1004.37        2966.00           1436       27885.00    121968.20
 1004.41        2966.25           1439       29283.00    128108.30
 1004.44        2966.50           1442       30676.00    134228.60
 1004.47        2966.75           1446       32520.00    142334.00
 1004.50        2967.00           1449       32895.00    143982.90
 1004.53        2967.25           1452       32967.00    144299.40
 1004.56        2967.50           1456       33163.00    145161.30
 1004.59        2967.75           1459       32953.00    144237.90
 1004.62        2968.00           1462       32987.00    144387.40
 1004.65        2968.25           1466       32233.00    141072.30
 1004.68        2968.50           1469       30881.00    135129.50
 1004.72        2968.75           1472       29603.00    129514.00
 1004.75        2969.00           1476       27570.00    120585.00
 1004.78        2969.25           1479       25839.00    112986.10
 1004.81        2969.50           1482       24568.00    107408.80
 1004.84        2969.75           1486       22547.00     98544.18
 1004.87        2970.00           1489       20976.00     91656.66
 1004.90        2970.25           1492       19798.00     86493.99
 1004.93        2970.50           1496       17745.00     77500.38
 1004.96        2970.75           1499       16050.00     70078.74
 1005.00        2971.00           1502       14440.00     63032.34
 1005.03        2971.25           1506       12493.00     54514.98
 1005.06        2971.50           1509       10825.00     47221.60
 1005.09        2971.75           1513        8860.00     38633.68
 1005.12        2972.00           1516        7322.00     31915.03
 1005.15        2972.25           1519        5754.00     25068.10
 1005.18        2972.50           1523        3779.00     16447.96
 1005.21        2972.75           1526        2369.00     10296.56
 1005.24        2973.00           1529        1127.00      4879.97
 1005.27        2973.25           1533         484.00      2076.42
 1005.30        2973.50           1536         344.00      1466.06
 1005.34        2973.75           1539         276.00      1169.61
 1005.37        2974.00           1543         228.00       960.36
 1005.40        2974.25           1546         185.00       772.90
 1005.43        2974.50           1549         144.00       594.17
 1005.46        2974.75           1553          98.00       393.64
 1005.49        2975.00           1556          78.00       306.45
 1005.52        2975.25           1559          69.00       267.22
 1005.55        2975.50           1563          65.00       249.78
 1005.58        2975.75           1566          55.00       206.19
 1005.62        2976.00           1569          60.00       227.99
 1005.65        2976.25           1573          60.00       227.99
 1005.68        2976.50           1576          63.00       241.07
 1005.71        2976.75           1579          62.00       236.71
 1005.74        2977.00           1583          59.00       223.63
 1005.77        2977.25           1586          66.00       254.14
 1005.80        2977.50           1590          58.00       219.27
 1005.83        2977.75           1593          60.00       227.99
 1005.86        2978.00           1596          59.00       223.63
 1005.89        2978.25           1600          60.00       227.99
 1005.92        2978.50           1603          63.00       241.07
 1005.96        2978.75           1606          64.00       245.42
 1005.99        2979.00           1610          60.00       227.99
 1006.02        2979.25           1613          62.00       236.71
 1006.05        2979.50           1616          58.00       219.27
 1006.08        2979.75           1620          65.00       249.78
 1006.11        2980.00           1623          60.00       227.99
 1006.14        2980.25           1626          61.00       232.35
 1006.17        2980.50           1630          57.00       214.91
 1006.20        2980.75           1633          68.00       262.86
 1006.23        2981.00           1637          55.00       206.19
 1006.26        2981.25           1640          57.00       214.91
 1006.30        2981.50           1643          50.00       184.40
 1006.33        2981.75           1647          54.00       201.83
 1006.36        2982.00           1650          60.00       227.99
 1006.39        2982.25           1653          55.00       206.19
 1006.42        2982.50           1657          54.00       201.83
 1006.45        2982.75           1660          59.00       223.63
 1006.48        2983.00           1663          53.00       197.47
 1006.51        2983.25           1667          54.00       201.83
 1006.54        2983.50           1670          60.00       227.99
 1006.57        2983.75           1673          50.00       184.40
 1006.60        2984.00           1677          56.00       210.55
HS scan finished at 16:46:49
end
