************************************************************
  HS Scan of (1) Internal mercury lamp
************************************************************
Integration time is 0.2294 seconds per sample
dh141217Manchester 53.47 2.23 2.750537pr1000
************************************************************
Dead Time -------------------------  3E-08 
Number of Cycles Used -------------  4 
Starting Wavelength (Angstroms) ---  2950 
Final Wavelength (Angstoms) -------  2984 
Wavelength Increment (Angstroms) --  .25 
Filter Wheel #1 Position ---------- (1) Ground quartz diffuser (ND=2.32)
Filter Wheel #2 Position ---------- (1) Neutral Density 0.494



************************************************************
HS scan start time = 05:18:39
Dark Count =  7.1 


Time (GMT)  Wavelength (Ang)  Step Number  Raw Counts  Counts/Second

  319.01        2950.00           1222          62.00       239.32
  319.08        2950.25           1226          63.00       243.68
  319.11        2950.50           1229          68.00       265.48
  319.14        2950.75           1232          64.00       248.04
  319.17        2951.00           1236          59.00       226.24
  319.20        2951.25           1239          70.00       274.20
  319.23        2951.50           1242          57.00       217.53
  319.26        2951.75           1246          60.00       230.60
  319.29        2952.00           1249          65.00       252.40
  319.33        2952.25           1252          60.00       230.60
  319.36        2952.50           1256          59.00       226.24
  319.39        2952.75           1259          58.00       221.88
  319.42        2953.00           1262          72.00       282.91
  319.45        2953.25           1266          69.00       269.84
  319.48        2953.50           1269          64.00       248.04
  319.51        2953.75           1272          67.00       261.12
  319.54        2954.00           1276          63.00       243.68
  319.57        2954.25           1279          66.00       256.76
  319.60        2954.50           1282          61.00       234.96
  319.63        2954.75           1286          58.00       221.88
  319.66        2955.00           1289          68.00       265.48
  319.70        2955.25           1292          68.00       265.48
  319.73        2955.50           1296          62.00       239.32
  319.76        2955.75           1299          66.00       256.76
  319.79        2956.00           1302          56.00       213.17
  319.82        2956.25           1306          60.00       230.60
  319.85        2956.50           1309          70.00       274.20
  319.88        2956.75           1312          65.00       252.40
  319.91        2957.00           1316          65.00       252.40
  319.94        2957.25           1319          72.00       282.91
  319.97        2957.50           1322          65.00       252.40
  320.00        2957.75           1326          63.00       243.68
  320.03        2958.00           1329          64.00       248.04
  320.06        2958.25           1332          60.00       230.60
  320.09        2958.50           1336          60.00       230.60
  320.12        2958.75           1339          69.00       269.84
  320.16        2959.00           1342          64.00       248.04
  320.19        2959.25           1346          66.00       256.76
  320.22        2959.50           1349          74.00       291.63
  320.25        2959.75           1352          89.00       357.02
  320.28        2960.00           1356         116.00       474.72
  320.31        2960.25           1359         140.00       579.35
  320.34        2960.50           1362         175.00       731.93
  320.37        2960.75           1366         238.00      1006.57
  320.40        2961.00           1369         267.00      1132.99
  320.43        2961.25           1372         314.00      1337.89
  320.46        2961.50           1376         393.00      1682.30
  320.49        2961.75           1379         582.00      2506.29
  320.52        2962.00           1382        1273.00      5519.22
  320.55        2962.25           1386        2904.00     12632.95
  320.59        2962.50           1389        4539.00     19767.17
  320.62        2962.75           1392        6033.00     26288.82
  320.65        2963.00           1396        8033.00     35023.27
  320.68        2963.25           1399        9625.00     41979.17
  320.71        2963.50           1402       11150.00     48645.05
  320.74        2963.75           1406       13293.00     58016.76
  320.77        2964.00           1409       15002.00     65494.30
  320.80        2964.25           1412       16657.00     72738.77
  320.83        2964.50           1416       18559.00     81068.33
  320.87        2964.75           1419       20141.00     87999.66
  320.90        2965.00           1422       21609.00     94434.12
  320.93        2965.25           1426       23827.00    104160.60
  320.96        2965.50           1429       25389.00    111013.80
  320.99        2965.75           1432       26880.00    117558.20
  321.02        2966.00           1436       29202.00    127755.10
  321.05        2966.25           1439       30524.00    133563.30
  321.08        2966.50           1442       31922.00    139707.70
  321.11        2966.75           1446       33038.00    144614.30
  321.15        2967.00           1449       33497.00    146632.70
  321.18        2967.25           1452       33382.00    146127.00
  321.21        2967.50           1456       33556.00    146892.20
  321.24        2967.75           1459       33501.00    146650.30
  321.27        2968.00           1462       33082.00    144807.70
  321.30        2968.25           1466       32028.00    140173.70
  321.33        2968.50           1469       30534.00    133607.30
  321.36        2968.75           1472       28896.00    126410.90
  321.39        2969.00           1476       27145.00    118721.60
  321.43        2969.25           1479       25614.00    112001.20
  321.46        2969.50           1482       24029.00    105046.80
  321.49        2969.75           1486       21792.00     95236.41
  321.52        2970.00           1489       20233.00     88402.84
  321.55        2970.25           1492       18805.00     82145.96
  321.58        2970.50           1496       16779.00     73272.93
  321.61        2970.75           1499       15358.00     67052.36
  321.64        2971.00           1502       13868.00     60532.24
  321.67        2971.25           1506       11910.00     51968.06
  321.70        2971.50           1509       10363.00     45204.69
  321.73        2971.75           1513        8202.00     35761.54
  321.77        2972.00           1516        6647.00     28969.81
  321.80        2972.25           1519        5086.00     22154.65
  321.83        2972.50           1523        3175.00     13815.23
  321.86        2972.75           1526        1795.00      7795.63
  321.89        2973.00           1529         801.00      3461.13
  321.92        2973.25           1533         414.00      1773.85
  321.95        2973.50           1536         327.00      1394.57
  321.98        2973.75           1539         286.00      1215.82
  322.01        2974.00           1543         212.00       893.22
  322.04        2974.25           1546         183.00       766.80
  322.08        2974.50           1549         144.00       596.78
  322.11        2974.75           1553          97.00       391.90
  322.14        2975.00           1556          84.00       335.23
  322.17        2975.25           1559          74.00       291.63
  322.20        2975.50           1563          67.00       261.12
  322.23        2975.75           1566          62.00       239.32
  322.26        2976.00           1569          53.00       200.09
  322.29        2976.25           1573          61.00       234.96
  322.32        2976.50           1576          67.00       261.12
  322.35        2976.75           1579          69.00       269.84
  322.38        2977.00           1583          59.00       226.24
  322.41        2977.25           1586          65.00       252.40
  322.45        2977.50           1590          54.00       204.45
  322.48        2977.75           1593          54.00       204.45
  322.51        2978.00           1596          47.00       173.93
  322.54        2978.25           1600          55.00       208.81
  322.57        2978.50           1603          64.00       248.04
  322.60        2978.75           1606          63.00       243.68
  322.63        2979.00           1610          62.00       239.32
  322.66        2979.25           1613          55.00       208.81
  322.69        2979.50           1616          53.00       200.09
  322.72        2979.75           1620          61.00       234.96
  322.76        2980.00           1623          56.00       213.17
  322.79        2980.25           1626          61.00       234.96
  322.82        2980.50           1630          57.00       217.53
  322.85        2980.75           1633          53.00       200.09
  322.88        2981.00           1637          64.00       248.04
  322.91        2981.25           1640          59.00       226.24
  322.94        2981.50           1643          50.00       187.01
  322.97        2981.75           1647          54.00       204.45
  323.00        2982.00           1650          59.00       226.24
  323.03        2982.25           1653          64.00       248.04
  323.06        2982.50           1657          64.00       248.04
  323.09        2982.75           1660          57.00       217.53
  323.12        2983.00           1663          61.00       234.96
  323.16        2983.25           1667          55.00       208.81
  323.19        2983.50           1670          55.00       208.81
  323.22        2983.75           1673          57.00       217.53
  323.25        2984.00           1677          56.00       213.17
HS scan finished at 05:23:28
end
************************************************************
  HS Scan of (1) Internal mercury lamp
************************************************************
Integration time is 0.2294 seconds per sample
dh141217Manchester 53.47 2.23 2.804185pr1000
************************************************************
Dead Time -------------------------  3E-08 
Number of Cycles Used -------------  4 
Starting Wavelength (Angstroms) ---  2950 
Final Wavelength (Angstoms) -------  2984 
Wavelength Increment (Angstroms) --  .25 
Filter Wheel #1 Position ---------- (1) Ground quartz diffuser (ND=2.32)
Filter Wheel #2 Position ---------- (1) Neutral Density 0.494



************************************************************
HS scan start time = 16:43:14
Dark Count =  6.8 


Time (GMT)  Wavelength (Ang)  Step Number  Raw Counts  Counts/Second

 1003.61        2950.00           1222          63.00       244.99
 1003.67        2950.25           1226          63.00       244.99
 1003.71        2950.50           1229          69.00       271.14
 1003.74        2950.75           1232          61.00       236.27
 1003.77        2951.00           1236          68.00       266.79
 1003.80        2951.25           1239          63.00       244.99
 1003.83        2951.50           1242          68.00       266.79
 1003.86        2951.75           1246          56.00       214.47
 1003.89        2952.00           1249          68.00       266.79
 1003.92        2952.25           1252          68.00       266.79
 1003.95        2952.50           1256          66.00       258.07
 1003.98        2952.75           1259          69.00       271.14
 1004.01        2953.00           1262          57.00       218.83
 1004.05        2953.25           1266          66.00       258.07
 1004.08        2953.50           1269          65.00       253.71
 1004.11        2953.75           1272          64.00       249.35
 1004.14        2954.00           1276          62.00       240.63
 1004.17        2954.25           1279          60.00       231.91
 1004.20        2954.50           1282          63.00       244.99
 1004.23        2954.75           1286          64.00       249.35
 1004.26        2955.00           1289          67.00       262.43
 1004.29        2955.25           1292          64.00       249.35
 1004.32        2955.50           1296          64.00       249.35
 1004.36        2955.75           1299          62.00       240.63
 1004.39        2956.00           1302          70.00       275.50
 1004.42        2956.25           1306          61.00       236.27
 1004.45        2956.50           1309          65.00       253.71
 1004.48        2956.75           1312          68.00       266.79
 1004.51        2957.00           1316          58.00       223.19
 1004.54        2957.25           1319          57.00       218.83
 1004.57        2957.50           1322          66.00       258.07
 1004.61        2957.75           1326          61.00       236.27
 1004.64        2958.00           1329          64.00       249.35
 1004.67        2958.25           1332          67.00       262.43
 1004.70        2958.50           1336          60.00       231.91
 1004.73        2958.75           1339          64.00       249.35
 1004.76        2959.00           1342          65.00       253.71
 1004.79        2959.25           1346          71.00       279.86
 1004.82        2959.50           1349          72.00       284.22
 1004.85        2959.75           1352          98.00       397.56
 1004.88        2960.00           1356         133.00       550.14
 1004.91        2960.25           1359         161.00       672.20
 1004.94        2960.50           1362         199.00       837.86
 1004.97        2960.75           1366         249.00      1055.83
 1005.01        2961.00           1369         283.00      1204.05
 1005.04        2961.25           1372         321.00      1369.72
 1005.07        2961.50           1376         363.00      1552.82
 1005.10        2961.75           1379         527.00      2267.81
 1005.13        2962.00           1382         970.00      4199.31
 1005.16        2962.25           1386        2609.00     11347.37
 1005.19        2962.50           1389        4105.00     17874.45
 1005.22        2962.75           1392        5535.00     24115.96
 1005.25        2963.00           1396        7429.00     32386.29
 1005.28        2963.25           1399        8922.00     38908.51
 1005.31        2963.50           1402       10399.00     45363.36
 1005.34        2963.75           1406       12725.00     55533.60
 1005.38        2964.00           1409       14238.00     62152.40
 1005.41        2964.25           1412       15804.00     69005.83
 1005.44        2964.50           1416       17887.00     78126.22
 1005.47        2964.75           1419       19613.00     85687.30
 1005.50        2965.00           1422       21084.00     92133.99
 1005.53        2965.25           1426       23066.00    100824.10
 1005.56        2965.50           1429       24837.00    108593.00
 1005.59        2965.75           1432       26391.00    115412.90
 1005.62        2966.00           1436       28361.00    124062.50
 1005.66        2966.25           1439       29687.00    129887.00
 1005.69        2966.50           1442       31152.00    136324.50
 1005.72        2966.75           1446       32493.00    142219.30
 1005.75        2967.00           1449       33120.00    144976.20
 1005.78        2967.25           1452       33304.00    145785.30
 1005.81        2967.50           1456       33236.00    145486.30
 1005.84        2967.75           1459       33131.00    145024.50
 1005.87        2968.00           1462       33084.00    144817.90
 1005.90        2968.25           1466       32201.00    140935.50
 1005.94        2968.50           1469       30762.00    134610.50
 1005.97        2968.75           1472       29319.00    128270.30
 1006.00        2969.00           1476       27393.00    119811.70
 1006.03        2969.25           1479       25950.00    113477.20
 1006.06        2969.50           1482       24377.00    106574.70
 1006.09        2969.75           1486       22528.00     98464.80
 1006.12        2970.00           1489       20890.00     91283.64
 1006.15        2970.25           1492       19559.00     85450.68
 1006.18        2970.50           1496       17492.00     76396.34
 1006.21        2970.75           1499       15819.00     69071.50
 1006.24        2971.00           1502       14261.00     62253.04
 1006.28        2971.25           1506       12117.00     52874.57
 1006.31        2971.50           1509       10569.00     46106.46
 1006.34        2971.75           1513        8511.00     37112.79
 1006.37        2972.00           1516        6986.00     30451.52
 1006.40        2972.25           1519        5618.00     24478.30
 1006.43        2972.50           1523        3716.00     16176.99
 1006.46        2972.75           1526        2337.00     10160.90
 1006.49        2973.00           1529        1174.00      5088.83
 1006.52        2973.25           1533         432.00      1853.63
 1006.55        2973.50           1536         288.00      1225.85
 1006.58        2973.75           1539         251.00      1064.55
 1006.62        2974.00           1543         205.00       864.02
 1006.65        2974.25           1546         163.00       680.92
 1006.68        2974.50           1549         132.00       545.78
 1006.71        2974.75           1553          86.00       345.25
 1006.74        2975.00           1556          77.00       306.02
 1006.77        2975.25           1559          74.00       292.94
 1006.80        2975.50           1563          64.00       249.35
 1006.83        2975.75           1566          63.00       244.99
 1006.86        2976.00           1569          59.00       227.55
 1006.89        2976.25           1573          67.00       262.43
 1006.92        2976.50           1576          60.00       231.91
 1006.96        2976.75           1579          55.00       210.11
 1006.99        2977.00           1583          61.00       236.27
 1007.02        2977.25           1586          57.00       218.83
 1007.05        2977.50           1590          58.00       223.19
 1007.08        2977.75           1593          62.00       240.63
 1007.11        2978.00           1596          56.00       214.47
 1007.14        2978.25           1600          59.00       227.55
 1007.17        2978.50           1603          55.00       210.11
 1007.20        2978.75           1606          64.00       249.35
 1007.23        2979.00           1610          60.00       231.91
 1007.26        2979.25           1613          61.00       236.27
 1007.29        2979.50           1616          64.00       249.35
 1007.33        2979.75           1620          57.00       218.83
 1007.36        2980.00           1623          62.00       240.63
 1007.39        2980.25           1626          65.00       253.71
 1007.42        2980.50           1630          53.00       201.40
 1007.45        2980.75           1633          67.00       262.43
 1007.48        2981.00           1637          63.00       244.99
 1007.51        2981.25           1640          59.00       227.55
 1007.54        2981.50           1643          68.00       266.79
 1007.57        2981.75           1647          56.00       214.47
 1007.60        2982.00           1650          57.00       218.83
 1007.63        2982.25           1653          63.00       244.99
 1007.67        2982.50           1657          57.00       218.83
 1007.70        2982.75           1660          60.00       231.91
 1007.73        2983.00           1663          64.00       249.35
 1007.76        2983.25           1667          60.00       231.91
 1007.79        2983.50           1670          57.00       218.83
 1007.82        2983.75           1673          64.00       249.35
 1007.85        2984.00           1677          60.00       231.91
HS scan finished at 16:48:04
end
