************************************************************
  HS Scan of (1) Internal mercury lamp
************************************************************
Integration time is 0.2294 seconds per sample
dh061217Manchester 53.47 2.23 2.804185pr1000
************************************************************
Dead Time -------------------------  3E-08 
Number of Cycles Used -------------  4 
Starting Wavelength (Angstroms) ---  2950 
Final Wavelength (Angstoms) -------  2984 
Wavelength Increment (Angstroms) --  .25 
Filter Wheel #1 Position ---------- (1) Ground quartz diffuser (ND=2.32)
Filter Wheel #2 Position ---------- (1) Neutral Density 0.494



************************************************************
HS scan start time = 05:11:21
Dark Count =  7.3 


Time (GMT)  Wavelength (Ang)  Step Number  Raw Counts  Counts/Second

  311.72        2950.00           1222          60.00       229.73
  311.79        2950.25           1226          63.00       242.81
  311.82        2950.50           1229          71.00       277.68
  311.85        2950.75           1232          68.00       264.61
  311.88        2951.00           1236          58.00       221.01
  311.91        2951.25           1239          65.00       251.53
  311.94        2951.50           1242          61.00       234.09
  311.97        2951.75           1246          62.00       238.45
  312.00        2952.00           1249          68.00       264.61
  312.03        2952.25           1252          58.00       221.01
  312.07        2952.50           1256          67.00       260.25
  312.10        2952.75           1259          63.00       242.81
  312.13        2953.00           1262          59.00       225.37
  312.16        2953.25           1266          66.00       255.89
  312.19        2953.50           1269          54.00       203.58
  312.22        2953.75           1272          67.00       260.25
  312.25        2954.00           1276          64.00       247.17
  312.28        2954.25           1279          58.00       221.01
  312.31        2954.50           1282          68.00       264.61
  312.34        2954.75           1286          64.00       247.17
  312.37        2955.00           1289          66.00       255.89
  312.40        2955.25           1292          74.00       290.76
  312.43        2955.50           1296          62.00       238.45
  312.46        2955.75           1299          70.00       273.32
  312.50        2956.00           1302          66.00       255.89
  312.53        2956.25           1306          61.00       234.09
  312.56        2956.50           1309          70.00       273.32
  312.59        2956.75           1312          61.00       234.09
  312.62        2957.00           1316          66.00       255.89
  312.65        2957.25           1319          68.00       264.61
  312.68        2957.50           1322          57.00       216.65
  312.71        2957.75           1326          62.00       238.45
  312.74        2958.00           1329          59.00       225.37
  312.77        2958.25           1332          66.00       255.89
  312.80        2958.50           1336          67.00       260.25
  312.83        2958.75           1339          60.00       229.73
  312.86        2959.00           1342          67.00       260.25
  312.89        2959.25           1346          65.00       251.53
  312.92        2959.50           1349          66.00       255.89
  312.95        2959.75           1352          70.00       273.32
  312.98        2960.00           1356          97.00       391.02
  313.02        2960.25           1359         131.00       539.24
  313.05        2960.50           1362         161.00       670.02
  313.08        2960.75           1366         211.00       887.99
  313.11        2961.00           1369         238.00      1005.70
  313.14        2961.25           1372         289.00      1228.03
  313.17        2961.50           1376         340.00      1450.37
  313.20        2961.75           1379         473.00      2030.20
  313.23        2962.00           1382         958.00      4144.80
  313.26        2962.25           1386        2535.00     11022.39
  313.29        2962.50           1389        4076.00     17745.72
  313.32        2962.75           1392        5614.00     24458.66
  313.36        2963.00           1396        7694.00     33541.58
  313.39        2963.25           1399        9082.00     39605.45
  313.42        2963.50           1402       10823.00     47214.61
  313.45        2963.75           1406       12739.00     55592.64
  313.48        2964.00           1409       14264.00     62263.98
  313.51        2964.25           1412       16031.00     69997.32
  313.54        2964.50           1416       18080.00     78969.35
  313.57        2964.75           1419       19499.00     85185.59
  313.60        2965.00           1422       21098.00     92193.16
  313.63        2965.25           1426       23330.00    101979.80
  313.66        2965.50           1429       24936.00    109025.10
  313.69        2965.75           1432       26453.00    115682.80
  313.72        2966.00           1436       28612.00    125162.60
  313.76        2966.25           1439       30042.00    131444.50
  313.79        2966.50           1442       31576.00    138185.90
  313.82        2966.75           1446       32909.00    144046.20
  313.85        2967.00           1449       33374.00    146090.90
  313.88        2967.25           1452       33205.00    145347.80
  313.91        2967.50           1456       33332.00    145906.20
  313.94        2967.75           1459       33342.00    145950.20
  313.97        2968.00           1462       33115.00    144952.00
  314.00        2968.25           1466       32181.00    140845.40
  314.04        2968.50           1469       30691.00    134296.30
  314.07        2968.75           1472       29365.00    128470.20
  314.10        2969.00           1476       27354.00    119638.30
  314.13        2969.25           1479       25757.00    112628.00
  314.16        2969.50           1482       24226.00    105910.10
  314.19        2969.75           1486       22384.00     97831.16
  314.22        2970.00           1489       20695.00     90426.77
  314.25        2970.25           1492       19404.00     84769.36
  314.28        2970.50           1496       17235.00     75268.72
  314.31        2970.75           1499       15835.00     69139.35
  314.34        2971.00           1502       14224.00     62088.96
  314.37        2971.25           1506       12063.00     52636.24
  314.41        2971.50           1509       10520.00     45890.08
  314.44        2971.75           1513        8465.00     36909.64
  314.47        2972.00           1516        6779.00     29545.36
  314.50        2972.25           1519        5426.00     23637.95
  314.53        2972.50           1523        3547.00     15437.40
  314.56        2972.75           1526        2155.00      9364.88
  314.59        2973.00           1529        1051.00      4550.32
  314.62        2973.25           1533         483.00      2073.80
  314.65        2973.50           1536         345.00      1472.17
  314.69        2973.75           1539         277.00      1175.72
  314.72        2974.00           1543         252.00      1066.73
  314.75        2974.25           1546         200.00       840.04
  314.78        2974.50           1549         163.00       678.74
  314.81        2974.75           1553         107.00       434.62
  314.84        2975.00           1556          91.00       364.87
  314.87        2975.25           1559          73.00       286.40
  314.90        2975.50           1563          66.00       255.89
  314.93        2975.75           1566          67.00       260.25
  314.96        2976.00           1569          60.00       229.73
  314.99        2976.25           1573          62.00       238.45
  315.03        2976.50           1576          61.00       234.09
  315.06        2976.75           1579          61.00       234.09
  315.09        2977.00           1583          65.00       251.53
  315.12        2977.25           1586          60.00       229.73
  315.15        2977.50           1590          65.00       251.53
  315.18        2977.75           1593          58.00       221.01
  315.21        2978.00           1596          59.00       225.37
  315.24        2978.25           1600          56.00       212.29
  315.27        2978.50           1603          57.00       216.65
  315.30        2978.75           1606          55.00       207.94
  315.33        2979.00           1610          63.00       242.81
  315.36        2979.25           1613          64.00       247.17
  315.40        2979.50           1616          54.00       203.58
  315.43        2979.75           1620          60.00       229.73
  315.46        2980.00           1623          56.00       212.29
  315.49        2980.25           1626          54.00       203.58
  315.52        2980.50           1630          65.00       251.53
  315.55        2980.75           1633          59.00       225.37
  315.58        2981.00           1637          62.00       238.45
  315.61        2981.25           1640          64.00       247.17
  315.64        2981.50           1643          56.00       212.29
  315.67        2981.75           1647          60.00       229.73
  315.70        2982.00           1650          53.00       199.22
  315.73        2982.25           1653          56.00       212.29
  315.77        2982.50           1657          60.00       229.73
  315.80        2982.75           1660          60.00       229.73
  315.83        2983.00           1663          60.00       229.73
  315.86        2983.25           1667          49.00       181.78
  315.89        2983.50           1670          61.00       234.09
  315.92        2983.75           1673          68.00       264.61
  315.95        2984.00           1677          62.00       238.45
HS scan finished at 05:16:10
end
************************************************************
  HS Scan of (1) Internal mercury lamp
************************************************************
Integration time is 0.2294 seconds per sample
dh061217Manchester 53.47 2.23 2.804185pr1000
************************************************************
Dead Time -------------------------  3E-08 
Number of Cycles Used -------------  4 
Starting Wavelength (Angstroms) ---  2950 
Final Wavelength (Angstoms) -------  2984 
Wavelength Increment (Angstroms) --  .25 
Filter Wheel #1 Position ---------- (1) Ground quartz diffuser (ND=2.32)
Filter Wheel #2 Position ---------- (1) Neutral Density 0.494



************************************************************
HS scan start time = 16:42:00
Dark Count =  6.6 


Time (GMT)  Wavelength (Ang)  Step Number  Raw Counts  Counts/Second

 1002.37        2950.00           1222          64.00       250.22
 1002.43        2950.25           1226          62.00       241.50
 1002.46        2950.50           1229          71.00       280.73
 1002.49        2950.75           1232          64.00       250.22
 1002.53        2951.00           1236          67.00       263.30
 1002.56        2951.25           1239          55.00       210.99
 1002.59        2951.50           1242          70.00       276.38
 1002.62        2951.75           1246          64.00       250.22
 1002.65        2952.00           1249          58.00       224.06
 1002.68        2952.25           1252          58.00       224.06
 1002.71        2952.50           1256          64.00       250.22
 1002.74        2952.75           1259          56.00       215.35
 1002.77        2953.00           1262          68.00       267.66
 1002.80        2953.25           1266          68.00       267.66
 1002.83        2953.50           1269          74.00       293.81
 1002.86        2953.75           1272          68.00       267.66
 1002.89        2954.00           1276          58.00       224.06
 1002.92        2954.25           1279          63.00       245.86
 1002.96        2954.50           1282          53.00       202.27
 1002.99        2954.75           1286          59.00       228.42
 1003.02        2955.00           1289          60.00       232.78
 1003.05        2955.25           1292          61.00       237.14
 1003.08        2955.50           1296          69.00       272.02
 1003.11        2955.75           1299          69.00       272.02
 1003.14        2956.00           1302          68.00       267.66
 1003.17        2956.25           1306          70.00       276.38
 1003.20        2956.50           1309          64.00       250.22
 1003.23        2956.75           1312          63.00       245.86
 1003.26        2957.00           1316          64.00       250.22
 1003.29        2957.25           1319          51.00       193.55
 1003.33        2957.50           1322          60.00       232.78
 1003.36        2957.75           1326          69.00       272.02
 1003.39        2958.00           1329          66.00       258.94
 1003.42        2958.25           1332          63.00       245.86
 1003.45        2958.50           1336          64.00       250.22
 1003.48        2958.75           1339          64.00       250.22
 1003.51        2959.00           1342          60.00       232.78
 1003.54        2959.25           1346          79.00       315.61
 1003.57        2959.50           1349          75.00       298.17
 1003.60        2959.75           1352          87.00       350.48
 1003.63        2960.00           1356         141.00       585.89
 1003.66        2960.25           1359         153.00       638.20
 1003.70        2960.50           1362         198.00       834.37
 1003.73        2960.75           1366         259.00      1100.30
 1003.76        2961.00           1369         304.00      1296.48
 1003.79        2961.25           1372         342.00      1462.14
 1003.82        2961.50           1376         402.00      1723.72
 1003.85        2961.75           1379         598.00      2578.23
 1003.88        2962.00           1382        1256.00      5447.27
 1003.91        2962.25           1386        2913.00     12674.39
 1003.94        2962.50           1389        4378.00     19066.70
 1003.97        2962.75           1392        5914.00     25771.44
 1004.01        2963.00           1396        7887.00     34387.68
 1004.04        2963.25           1399        9413.00     41054.90
 1004.07        2963.50           1402       10837.00     47278.88
 1004.10        2963.75           1406       13104.00     57192.21
 1004.13        2964.00           1409       14662.00     64008.59
 1004.16        2964.25           1412       16246.00     70941.59
 1004.19        2964.50           1416       18104.00     79077.53
 1004.22        2964.75           1419       19649.00     85845.91
 1004.25        2965.00           1422       21175.00     92533.77
 1004.28        2965.25           1426       23227.00    101531.10
 1004.32        2965.50           1429       24666.00    107843.60
 1004.35        2965.75           1432       26248.00    114786.10
 1004.38        2966.00           1436       28451.00    124458.60
 1004.41        2966.25           1439       29935.00    130977.50
 1004.44        2966.50           1442       31198.00    136527.50
 1004.47        2966.75           1446       32848.00    143781.00
 1004.50        2967.00           1449       33038.00    144616.50
 1004.53        2967.25           1452       33137.00    145051.80
 1004.56        2967.50           1456       33192.00    145293.60
 1004.60        2967.75           1459       33269.00    145632.30
 1004.63        2968.00           1462       32783.00    143495.20
 1004.66        2968.25           1466       31937.00    139775.80
 1004.69        2968.50           1469       30565.00    133745.70
 1004.72        2968.75           1472       29248.00    127959.30
 1004.75        2969.00           1476       27219.00    119048.70
 1004.78        2969.25           1479       25606.00    111968.30
 1004.81        2969.50           1482       24092.00    105325.30
 1004.84        2969.75           1486       22085.00     96523.21
 1004.88        2970.00           1489       20606.00     90039.76
 1004.91        2970.25           1492       19268.00     84176.56
 1004.94        2970.50           1496       17213.00     75175.46
 1004.97        2970.75           1499       15597.00     68100.63
 1005.00        2971.00           1502       14253.00     62218.91
 1005.03        2971.25           1506       12076.00     52696.15
 1005.06        2971.50           1509       10519.00     45888.77
 1005.09        2971.75           1513        8407.00     36659.31
 1005.12        2972.00           1516        6936.00     30234.04
 1005.15        2972.25           1519        5443.00     23715.21
 1005.19        2972.50           1523        3424.00     14903.78
 1005.22        2972.75           1526        2013.00      8748.59
 1005.25        2973.00           1529         834.00      3607.19
 1005.28        2973.25           1533         401.00      1719.36
 1005.31        2973.50           1536         305.00      1300.84
 1005.34        2973.75           1539         242.00      1026.19
 1005.37        2974.00           1543         210.00       886.68
 1005.40        2974.25           1546         152.00       633.84
 1005.43        2974.50           1549         116.00       476.90
 1005.46        2974.75           1553          85.00       341.76
 1005.49        2975.00           1556          63.00       245.86
 1005.52        2975.25           1559          65.00       254.58
 1005.55        2975.50           1563          62.00       241.50
 1005.59        2975.75           1566          63.00       245.86
 1005.62        2976.00           1569          55.00       210.99
 1005.65        2976.25           1573          52.00       197.91
 1005.68        2976.50           1576          59.00       228.42
 1005.71        2976.75           1579          57.00       219.71
 1005.74        2977.00           1583          64.00       250.22
 1005.77        2977.25           1586          68.00       267.66
 1005.80        2977.50           1590          61.00       237.14
 1005.83        2977.75           1593          53.00       202.27
 1005.86        2978.00           1596          67.00       263.30
 1005.90        2978.25           1600          61.00       237.14
 1005.93        2978.50           1603          63.00       245.86
 1005.96        2978.75           1606          61.00       237.14
 1005.99        2979.00           1610          57.00       219.71
 1006.02        2979.25           1613          60.00       232.78
 1006.05        2979.50           1616          66.00       258.94
 1006.08        2979.75           1620          57.00       219.71
 1006.11        2980.00           1623          59.00       228.42
 1006.14        2980.25           1626          54.00       206.63
 1006.17        2980.50           1630          55.00       210.99
 1006.20        2980.75           1633          61.00       237.14
 1006.23        2981.00           1637          58.00       224.06
 1006.27        2981.25           1640          60.00       232.78
 1006.30        2981.50           1643          55.00       210.99
 1006.33        2981.75           1647          62.00       241.50
 1006.36        2982.00           1650          66.00       258.94
 1006.39        2982.25           1653          57.00       219.71
 1006.42        2982.50           1657          52.00       197.91
 1006.45        2982.75           1660          60.00       232.78
 1006.48        2983.00           1663          56.00       215.35
 1006.51        2983.25           1667          62.00       241.50
 1006.54        2983.50           1670          58.00       224.06
 1006.57        2983.75           1673          64.00       250.22
 1006.60        2984.00           1677          61.00       237.14
HS scan finished at 16:46:49
end
