************************************************************
  HS Scan of (1) Internal mercury lamp
************************************************************
Integration time is 0.2294 seconds per sample
dh121217Manchester 53.47 2.23 2.750537pr1000
************************************************************
Dead Time -------------------------  3E-08 
Number of Cycles Used -------------  4 
Starting Wavelength (Angstroms) ---  2950 
Final Wavelength (Angstoms) -------  2984 
Wavelength Increment (Angstroms) --  .25 
Filter Wheel #1 Position ---------- (1) Ground quartz diffuser (ND=2.32)
Filter Wheel #2 Position ---------- (1) Neutral Density 0.494



************************************************************
HS scan start time = 05:17:03
Dark Count =  7 


Time (GMT)  Wavelength (Ang)  Step Number  Raw Counts  Counts/Second

  317.41        2950.00           1222          65.00       252.84
  317.48        2950.25           1226          66.00       257.19
  317.51        2950.50           1229          61.00       235.40
  317.54        2950.75           1232          59.00       226.68
  317.57        2951.00           1236          69.00       270.27
  317.61        2951.25           1239          68.00       265.91
  317.64        2951.50           1242          69.00       270.27
  317.67        2951.75           1246          60.00       231.04
  317.70        2952.00           1249          58.00       222.32
  317.73        2952.25           1252          65.00       252.84
  317.76        2952.50           1256          68.00       265.91
  317.79        2952.75           1259          59.00       226.68
  317.82        2953.00           1262          63.00       244.12
  317.85        2953.25           1266          68.00       265.91
  317.88        2953.50           1269          63.00       244.12
  317.91        2953.75           1272          64.00       248.48
  317.94        2954.00           1276          62.00       239.76
  317.98        2954.25           1279          63.00       244.12
  318.01        2954.50           1282          64.00       248.48
  318.04        2954.75           1286          68.00       265.91
  318.07        2955.00           1289          62.00       239.76
  318.10        2955.25           1292          61.00       235.40
  318.13        2955.50           1296          64.00       248.48
  318.16        2955.75           1299          65.00       252.84
  318.19        2956.00           1302          64.00       248.48
  318.22        2956.25           1306          63.00       244.12
  318.25        2956.50           1309          74.00       292.07
  318.28        2956.75           1312          60.00       231.04
  318.31        2957.00           1316          65.00       252.84
  318.34        2957.25           1319          64.00       248.48
  318.38        2957.50           1322          61.00       235.40
  318.41        2957.75           1326          66.00       257.19
  318.44        2958.00           1329          56.00       213.60
  318.47        2958.25           1332          66.00       257.19
  318.50        2958.50           1336          60.00       231.04
  318.53        2958.75           1339          65.00       252.84
  318.56        2959.00           1342          74.00       292.07
  318.59        2959.25           1346          71.00       278.99
  318.62        2959.50           1349          67.00       261.55
  318.65        2959.75           1352          74.00       292.07
  318.68        2960.00           1356          94.00       379.25
  318.71        2960.25           1359         125.00       514.39
  318.74        2960.50           1362         139.00       575.42
  318.78        2960.75           1366         204.00       858.78
  318.81        2961.00           1369         242.00      1024.44
  318.84        2961.25           1372         284.00      1207.54
  318.87        2961.50           1376         351.00      1499.63
  318.90        2961.75           1379         461.00      1979.19
  318.93        2962.00           1382         876.00      3788.57
  318.96        2962.25           1386        2366.00     10286.52
  318.99        2962.50           1389        3746.00     16307.02
  319.02        2962.75           1392        5177.00     22552.31
  319.05        2963.00           1396        7196.00     31367.78
  319.08        2963.25           1399        8801.00     38378.95
  319.11        2963.50           1402       10520.00     45891.39
  319.15        2963.75           1406       12456.00     54356.22
  319.18        2964.00           1409       14033.00     61254.57
  319.21        2964.25           1412       15666.00     68400.90
  319.24        2964.50           1416       17670.00     77174.99
  319.27        2964.75           1419       19272.00     84192.33
  319.30        2965.00           1422       20883.00     91252.09
  319.33        2965.25           1426       22757.00     99468.12
  319.36        2965.50           1429       24399.00    106670.40
  319.39        2965.75           1432       26059.00    113954.70
  319.42        2966.00           1436       28162.00    123187.60
  319.46        2966.25           1439       29757.00    130193.70
  319.49        2966.50           1442       31165.00    136380.80
  319.52        2966.75           1446       32629.00    142816.40
  319.55        2967.00           1449       33223.00    145428.20
  319.58        2967.25           1452       33269.00    145630.50
  319.61        2967.50           1456       33330.00    145898.80
  319.64        2967.75           1459       33364.00    146048.30
  319.67        2968.00           1462       33172.00    145203.90
  319.70        2968.25           1466       32535.00    142403.10
  319.74        2968.50           1469       31498.00    137844.40
  319.77        2968.75           1472       30049.00    131476.60
  319.80        2969.00           1476       28152.00    123143.70
  319.83        2969.25           1479       26458.00    115706.10
  319.86        2969.50           1482       24849.00    108644.70
  319.89        2969.75           1486       22699.00     99213.78
  319.92        2970.00           1489       21207.00     92672.28
  319.95        2970.25           1492       19975.00     87272.68
  319.98        2970.50           1496       17805.00     77766.22
  320.02        2970.75           1499       16429.00     71741.00
  320.05        2971.00           1502       14928.00     65170.89
  320.08        2971.25           1506       12923.00     56398.75
  320.11        2971.50           1509       11347.00     49506.78
  320.14        2971.75           1513        9181.00     40039.35
  320.17        2972.00           1516        7608.00     33167.25
  320.20        2972.25           1519        6119.00     26664.74
  320.23        2972.50           1523        4122.00     17947.76
  320.26        2972.75           1526        2691.00     11704.20
  320.29        2973.00           1529        1448.00      6282.79
  320.33        2973.25           1533         539.00      2319.25
  320.36        2973.50           1536         356.00      1521.43
  320.39        2973.75           1539         300.00      1277.29
  320.42        2974.00           1543         254.00      1076.76
  320.45        2974.25           1546         213.00       898.02
  320.48        2974.50           1549         152.00       632.10
  320.51        2974.75           1553         108.00       440.28
  320.54        2975.00           1556          90.00       361.82
  320.57        2975.25           1559          68.00       265.91
  320.60        2975.50           1563          63.00       244.12
  320.63        2975.75           1566          68.00       265.91
  320.67        2976.00           1569          61.00       235.40
  320.70        2976.25           1573          62.00       239.76
  320.73        2976.50           1576          63.00       244.12
  320.76        2976.75           1579          57.00       217.96
  320.79        2977.00           1583          57.00       217.96
  320.82        2977.25           1586          62.00       239.76
  320.85        2977.50           1590          59.00       226.68
  320.88        2977.75           1593          64.00       248.48
  320.91        2978.00           1596          59.00       226.68
  320.94        2978.25           1600          59.00       226.68
  320.97        2978.50           1603          52.00       196.17
  321.00        2978.75           1606          61.00       235.40
  321.03        2979.00           1610          62.00       239.76
  321.07        2979.25           1613          58.00       222.32
  321.10        2979.50           1616          69.00       270.27
  321.13        2979.75           1620          62.00       239.76
  321.16        2980.00           1623          57.00       217.96
  321.19        2980.25           1626          62.00       239.76
  321.22        2980.50           1630          56.00       213.60
  321.25        2980.75           1633          51.00       191.81
  321.28        2981.00           1637          56.00       213.60
  321.31        2981.25           1640          54.00       204.88
  321.34        2981.50           1643          61.00       235.40
  321.37        2981.75           1647          60.00       231.04
  321.41        2982.00           1650          62.00       239.76
  321.44        2982.25           1653          61.00       235.40
  321.47        2982.50           1657          56.00       213.60
  321.50        2982.75           1660          53.00       200.52
  321.53        2983.00           1663          60.00       231.04
  321.56        2983.25           1667          61.00       235.40
  321.59        2983.50           1670          60.00       231.04
  321.62        2983.75           1673          64.00       248.48
  321.65        2984.00           1677          56.00       213.60
HS scan finished at 05:21:52
end
************************************************************
  HS Scan of (1) Internal mercury lamp
************************************************************
Integration time is 0.2294 seconds per sample
dh121217Manchester 53.47 2.23 2.804185pr1000
************************************************************
Dead Time -------------------------  3E-08 
Number of Cycles Used -------------  4 
Starting Wavelength (Angstroms) ---  2950 
Final Wavelength (Angstoms) -------  2984 
Wavelength Increment (Angstroms) --  .25 
Filter Wheel #1 Position ---------- (1) Ground quartz diffuser (ND=2.32)
Filter Wheel #2 Position ---------- (1) Neutral Density 0.494



************************************************************
HS scan start time = 16:42:00
Dark Count =  5.7 


Time (GMT)  Wavelength (Ang)  Step Number  Raw Counts  Counts/Second

 1002.36        2950.00           1222          66.00       262.86
 1002.43        2950.25           1226          61.00       241.07
 1002.46        2950.50           1229          79.00       319.53
 1002.49        2950.75           1232          59.00       232.35
 1002.52        2951.00           1236          65.00       258.50
 1002.55        2951.25           1239          66.00       262.86
 1002.58        2951.50           1242          60.00       236.71
 1002.61        2951.75           1246          59.00       232.35
 1002.64        2952.00           1249          72.00       289.02
 1002.68        2952.25           1252          65.00       258.50
 1002.71        2952.50           1256          53.00       206.19
 1002.74        2952.75           1259          62.00       245.42
 1002.77        2953.00           1262          73.00       293.38
 1002.80        2953.25           1266          65.00       258.50
 1002.83        2953.50           1269          55.00       214.91
 1002.86        2953.75           1272          59.00       232.35
 1002.89        2954.00           1276          71.00       284.66
 1002.92        2954.25           1279          65.00       258.50
 1002.95        2954.50           1282          70.00       280.30
 1002.98        2954.75           1286          73.00       293.38
 1003.02        2955.00           1289          67.00       267.22
 1003.05        2955.25           1292          62.00       245.42
 1003.08        2955.50           1296          63.00       249.78
 1003.11        2955.75           1299          61.00       241.07
 1003.14        2956.00           1302          62.00       245.42
 1003.17        2956.25           1306          67.00       267.22
 1003.20        2956.50           1309          60.00       236.71
 1003.23        2956.75           1312          64.00       254.14
 1003.26        2957.00           1316          62.00       245.42
 1003.29        2957.25           1319          64.00       254.14
 1003.33        2957.50           1322          63.00       249.78
 1003.36        2957.75           1326          60.00       236.71
 1003.39        2958.00           1329          64.00       254.14
 1003.42        2958.25           1332          61.00       241.07
 1003.45        2958.50           1336          59.00       232.35
 1003.48        2958.75           1339          70.00       280.30
 1003.51        2959.00           1342          57.00       223.63
 1003.54        2959.25           1346          69.00       275.94
 1003.57        2959.50           1349          68.00       271.58
 1003.60        2959.75           1352          92.00       376.20
 1003.63        2960.00           1356         119.00       493.90
 1003.66        2960.25           1359         156.00       655.20
 1003.70        2960.50           1362         191.00       807.78
 1003.73        2960.75           1366         233.00       990.88
 1003.76        2961.00           1369         272.00      1160.89
 1003.79        2961.25           1372         328.00      1405.03
 1003.82        2961.50           1376         409.00      1758.16
 1003.85        2961.75           1379         599.00      2586.51
 1003.88        2962.00           1382        1195.00      5185.20
 1003.91        2962.25           1386        2945.00     12817.92
 1003.94        2962.50           1389        4341.00     18909.15
 1003.97        2962.75           1392        5888.00     25661.86
 1004.00        2963.00           1396        7884.00     34378.51
 1004.04        2963.25           1399        9488.00     41386.58
 1004.07        2963.50           1402       11023.00     48095.94
 1004.10        2963.75           1406       13182.00     57537.33
 1004.13        2964.00           1409       14947.00     65259.73
 1004.16        2964.25           1412       16274.00     71068.10
 1004.19        2964.50           1416       18312.00     79992.53
 1004.22        2964.75           1419       19858.00     86765.66
 1004.25        2965.00           1422       21400.00     93524.02
 1004.28        2965.25           1426       23626.00    103285.10
 1004.31        2965.50           1429       25204.00    110208.20
 1004.34        2965.75           1432       26891.00    117612.60
 1004.38        2966.00           1436       28949.00    126649.90
 1004.41        2966.25           1439       30195.00    132123.80
 1004.44        2966.50           1442       31458.00    137674.30
 1004.47        2966.75           1446       32792.00    143538.80
 1004.50        2967.00           1449       33104.00    144910.60
 1004.53        2967.25           1452       33302.00    145781.40
 1004.56        2967.50           1456       33152.00    145121.70
 1004.59        2967.75           1459       32980.00    144365.40
 1004.62        2968.00           1462       32915.00    144079.60
 1004.65        2968.25           1466       31745.00    138935.80
 1004.69        2968.50           1469       30187.00    132088.70
 1004.72        2968.75           1472       28934.00    126584.00
 1004.75        2969.00           1476       26896.00    117634.60
 1004.78        2969.25           1479       25146.00    109953.60
 1004.81        2969.50           1482       23875.00    104377.30
 1004.84        2969.75           1486       21875.00     95606.44
 1004.87        2970.00           1489       20178.00     88167.96
 1004.90        2970.25           1492       18862.00     82401.81
 1004.93        2970.50           1496       16938.00     73975.24
 1004.97        2970.75           1499       15339.00     66975.33
 1005.00        2971.00           1502       13839.00     60411.48
 1005.03        2971.25           1506       11634.00     50767.33
 1005.06        2971.50           1509       10055.00     43864.57
 1005.09        2971.75           1513        8109.00     35361.38
 1005.12        2972.00           1516        6672.00     29085.09
 1005.15        2972.25           1519        5265.00     22942.12
 1005.18        2972.50           1523        3305.00     14388.51
 1005.21        2972.75           1526        1977.00      8595.50
 1005.25        2973.00           1529         848.00      3672.16
 1005.28        2973.25           1533         384.00      1649.17
 1005.31        2973.50           1536         308.00      1317.84
 1005.34        2973.75           1539         247.00      1051.91
 1005.37        2974.00           1543         208.00       881.89
 1005.40        2974.25           1546         156.00       655.20
 1005.43        2974.50           1549         131.00       546.22
 1005.46        2974.75           1553          84.00       341.33
 1005.49        2975.00           1556          66.00       262.86
 1005.52        2975.25           1559          70.00       280.30
 1005.55        2975.50           1563          71.00       284.66
 1005.59        2975.75           1566          63.00       249.78
 1005.62        2976.00           1569          63.00       249.78
 1005.65        2976.25           1573          57.00       223.63
 1005.68        2976.50           1576          58.00       227.99
 1005.71        2976.75           1579          61.00       241.07
 1005.74        2977.00           1583          64.00       254.14
 1005.77        2977.25           1586          64.00       254.14
 1005.80        2977.50           1590          60.00       236.71
 1005.83        2977.75           1593          67.00       267.22
 1005.86        2978.00           1596          65.00       258.50
 1005.89        2978.25           1600          49.00       188.75
 1005.93        2978.50           1603          58.00       227.99
 1005.96        2978.75           1606          56.00       219.27
 1005.99        2979.00           1610          54.00       210.55
 1006.02        2979.25           1613          63.00       249.78
 1006.05        2979.50           1616          62.00       245.42
 1006.08        2979.75           1620          65.00       258.50
 1006.11        2980.00           1623          48.00       184.40
 1006.14        2980.25           1626          64.00       254.14
 1006.17        2980.50           1630          54.00       210.55
 1006.20        2980.75           1633          66.00       262.86
 1006.23        2981.00           1637          60.00       236.71
 1006.28        2981.25           1640          57.00       223.63
 1006.31        2981.50           1643          53.00       206.19
 1006.34        2981.75           1647          59.00       232.35
 1006.37        2982.00           1650          60.00       236.71
 1006.40        2982.25           1653          56.00       219.27
 1006.43        2982.50           1657          54.00       210.55
 1006.46        2982.75           1660          60.00       236.71
 1006.49        2983.00           1663          56.00       219.27
 1006.53        2983.25           1667          57.00       223.63
 1006.56        2983.50           1670          60.00       236.71
 1006.59        2983.75           1673          56.00       219.27
 1006.62        2984.00           1677          54.00       210.55
HS scan finished at 16:46:50
end
