************************************************************
  HS Scan of (1) Internal mercury lamp
************************************************************
Integration time is 0.2294 seconds per sample
dh081218Manchester 53.47 2.23 2.804185pr1000
************************************************************
Dead Time -------------------------  3E-08 
Number of Cycles Used -------------  4 
Starting Wavelength (Angstroms) ---  2950 
Final Wavelength (Angstoms) -------  2984 
Wavelength Increment (Angstroms) --  .25 
Filter Wheel #1 Position ---------- (1) Ground quartz diffuser (ND=2.32)
Filter Wheel #2 Position ---------- (1) Neutral Density 0.494



************************************************************
HS scan start time = 05:13:05
Dark Count =  6.7 


Time (GMT)  Wavelength (Ang)  Step Number  Raw Counts  Counts/Second

  313.46        2950.00           1222          55.00       210.55
  313.53        2950.25           1226          54.00       206.19
  313.56        2950.50           1229          48.00       180.04
  313.59        2950.75           1232          52.00       197.47
  313.62        2951.00           1236          53.00       201.83
  313.65        2951.25           1239          49.00       184.40
  313.68        2951.50           1242          56.00       214.91
  313.71        2951.75           1246          60.00       232.35
  313.74        2952.00           1249          55.00       210.55
  313.77        2952.25           1252          70.00       275.94
  313.80        2952.50           1256          54.00       206.19
  313.83        2952.75           1259          56.00       214.91
  313.86        2953.00           1262          50.00       188.75
  313.89        2953.25           1266          50.00       188.75
  313.92        2953.50           1269          66.00       258.50
  313.96        2953.75           1272          55.00       210.55
  313.99        2954.00           1276          58.00       223.63
  314.02        2954.25           1279          52.00       197.47
  314.05        2954.50           1282          63.00       245.42
  314.08        2954.75           1286          57.00       219.27
  314.11        2955.00           1289          49.00       184.40
  314.14        2955.25           1292          54.00       206.19
  314.17        2955.50           1296          50.00       188.75
  314.20        2955.75           1299          55.00       210.55
  314.23        2956.00           1302          57.00       219.27
  314.26        2956.25           1306          54.00       206.19
  314.29        2956.50           1309          55.00       210.55
  314.32        2956.75           1312          57.00       219.27
  314.36        2957.00           1316          52.00       197.47
  314.39        2957.25           1319          57.00       219.27
  314.42        2957.50           1322          54.00       206.19
  314.45        2957.75           1326          51.00       193.11
  314.48        2958.00           1329          50.00       188.75
  314.51        2958.25           1332          62.00       241.07
  314.54        2958.50           1336          48.00       180.04
  314.57        2958.75           1339          58.00       223.63
  314.60        2959.00           1342          55.00       210.55
  314.63        2959.25           1346          59.00       227.99
  314.66        2959.50           1349          52.00       197.47
  314.69        2959.75           1352          65.00       254.14
  314.72        2960.00           1356          74.00       293.38
  314.76        2960.25           1359          92.00       371.84
  314.79        2960.50           1362         119.00       489.55
  314.82        2960.75           1366         148.00       615.97
  314.85        2961.00           1369         182.00       764.18
  314.88        2961.25           1372         204.00       860.09
  314.91        2961.50           1376         261.00      1108.58
  314.94        2961.75           1379         301.00      1282.96
  314.97        2962.00           1382         435.00      1867.15
  315.00        2962.25           1386        1250.00      5420.67
  315.03        2962.50           1389        2330.00     10130.80
  315.06        2962.75           1392        3458.00     15051.70
  315.09        2963.00           1396        4845.00     21104.47
  315.12        2963.25           1399        5972.00     26024.24
  315.15        2963.50           1402        6905.00     30098.22
  315.18        2963.75           1406        8458.00     36881.68
  315.22        2964.00           1409        9571.00     41744.92
  315.25        2964.25           1412       10796.00     47099.20
  315.28        2964.50           1416       12301.00     53679.67
  315.31        2964.75           1419       13367.00     58342.22
  315.34        2965.00           1422       14368.00     62721.66
  315.37        2965.25           1426       15862.00     69260.15
  315.40        2965.50           1429       17066.00     74531.33
  315.43        2965.75           1432       18337.00     80097.65
  315.46        2966.00           1436       19656.00     85876.15
  315.50        2966.25           1439       20973.00     91647.89
  315.53        2966.50           1442       21891.00     95672.19
  315.56        2966.75           1446       22988.00    100482.50
  315.59        2967.00           1449       23701.00    103609.70
  315.62        2967.25           1452       23738.00    103772.00
  315.65        2967.50           1456       23873.00    104364.20
  315.68        2967.75           1459       23796.00    104026.40
  315.71        2968.00           1462       23796.00    104026.40
  315.74        2968.25           1466       23356.00    102096.50
  315.77        2968.50           1469       22457.00     98153.91
  315.80        2968.75           1472       21695.00     94812.90
  315.84        2969.00           1476       20196.00     88242.44
  315.87        2969.25           1479       19241.00     84057.84
  315.90        2969.50           1482       18186.00     79436.25
  315.93        2969.75           1486       16673.00     72810.57
  315.96        2970.00           1489       15494.00     67649.36
  315.99        2970.25           1492       14468.00     63159.23
  316.02        2970.50           1496       13085.00     57108.66
  316.05        2970.75           1499       12121.00     52892.49
  316.08        2971.00           1502       11011.00     48039.10
  316.11        2971.25           1506        9622.00     41967.80
  316.15        2971.50           1509        8280.00     36104.04
  316.18        2971.75           1513        6855.00     29879.87
  316.21        2972.00           1516        5792.00     25238.37
  316.24        2972.25           1519        4596.00     20017.68
  316.27        2972.50           1523        3322.00     14458.32
  316.30        2972.75           1526        2309.00     10039.21
  316.33        2973.00           1529        1252.00      5429.39
  316.36        2973.25           1533         458.00      1967.42
  316.39        2973.50           1536         297.00      1265.52
  316.43        2973.75           1539         242.00      1025.75
  316.46        2974.00           1543         210.00       886.25
  316.49        2974.25           1546         157.00       655.20
  316.52        2974.50           1549         138.00       572.37
  316.55        2974.75           1553          88.00       354.41
  316.58        2975.00           1556          74.00       293.38
  316.61        2975.25           1559          60.00       232.35
  316.64        2975.50           1563          50.00       188.75
  316.67        2975.75           1566          48.00       180.04
  316.70        2976.00           1569          58.00       223.63
  316.74        2976.25           1573          53.00       201.83
  316.77        2976.50           1576          53.00       201.83
  316.80        2976.75           1579          47.00       175.68
  316.83        2977.00           1583          51.00       193.11
  316.86        2977.25           1586          49.00       184.40
  316.89        2977.50           1590          47.00       175.68
  316.92        2977.75           1593          57.00       219.27
  316.95        2978.00           1596          46.00       171.32
  316.98        2978.25           1600          54.00       206.19
  317.01        2978.50           1603          51.00       193.11
  317.05        2978.75           1606          49.00       184.40
  317.08        2979.00           1610          51.00       193.11
  317.11        2979.25           1613          51.00       193.11
  317.14        2979.50           1616          54.00       206.19
  317.17        2979.75           1620          44.00       162.60
  317.20        2980.00           1623          48.00       180.04
  317.23        2980.25           1626          60.00       232.35
  317.26        2980.50           1630          50.00       188.75
  317.29        2980.75           1633          51.00       193.11
  317.32        2981.00           1637          52.00       197.47
  317.35        2981.25           1640          46.00       171.32
  317.38        2981.50           1643          44.00       162.60
  317.42        2981.75           1647          44.00       162.60
  317.45        2982.00           1650          46.00       171.32
  317.48        2982.25           1653          45.00       166.96
  317.51        2982.50           1657          56.00       214.91
  317.54        2982.75           1660          51.00       193.11
  317.57        2983.00           1663          44.00       162.60
  317.60        2983.25           1667          46.00       171.32
  317.63        2983.50           1670          47.00       175.68
  317.66        2983.75           1673          48.00       180.04
  317.69        2984.00           1677          46.00       171.32
HS scan finished at 05:17:55
end
************************************************************
  HS Scan of (1) Internal mercury lamp
************************************************************
Integration time is 0.2294 seconds per sample
dh081218Manchester 53.47 2.23 2.804185pr1000
************************************************************
Dead Time -------------------------  3E-08 
Number of Cycles Used -------------  4 
Starting Wavelength (Angstroms) ---  2950 
Final Wavelength (Angstoms) -------  2984 
Wavelength Increment (Angstroms) --  .25 
Filter Wheel #1 Position ---------- (1) Ground quartz diffuser (ND=2.32)
Filter Wheel #2 Position ---------- (1) Neutral Density 0.494



************************************************************
HS scan start time = 16:42:06
Dark Count =  8 


Time (GMT)  Wavelength (Ang)  Step Number  Raw Counts  Counts/Second

 1002.47        2950.00           1222          55.00       204.88
 1002.53        2950.25           1226          60.00       226.68
 1002.56        2950.50           1229          55.00       204.88
 1002.60        2950.75           1232          57.00       213.60
 1002.63        2951.00           1236          52.00       191.81
 1002.66        2951.25           1239          61.00       231.04
 1002.69        2951.50           1242          58.00       217.96
 1002.72        2951.75           1246          73.00       283.35
 1002.75        2952.00           1249          51.00       187.45
 1002.78        2952.25           1252          67.00       257.19
 1002.81        2952.50           1256          64.00       244.12
 1002.84        2952.75           1259          56.00       209.24
 1002.87        2953.00           1262          47.00       170.01
 1002.91        2953.25           1266          54.00       200.52
 1002.94        2953.50           1269          50.00       183.09
 1002.97        2953.75           1272          48.00       174.37
 1003.00        2954.00           1276          53.00       196.17
 1003.03        2954.25           1279          52.00       191.81
 1003.06        2954.50           1282          51.00       187.45
 1003.09        2954.75           1286          50.00       183.09
 1003.12        2955.00           1289          50.00       183.09
 1003.15        2955.25           1292          48.00       174.37
 1003.18        2955.50           1296          56.00       209.24
 1003.21        2955.75           1299          49.00       178.73
 1003.24        2956.00           1302          50.00       183.09
 1003.28        2956.25           1306          49.00       178.73
 1003.31        2956.50           1309          50.00       183.09
 1003.34        2956.75           1312          55.00       204.88
 1003.37        2957.00           1316          65.00       248.48
 1003.40        2957.25           1319          52.00       191.81
 1003.43        2957.50           1322          50.00       183.09
 1003.46        2957.75           1326          50.00       183.09
 1003.49        2958.00           1329          48.00       174.37
 1003.52        2958.25           1332          56.00       209.24
 1003.55        2958.50           1336          48.00       174.37
 1003.58        2958.75           1339          46.00       165.65
 1003.61        2959.00           1342          61.00       231.04
 1003.65        2959.25           1346          58.00       217.96
 1003.68        2959.50           1349          49.00       178.73
 1003.71        2959.75           1352          71.00       274.63
 1003.74        2960.00           1356          80.00       313.87
 1003.77        2960.25           1359          82.00       322.58
 1003.80        2960.50           1362         121.00       492.60
 1003.83        2960.75           1366         148.00       610.30
 1003.86        2961.00           1369         186.00       775.96
 1003.89        2961.25           1372         216.00       906.74
 1003.92        2961.50           1376         253.00      1068.04
 1003.95        2961.75           1379         329.00      1399.36
 1003.98        2962.00           1382         662.00      2851.16
 1004.01        2962.25           1386        1693.00      7346.87
 1004.04        2962.50           1389        2751.00     11961.57
 1004.08        2962.75           1392        3779.00     16446.65
 1004.11        2963.00           1396        5052.00     22002.31
 1004.14        2963.25           1399        6095.00     26555.59
 1004.17        2963.50           1402        7230.00     31511.91
 1004.20        2963.75           1406        8717.00     38007.56
 1004.23        2964.00           1409        9709.00     42342.33
 1004.26        2964.25           1412       10787.00     47054.17
 1004.29        2964.50           1416       12387.00     54050.08
 1004.32        2964.75           1419       13569.00     59220.20
 1004.36        2965.00           1422       14523.00     63394.21
 1004.39        2965.25           1426       15898.00     69412.05
 1004.42        2965.50           1429       17076.00     74569.43
 1004.45        2965.75           1432       18236.00     79649.55
 1004.48        2966.00           1436       19702.00     86072.02
 1004.51        2966.25           1439       20672.00     90322.88
 1004.54        2966.50           1442       21604.00     94408.25
 1004.57        2966.75           1446       22860.00     99915.43
 1004.60        2967.00           1449       22945.00    100288.20
 1004.64        2967.25           1452       22985.00    100463.60
 1004.67        2967.50           1456       23096.00    100950.40
 1004.70        2967.75           1459       23081.00    100884.60
 1004.73        2968.00           1462       23049.00    100744.30
 1004.76        2968.25           1466       22573.00     98656.88
 1004.79        2968.50           1469       21682.00     94750.21
 1004.82        2968.75           1472       20613.00     90064.29
 1004.85        2969.00           1476       19182.00     83793.65
 1004.88        2969.25           1479       18041.00     78795.46
 1004.91        2969.50           1482       16999.00     74232.27
 1004.95        2969.75           1486       15631.00     68243.33
 1004.98        2970.00           1489       14779.00     64514.46
 1005.01        2970.25           1492       13762.00     60064.55
 1005.04        2970.50           1496       12252.00     53459.69
 1005.07        2970.75           1499       11230.00     48990.87
 1005.10        2971.00           1502       10159.00     44309.08
 1005.13        2971.25           1506        8741.00     38112.43
 1005.16        2971.50           1509        7650.00     33346.34
 1005.19        2971.75           1513        6214.00     27075.17
 1005.22        2972.00           1516        5162.00     22482.47
 1005.25        2972.25           1519        4125.00     17956.49
 1005.29        2972.50           1523        2661.00     11568.97
 1005.32        2972.75           1526        1681.00      7294.53
 1005.35        2973.00           1529         877.00      3788.57
 1005.38        2973.25           1533         362.00      1543.23
 1005.41        2973.50           1536         258.00      1089.84
 1005.44        2973.75           1539         212.00       889.30
 1005.47        2974.00           1543         186.00       775.96
 1005.50        2974.25           1546         128.00       523.11
 1005.53        2974.50           1549         110.00       444.64
 1005.56        2974.75           1553          83.00       326.94
 1005.60        2975.00           1556          58.00       217.96
 1005.63        2975.25           1559          57.00       213.60
 1005.66        2975.50           1563          55.00       204.88
 1005.69        2975.75           1566          49.00       178.73
 1005.72        2976.00           1569          57.00       213.60
 1005.75        2976.25           1573          50.00       183.09
 1005.78        2976.50           1576          59.00       222.32
 1005.81        2976.75           1579          56.00       209.24
 1005.84        2977.00           1583          47.00       170.01
 1005.87        2977.25           1586          48.00       174.37
 1005.90        2977.50           1590          51.00       187.45
 1005.93        2977.75           1593          52.00       191.81
 1005.97        2978.00           1596          54.00       200.52
 1006.00        2978.25           1600          54.00       200.52
 1006.03        2978.50           1603          58.00       217.96
 1006.06        2978.75           1606          49.00       178.73
 1006.09        2979.00           1610          51.00       187.45
 1006.12        2979.25           1613          49.00       178.73
 1006.15        2979.50           1616          58.00       217.96
 1006.18        2979.75           1620          50.00       183.09
 1006.21        2980.00           1623          52.00       191.81
 1006.24        2980.25           1626          45.00       161.29
 1006.27        2980.50           1630          51.00       187.45
 1006.30        2980.75           1633          52.00       191.81
 1006.33        2981.00           1637          54.00       200.52
 1006.37        2981.25           1640          55.00       204.88
 1006.40        2981.50           1643          56.00       209.24
 1006.43        2981.75           1647          50.00       183.09
 1006.46        2982.00           1650          48.00       174.37
 1006.49        2982.25           1653          51.00       187.45
 1006.52        2982.50           1657          47.00       170.01
 1006.55        2982.75           1660          45.00       161.29
 1006.58        2983.00           1663          44.00       156.93
 1006.61        2983.25           1667          47.00       170.01
 1006.64        2983.50           1670          46.00       165.65
 1006.67        2983.75           1673          48.00       174.37
 1006.70        2984.00           1677          54.00       200.52
HS scan finished at 16:46:55
end
