************************************************************
  HS Scan of (1) Internal mercury lamp
************************************************************
Integration time is 0.2294 seconds per sample
dh111218Manchester 53.47 2.23 2.804185pr1000
************************************************************
Dead Time -------------------------  3E-08 
Number of Cycles Used -------------  4 
Starting Wavelength (Angstroms) ---  2950 
Final Wavelength (Angstoms) -------  2984 
Wavelength Increment (Angstroms) --  .25 
Filter Wheel #1 Position ---------- (1) Ground quartz diffuser (ND=2.32)
Filter Wheel #2 Position ---------- (1) Neutral Density 0.494



************************************************************
HS scan start time = 05:15:55
Dark Count =  6.3 


Time (GMT)  Wavelength (Ang)  Step Number  Raw Counts  Counts/Second

  316.29        2950.00           1222          62.00       242.81
  316.36        2950.25           1226          54.00       207.94
  316.39        2950.50           1229          55.00       212.29
  316.42        2950.75           1232          54.00       207.94
  316.45        2951.00           1236          63.00       247.17
  316.48        2951.25           1239          57.00       221.01
  316.51        2951.50           1242          58.00       225.37
  316.55        2951.75           1246          58.00       225.37
  316.58        2952.00           1249          55.00       212.29
  316.61        2952.25           1252          55.00       212.29
  316.64        2952.50           1256          53.00       203.58
  316.67        2952.75           1259          60.00       234.09
  316.70        2953.00           1262          52.00       199.22
  316.73        2953.25           1266          55.00       212.29
  316.76        2953.50           1269          50.00       190.50
  316.79        2953.75           1272          52.00       199.22
  316.82        2954.00           1276          53.00       203.58
  316.85        2954.25           1279          57.00       221.01
  316.89        2954.50           1282          54.00       207.94
  316.92        2954.75           1286          56.00       216.65
  316.95        2955.00           1289          56.00       216.65
  316.98        2955.25           1292          61.00       238.45
  317.01        2955.50           1296          53.00       203.58
  317.04        2955.75           1299          50.00       190.50
  317.07        2956.00           1302          53.00       203.58
  317.10        2956.25           1306          52.00       199.22
  317.13        2956.50           1309          55.00       212.29
  317.17        2956.75           1312          59.00       229.73
  317.20        2957.00           1316          58.00       225.37
  317.23        2957.25           1319          58.00       225.37
  317.26        2957.50           1322          58.00       225.37
  317.29        2957.75           1326          54.00       207.94
  317.32        2958.00           1329          48.00       181.78
  317.35        2958.25           1332          52.00       199.22
  317.38        2958.50           1336          58.00       225.37
  317.41        2958.75           1339          50.00       190.50
  317.44        2959.00           1342          55.00       212.29
  317.47        2959.25           1346          58.00       225.37
  317.50        2959.50           1349          65.00       255.89
  317.54        2959.75           1352          54.00       207.94
  317.57        2960.00           1356          73.00       290.76
  317.60        2960.25           1359          97.00       395.38
  317.63        2960.50           1362         118.00       486.93
  317.66        2960.75           1366         170.00       713.62
  317.69        2961.00           1369         188.00       792.09
  317.72        2961.25           1372         230.00       975.18
  317.75        2961.50           1376         287.00      1223.67
  317.78        2961.75           1379         397.00      1703.23
  317.81        2962.00           1382         851.00      3682.62
  317.85        2962.25           1386        2168.00      9425.94
  317.88        2962.50           1389        3326.00     14477.52
  317.91        2962.75           1392        4571.00     19910.32
  317.94        2963.00           1396        5979.00     26056.55
  317.97        2963.25           1399        7123.00     31052.02
  318.00        2963.50           1402        8239.00     35926.67
  318.03        2963.75           1406        9918.00     43263.18
  318.06        2964.00           1409       11176.00     48762.21
  318.09        2964.25           1412       12203.00     53252.84
  318.13        2964.50           1416       13909.00     60715.11
  318.16        2964.75           1419       15208.00     66399.36
  318.19        2965.00           1422       16431.00     71752.81
  318.22        2965.25           1426       18141.00     79240.90
  318.25        2965.50           1429       19122.00     83538.21
  318.28        2965.75           1432       20269.00     88564.12
  318.31        2966.00           1436       21827.00     95393.36
  318.34        2966.25           1439       22795.00     99637.84
  318.37        2966.50           1442       23840.00    104221.20
  318.40        2966.75           1446       24936.00    109029.50
  318.43        2967.00           1449       25255.00    110429.30
  318.47        2967.25           1452       25445.00    111263.10
  318.50        2967.50           1456       25279.00    110534.60
  318.53        2967.75           1459       25232.00    110328.40
  318.56        2968.00           1462       25154.00    109986.10
  318.59        2968.25           1466       24256.00    106046.10
  318.62        2968.50           1469       23079.00    100883.30
  318.65        2968.75           1472       22192.00     96993.69
  318.68        2969.00           1476       20652.00     90242.68
  318.71        2969.25           1479       19535.00     85347.72
  318.75        2969.50           1482       18434.00     80524.28
  318.78        2969.75           1486       16836.00     73526.00
  318.81        2970.00           1489       15667.00     68408.34
  318.84        2970.25           1492       14664.00     64018.65
  318.87        2970.50           1496       13094.00     57149.78
  318.90        2970.75           1499       11896.00     51910.34
  318.93        2971.00           1502       10716.00     46751.23
  318.96        2971.25           1506        9129.00     39815.19
  318.99        2971.50           1509        7891.00     34406.47
  319.02        2971.75           1513        6393.00     27864.17
  319.05        2972.00           1516        5226.00     22769.26
  319.09        2972.25           1519        4161.00     18121.01
  319.12        2972.50           1523        2674.00     11633.09
  319.15        2972.75           1526        1640.00      7123.14
  319.18        2973.00           1529         741.00      3203.01
  319.21        2973.25           1533         362.00      1550.64
  319.24        2973.50           1536         283.00      1206.23
  319.27        2973.75           1539         242.00      1027.49
  319.30        2974.00           1543         223.00       944.67
  319.33        2974.25           1546         155.00       648.23
  319.36        2974.50           1549         139.00       578.48
  319.39        2974.75           1553          98.00       399.74
  319.43        2975.00           1556          73.00       290.76
  319.46        2975.25           1559          61.00       238.45
  319.49        2975.50           1563          53.00       203.58
  319.52        2975.75           1566          64.00       251.53
  319.55        2976.00           1569          55.00       212.29
  319.58        2976.25           1573          51.00       194.86
  319.61        2976.50           1576          56.00       216.65
  319.64        2976.75           1579          57.00       221.01
  319.67        2977.00           1583          59.00       229.73
  319.70        2977.25           1586          60.00       234.09
  319.73        2977.50           1590          50.00       190.50
  319.76        2977.75           1593          50.00       190.50
  319.79        2978.00           1596          48.00       181.78
  319.82        2978.25           1600          49.00       186.14
  319.85        2978.50           1603          53.00       203.58
  319.88        2978.75           1606          49.00       186.14
  319.91        2979.00           1610          53.00       203.58
  319.95        2979.25           1613          58.00       225.37
  319.98        2979.50           1616          46.00       173.06
  320.01        2979.75           1620          45.00       168.70
  320.04        2980.00           1623          52.00       199.22
  320.07        2980.25           1626          47.00       177.42
  320.10        2980.50           1630          52.00       199.22
  320.13        2980.75           1633          48.00       181.78
  320.16        2981.00           1637          48.00       181.78
  320.19        2981.25           1640          52.00       199.22
  320.22        2981.50           1643          47.00       177.42
  320.25        2981.75           1647          42.00       155.62
  320.28        2982.00           1650          56.00       216.65
  320.31        2982.25           1653          49.00       186.14
  320.34        2982.50           1657          47.00       177.42
  320.37        2982.75           1660          47.00       177.42
  320.40        2983.00           1663          50.00       190.50
  320.44        2983.25           1667          50.00       190.50
  320.47        2983.50           1670          51.00       194.86
  320.50        2983.75           1673          49.00       186.14
  320.53        2984.00           1677          44.00       164.34
HS scan finished at 05:20:45
end
************************************************************
  HS Scan of (1) Internal mercury lamp
************************************************************
Integration time is 0.2294 seconds per sample
dh111218Manchester 53.47 2.23 2.804185pr1000
************************************************************
Dead Time -------------------------  3E-08 
Number of Cycles Used -------------  4 
Starting Wavelength (Angstroms) ---  2950 
Final Wavelength (Angstoms) -------  2984 
Wavelength Increment (Angstroms) --  .25 
Filter Wheel #1 Position ---------- (1) Ground quartz diffuser (ND=2.32)
Filter Wheel #2 Position ---------- (1) Neutral Density 0.494



************************************************************
HS scan start time = 16:42:02
Dark Count =  6.9 


Time (GMT)  Wavelength (Ang)  Step Number  Raw Counts  Counts/Second

 1002.40        2950.00           1222          55.00       209.68
 1002.47        2950.25           1226          51.00       192.24
 1002.50        2950.50           1229          52.00       196.60
 1002.53        2950.75           1232          55.00       209.68
 1002.56        2951.00           1236          47.00       174.80
 1002.59        2951.25           1239          54.00       205.32
 1002.62        2951.50           1242          61.00       235.83
 1002.65        2951.75           1246          53.00       200.96
 1002.68        2952.00           1249          51.00       192.24
 1002.71        2952.25           1252          52.00       196.60
 1002.74        2952.50           1256          51.00       192.24
 1002.77        2952.75           1259          51.00       192.24
 1002.80        2953.00           1262          52.00       196.60
 1002.84        2953.25           1266          55.00       209.68
 1002.87        2953.50           1269          53.00       200.96
 1002.90        2953.75           1272          63.00       244.55
 1002.93        2954.00           1276          62.00       240.19
 1002.96        2954.25           1279          54.00       205.32
 1002.99        2954.50           1282          55.00       209.68
 1003.02        2954.75           1286          55.00       209.68
 1003.05        2955.00           1289          54.00       205.32
 1003.08        2955.25           1292          54.00       205.32
 1003.11        2955.50           1296          54.00       205.32
 1003.14        2955.75           1299          63.00       244.55
 1003.17        2956.00           1302          62.00       240.19
 1003.20        2956.25           1306          57.00       218.40
 1003.23        2956.50           1309          53.00       200.96
 1003.26        2956.75           1312          58.00       222.76
 1003.30        2957.00           1316          60.00       231.48
 1003.33        2957.25           1319          49.00       183.52
 1003.36        2957.50           1322          53.00       200.96
 1003.39        2957.75           1326          66.00       257.63
 1003.42        2958.00           1329          58.00       222.76
 1003.45        2958.25           1332          57.00       218.40
 1003.48        2958.50           1336          57.00       218.40
 1003.51        2958.75           1339          57.00       218.40
 1003.54        2959.00           1342          58.00       222.76
 1003.58        2959.25           1346          54.00       205.32
 1003.61        2959.50           1349          56.00       214.04
 1003.64        2959.75           1352          73.00       288.15
 1003.67        2960.00           1356          88.00       353.53
 1003.70        2960.25           1359         104.00       423.28
 1003.73        2960.50           1362         130.00       536.63
 1003.76        2960.75           1366         168.00       702.28
 1003.79        2961.00           1369         213.00       898.45
 1003.82        2961.25           1372         236.00       998.72
 1003.85        2961.50           1376         274.00      1164.38
 1003.88        2961.75           1379         364.00      1556.74
 1003.92        2962.00           1382         734.00      3169.87
 1003.95        2962.25           1386        1947.00      8459.43
 1003.98        2962.50           1389        3048.00     13262.03
 1004.01        2962.75           1392        4276.00     18620.25
 1004.04        2963.00           1396        5688.00     24783.46
 1004.07        2963.25           1399        6734.00     29350.60
 1004.10        2963.50           1402        7965.00     34727.10
 1004.13        2963.75           1406        9619.00     41953.82
 1004.16        2964.00           1409       10753.00     46910.35
 1004.19        2964.25           1412       11960.00     52187.58
 1004.22        2964.50           1416       13625.00     59470.00
 1004.25        2964.75           1419       14857.00     64860.61
 1004.29        2965.00           1422       16152.00     70528.76
 1004.32        2965.25           1426       17569.00     76733.11
 1004.35        2965.50           1429       18602.00     81257.56
 1004.38        2965.75           1432       19920.00     87032.08
 1004.41        2966.00           1436       21341.00     93260.12
 1004.44        2966.25           1439       22382.00     97824.16
 1004.47        2966.50           1442       23728.00    103727.20
 1004.50        2966.75           1446       24773.00    108311.70
 1004.53        2967.00           1449       25255.00    110426.70
 1004.57        2967.25           1452       25332.00    110764.60
 1004.60        2967.50           1456       25309.00    110663.70
 1004.63        2967.75           1459       25542.00    111686.10
 1004.66        2968.00           1462       25298.00    110615.40
 1004.69        2968.25           1466       24694.00    107965.10
 1004.72        2968.50           1469       23814.00    104104.50
 1004.75        2968.75           1472       22757.00     99468.56
 1004.78        2969.00           1476       21218.00     92720.94
 1004.81        2969.25           1479       19989.00     87334.44
 1004.84        2969.50           1482       18949.00     82777.68
 1004.87        2969.75           1486       17368.00     75852.88
 1004.90        2970.00           1489       16218.00     70817.69
 1004.93        2970.25           1492       15024.00     65591.46
 1004.97        2970.50           1496       13513.00     58980.03
 1005.00        2970.75           1499       12183.00     53162.76
 1005.03        2971.00           1502       11076.00     48322.40
 1005.06        2971.25           1506        9550.00     41652.28
 1005.09        2971.50           1509        8341.00     36369.66
 1005.12        2971.75           1513        6728.00     29324.39
 1005.15        2972.00           1516        5615.00     24464.77
 1005.18        2972.25           1519        4555.00     19837.87
 1005.21        2972.50           1523        3020.00     13139.88
 1005.24        2972.75           1526        1919.00      8337.31
 1005.28        2973.00           1529         915.00      3959.06
 1005.31        2973.25           1533         364.00      1556.74
 1005.34        2973.50           1536         262.00      1112.07
 1005.37        2973.75           1539         229.00       968.21
 1005.40        2974.00           1543         204.00       859.22
 1005.43        2974.25           1546         164.00       684.84
 1005.46        2974.50           1549         128.00       527.91
 1005.49        2974.75           1553          92.00       370.97
 1005.53        2975.00           1556          65.00       253.27
 1005.56        2975.25           1559          67.00       261.99
 1005.59        2975.50           1563          55.00       209.68
 1005.62        2975.75           1566          57.00       218.40
 1005.65        2976.00           1569          53.00       200.96
 1005.68        2976.25           1573          52.00       196.60
 1005.71        2976.50           1576          52.00       196.60
 1005.74        2976.75           1579          45.00       166.09
 1005.77        2977.00           1583          50.00       187.88
 1005.80        2977.25           1586          52.00       196.60
 1005.83        2977.50           1590          54.00       205.32
 1005.87        2977.75           1593          42.00       153.01
 1005.90        2978.00           1596          59.00       227.12
 1005.93        2978.25           1600          48.00       179.16
 1005.96        2978.50           1603          55.00       209.68
 1005.99        2978.75           1606          54.00       205.32
 1006.02        2979.00           1610          52.00       196.60
 1006.05        2979.25           1613          53.00       200.96
 1006.08        2979.50           1616          45.00       166.09
 1006.11        2979.75           1620          44.00       161.73
 1006.14        2980.00           1623          52.00       196.60
 1006.18        2980.25           1626          53.00       200.96
 1006.21        2980.50           1630          49.00       183.52
 1006.24        2980.75           1633          45.00       166.09
 1006.27        2981.00           1637          50.00       187.88
 1006.30        2981.25           1640          46.00       170.45
 1006.33        2981.50           1643          48.00       179.16
 1006.36        2981.75           1647          51.00       192.24
 1006.39        2982.00           1650          50.00       187.88
 1006.42        2982.25           1653          47.00       174.80
 1006.45        2982.50           1657          49.00       183.52
 1006.49        2982.75           1660          55.00       209.68
 1006.52        2983.00           1663          48.00       179.16
 1006.55        2983.25           1667          59.00       227.12
 1006.58        2983.50           1670          50.00       187.88
 1006.61        2983.75           1673          61.00       235.83
 1006.64        2984.00           1677          49.00       183.52
HS scan finished at 16:46:51
end
