************************************************************
  HS Scan of (1) Internal mercury lamp
************************************************************
Integration time is 0.2294 seconds per sample
dh121218Manchester 53.47 2.23 2.804185pr1000
************************************************************
Dead Time -------------------------  3E-08 
Number of Cycles Used -------------  4 
Starting Wavelength (Angstroms) ---  2950 
Final Wavelength (Angstoms) -------  2984 
Wavelength Increment (Angstroms) --  .25 
Filter Wheel #1 Position ---------- (1) Ground quartz diffuser (ND=2.32)
Filter Wheel #2 Position ---------- (1) Neutral Density 0.494



************************************************************
HS scan start time = 05:16:51
Dark Count =  6.4 


Time (GMT)  Wavelength (Ang)  Step Number  Raw Counts  Counts/Second

  317.21        2950.00           1222          57.00       220.58
  317.28        2950.25           1226          50.00       190.06
  317.31        2950.50           1229          57.00       220.58
  317.34        2950.75           1232          55.00       211.86
  317.37        2951.00           1236          55.00       211.86
  317.40        2951.25           1239          62.00       242.37
  317.43        2951.50           1242          52.00       198.78
  317.46        2951.75           1246          56.00       216.22
  317.50        2952.00           1249          67.00       264.17
  317.53        2952.25           1252          60.00       233.65
  317.56        2952.50           1256          56.00       216.22
  317.59        2952.75           1259          57.00       220.58
  317.62        2953.00           1262          53.00       203.14
  317.65        2953.25           1266          56.00       216.22
  317.68        2953.50           1269          50.00       190.06
  317.71        2953.75           1272          54.00       207.50
  317.74        2954.00           1276          62.00       242.37
  317.77        2954.25           1279          58.00       224.94
  317.80        2954.50           1282          65.00       255.45
  317.84        2954.75           1286          51.00       194.42
  317.87        2955.00           1289          58.00       224.94
  317.90        2955.25           1292          68.00       268.53
  317.93        2955.50           1296          46.00       172.63
  317.96        2955.75           1299          53.00       203.14
  317.99        2956.00           1302          54.00       207.50
  318.02        2956.25           1306          53.00       203.14
  318.05        2956.50           1309          54.00       207.50
  318.08        2956.75           1312          58.00       224.94
  318.11        2957.00           1316          53.00       203.14
  318.15        2957.25           1319          56.00       216.22
  318.18        2957.50           1322          52.00       198.78
  318.21        2957.75           1326          64.00       251.09
  318.24        2958.00           1329          56.00       216.22
  318.27        2958.25           1332          56.00       216.22
  318.30        2958.50           1336          48.00       181.34
  318.33        2958.75           1339          48.00       181.34
  318.36        2959.00           1342          57.00       220.58
  318.39        2959.25           1346          64.00       251.09
  318.42        2959.50           1349          59.00       229.30
  318.45        2959.75           1352          75.00       299.04
  318.48        2960.00           1356          81.00       325.20
  318.52        2960.25           1359         121.00       499.57
  318.55        2960.50           1362         132.00       547.52
  318.58        2960.75           1366         181.00       761.13
  318.61        2961.00           1369         195.00       822.17
  318.64        2961.25           1372         228.00       966.03
  318.67        2961.50           1376         287.00      1223.24
  318.70        2961.75           1379         335.00      1432.49
  318.73        2962.00           1382         508.00      2186.72
  318.77        2962.25           1386        1430.00      6206.91
  318.80        2962.50           1389        2589.00     11261.87
  318.83        2962.75           1392        3693.00     16078.37
  318.86        2963.00           1396        5408.00     23563.30
  318.89        2963.25           1399        6480.00     28243.63
  318.92        2963.50           1402        7563.00     32973.32
  318.95        2963.75           1406        9248.00     40334.74
  318.98        2964.00           1409       10496.00     45789.10
  319.01        2964.25           1412       11562.00     50449.45
  319.05        2964.50           1416       13279.00     57958.58
  319.08        2964.75           1419       14590.00     63694.40
  319.11        2965.00           1422       15743.00     68740.56
  319.14        2965.25           1426       17351.00     75780.63
  319.17        2965.50           1429       18708.00     81724.10
  319.20        2965.75           1432       19862.00     86780.12
  319.23        2966.00           1436       21289.00     93034.37
  319.26        2966.25           1439       22345.00     97664.11
  319.29        2966.50           1442       23770.00    103913.70
  319.32        2966.75           1446       24859.00    108691.30
  319.36        2967.00           1449       25407.00    111095.90
  319.39        2967.25           1452       25687.00    112324.70
  319.42        2967.50           1456       25692.00    112346.60
  319.45        2967.75           1459       25575.00    111833.20
  319.48        2968.00           1462       25621.00    112035.00
  319.51        2968.25           1466       25280.00    110538.60
  319.54        2968.50           1469       24269.00    106102.70
  319.57        2968.75           1472       23389.00    102242.50
  319.60        2969.00           1476       21761.00     95103.56
  319.64        2969.25           1479       20659.00     90272.92
  319.67        2969.50           1482       19529.00     85320.99
  319.70        2969.75           1486       17746.00     77510.46
  319.73        2970.00           1489       16710.00     72973.88
  319.76        2970.25           1492       15495.00     67655.05
  319.79        2970.50           1496       13995.00     61090.94
  319.82        2970.75           1499       12881.00     56217.67
  319.85        2971.00           1502       11745.00     51249.62
  319.88        2971.25           1506       10092.00     44023.23
  319.91        2971.50           1509        8867.00     38669.94
  319.95        2971.75           1513        7212.00     31440.28
  319.98        2972.00           1516        6155.00     26824.54
  320.01        2972.25           1519        4964.00     21625.19
  320.04        2972.50           1523        3498.00     15227.53
  320.07        2972.75           1526        2388.00     10385.10
  320.10        2973.00           1529        1312.00      5692.34
  320.13        2973.25           1533         454.00      1951.29
  320.16        2973.50           1536         270.00      1149.12
  320.19        2973.75           1539         232.00       983.46
  320.23        2974.00           1543         199.00       839.60
  320.26        2974.25           1546         141.00       586.76
  320.29        2974.50           1549         115.00       473.42
  320.32        2974.75           1553          80.00       320.84
  320.35        2975.00           1556          74.00       294.68
  320.38        2975.25           1559          63.00       246.73
  320.41        2975.50           1563          55.00       211.86
  320.44        2975.75           1566          53.00       203.14
  320.47        2976.00           1569          56.00       216.22
  320.50        2976.25           1573          55.00       211.86
  320.54        2976.50           1576          43.00       159.55
  320.57        2976.75           1579          53.00       203.14
  320.60        2977.00           1583          53.00       203.14
  320.63        2977.25           1586          51.00       194.42
  320.66        2977.50           1590          55.00       211.86
  320.69        2977.75           1593          52.00       198.78
  320.72        2978.00           1596          46.00       172.63
  320.75        2978.25           1600          48.00       181.34
  320.78        2978.50           1603          52.00       198.78
  320.81        2978.75           1606          46.00       172.63
  320.85        2979.00           1610          52.00       198.78
  320.88        2979.25           1613          57.00       220.58
  320.91        2979.50           1616          52.00       198.78
  320.94        2979.75           1620          57.00       220.58
  320.97        2980.00           1623          50.00       190.06
  321.00        2980.25           1626          51.00       194.42
  321.03        2980.50           1630          46.00       172.63
  321.06        2980.75           1633          52.00       198.78
  321.09        2981.00           1637          53.00       203.14
  321.12        2981.25           1640          45.00       168.27
  321.15        2981.50           1643          51.00       194.42
  321.18        2981.75           1647          52.00       198.78
  321.21        2982.00           1650          46.00       172.63
  321.25        2982.25           1653          53.00       203.14
  321.28        2982.50           1657          51.00       194.42
  321.31        2982.75           1660          47.00       176.98
  321.34        2983.00           1663          49.00       185.70
  321.37        2983.25           1667          50.00       190.06
  321.40        2983.50           1670          51.00       194.42
  321.43        2983.75           1673          49.00       185.70
  321.46        2984.00           1677          52.00       198.78
HS scan finished at 05:21:41
end
************************************************************
  HS Scan of (1) Internal mercury lamp
************************************************************
Integration time is 0.2294 seconds per sample
dh121218Manchester 53.47 2.23 2.804185pr1000
************************************************************
Dead Time -------------------------  3E-08 
Number of Cycles Used -------------  4 
Starting Wavelength (Angstroms) ---  2950 
Final Wavelength (Angstoms) -------  2984 
Wavelength Increment (Angstroms) --  .25 
Filter Wheel #1 Position ---------- (1) Ground quartz diffuser (ND=2.32)
Filter Wheel #2 Position ---------- (1) Neutral Density 0.494



************************************************************
HS scan start time = 16:42:05
Dark Count =  5.9 


Time (GMT)  Wavelength (Ang)  Step Number  Raw Counts  Counts/Second

 1002.45        2950.00           1222          53.00       205.32
 1002.51        2950.25           1226          61.00       240.19
 1002.54        2950.50           1229          49.00       187.88
 1002.57        2950.75           1232          57.00       222.76
 1002.60        2951.00           1236          65.00       257.63
 1002.63        2951.25           1239          50.00       192.24
 1002.66        2951.50           1242          51.00       196.60
 1002.70        2951.75           1246          54.00       209.68
 1002.73        2952.00           1249          63.00       248.91
 1002.76        2952.25           1252          48.00       183.52
 1002.79        2952.50           1256          55.00       214.04
 1002.82        2952.75           1259          49.00       187.88
 1002.85        2953.00           1262          52.00       200.96
 1002.88        2953.25           1266          53.00       205.32
 1002.91        2953.50           1269          67.00       266.35
 1002.94        2953.75           1272          50.00       192.24
 1002.97        2954.00           1276          50.00       192.24
 1003.00        2954.25           1279          51.00       196.60
 1003.04        2954.50           1282          59.00       231.48
 1003.07        2954.75           1286          57.00       222.76
 1003.10        2955.00           1289          51.00       196.60
 1003.13        2955.25           1292          58.00       227.12
 1003.16        2955.50           1296          54.00       209.68
 1003.19        2955.75           1299          53.00       205.32
 1003.22        2956.00           1302          60.00       235.83
 1003.25        2956.25           1306          52.00       200.96
 1003.28        2956.50           1309          54.00       209.68
 1003.31        2956.75           1312          55.00       214.04
 1003.34        2957.00           1316          49.00       187.88
 1003.38        2957.25           1319          59.00       231.48
 1003.41        2957.50           1322          54.00       209.68
 1003.44        2957.75           1326          56.00       218.40
 1003.47        2958.00           1329          52.00       200.96
 1003.50        2958.25           1332          52.00       200.96
 1003.53        2958.50           1336          63.00       248.91
 1003.56        2958.75           1339          57.00       222.76
 1003.59        2959.00           1342          55.00       214.04
 1003.62        2959.25           1346          66.00       261.99
 1003.65        2959.50           1349          61.00       240.19
 1003.68        2959.75           1352          76.00       305.58
 1003.72        2960.00           1356          88.00       357.89
 1003.75        2960.25           1359         112.00       462.52
 1003.78        2960.50           1362         138.00       575.86
 1003.81        2960.75           1366         174.00       732.80
 1003.84        2961.00           1369         212.00       898.45
 1003.87        2961.25           1372         253.00      1077.19
 1003.90        2961.50           1376         328.00      1404.16
 1003.93        2961.75           1379         566.00      2441.77
 1003.96        2962.00           1382        1334.00      5790.46
 1003.99        2962.25           1386        2759.00     12005.63
 1004.02        2962.50           1389        3718.00     16189.64
 1004.05        2962.75           1392        4969.00     21649.19
 1004.09        2963.00           1396        6328.00     27582.10
 1004.12        2963.25           1399        7478.00     32604.24
 1004.15        2963.50           1402        8809.00     38418.71
 1004.18        2963.75           1406       10444.00     45563.98
 1004.21        2964.00           1409       11437.00     49905.08
 1004.24        2964.25           1412       12738.00     55594.39
 1004.27        2964.50           1416       14492.00     63267.75
 1004.30        2964.75           1419       15752.00     68782.15
 1004.33        2965.00           1422       16839.00     73540.88
 1004.37        2965.25           1426       18449.00     80591.75
 1004.40        2965.50           1429       19544.00     85388.90
 1004.43        2965.75           1432       20825.00     91002.69
 1004.46        2966.00           1436       22264.00     97311.13
 1004.49        2966.25           1439       23350.00    102073.70
 1004.52        2966.50           1442       24424.00    106784.90
 1004.55        2966.75           1446       25258.00    110444.20
 1004.58        2967.00           1449       25294.00    110602.20
 1004.61        2967.25           1452       25471.00    111379.00
 1004.64        2967.50           1456       25242.00    110374.00
 1004.67        2967.75           1459       25277.00    110527.60
 1004.70        2968.00           1462       25003.00    109325.30
 1004.73        2968.25           1466       24015.00    104990.60
 1004.77        2968.50           1469       23015.00    100604.40
 1004.80        2968.75           1472       21895.00     95693.25
 1004.83        2969.00           1476       20541.00     89757.94
 1004.86        2969.25           1479       19391.00     84718.52
 1004.89        2969.50           1482       18258.00     79755.11
 1004.92        2969.75           1486       16592.00     72459.44
 1004.95        2970.00           1489       15410.00     67285.21
 1004.98        2970.25           1492       14277.00     62326.99
 1005.01        2970.50           1496       12807.00     55896.19
 1005.05        2970.75           1499       11536.00     50337.95
 1005.08        2971.00           1502       10274.00     44820.91
 1005.11        2971.25           1506        8709.00     37981.79
 1005.14        2971.50           1509        7552.00     32927.46
 1005.17        2971.75           1513        6081.00     26503.63
 1005.20        2972.00           1516        4927.00     21465.87
 1005.23        2972.25           1519        3832.00     16687.08
 1005.26        2972.50           1523        2291.00      9964.18
 1005.29        2972.75           1526        1275.00      5533.18
 1005.32        2973.00           1529         595.00      2568.20
 1005.35        2973.25           1533         327.00      1399.80
 1005.38        2973.50           1536         256.00      1090.27
 1005.41        2973.75           1539         225.00       955.13
 1005.45        2974.00           1543         204.00       863.58
 1005.48        2974.25           1546         150.00       628.17
 1005.51        2974.50           1549         106.00       436.36
 1005.54        2974.75           1553          81.00       327.38
 1005.57        2975.00           1556          69.00       275.07
 1005.60        2975.25           1559          59.00       231.48
 1005.63        2975.50           1563          55.00       214.04
 1005.66        2975.75           1566          51.00       196.60
 1005.69        2976.00           1569          55.00       214.04
 1005.72        2976.25           1573          53.00       205.32
 1005.75        2976.50           1576          50.00       192.24
 1005.78        2976.75           1579          60.00       235.83
 1005.81        2977.00           1583          51.00       196.60
 1005.84        2977.25           1586          57.00       222.76
 1005.87        2977.50           1590          52.00       200.96
 1005.90        2977.75           1593          56.00       218.40
 1005.94        2978.00           1596          58.00       227.12
 1005.97        2978.25           1600          54.00       209.68
 1006.00        2978.50           1603          51.00       196.60
 1006.03        2978.75           1606          49.00       187.88
 1006.06        2979.00           1610          44.00       166.09
 1006.09        2979.25           1613          49.00       187.88
 1006.12        2979.50           1616          59.00       231.48
 1006.15        2979.75           1620          45.00       170.45
 1006.18        2980.00           1623          48.00       183.52
 1006.21        2980.25           1626          47.00       179.16
 1006.25        2980.50           1630          49.00       187.88
 1006.28        2980.75           1633          52.00       200.96
 1006.31        2981.00           1637          50.00       192.24
 1006.34        2981.25           1640          46.00       174.80
 1006.37        2981.50           1643          58.00       227.12
 1006.40        2981.75           1647          50.00       192.24
 1006.43        2982.00           1650          52.00       200.96
 1006.46        2982.25           1653          47.00       179.16
 1006.49        2982.50           1657          53.00       205.32
 1006.52        2982.75           1660          55.00       214.04
 1006.56        2983.00           1663          43.00       161.73
 1006.59        2983.25           1667          52.00       200.96
 1006.62        2983.50           1670          52.00       200.96
 1006.65        2983.75           1673          48.00       183.52
 1006.68        2984.00           1677          48.00       183.52
HS scan finished at 16:46:54
end
