************************************************************
  HS Scan of (1) Internal mercury lamp
************************************************************
Integration time is 0.2294 seconds per sample
dh141218Manchester 53.47 2.23 2.750537pr1000
************************************************************
Dead Time -------------------------  3E-08 
Number of Cycles Used -------------  4 
Starting Wavelength (Angstroms) ---  2950 
Final Wavelength (Angstoms) -------  2984 
Wavelength Increment (Angstroms) --  .25 
Filter Wheel #1 Position ---------- (1) Ground quartz diffuser (ND=2.32)
Filter Wheel #2 Position ---------- (1) Neutral Density 0.494



************************************************************
HS scan start time = 05:18:28
Dark Count =  7.5 


Time (GMT)  Wavelength (Ang)  Step Number  Raw Counts  Counts/Second

  318.84        2950.00           1222          55.00       207.06
  318.91        2950.25           1226          56.00       211.42
  318.94        2950.50           1229          54.00       202.70
  318.97        2950.75           1232          57.00       215.78
  319.00        2951.00           1236          57.00       215.78
  319.03        2951.25           1239          63.00       241.94
  319.06        2951.50           1242          46.00       167.83
  319.10        2951.75           1246          56.00       211.42
  319.13        2952.00           1249          55.00       207.06
  319.16        2952.25           1252          63.00       241.94
  319.19        2952.50           1256          53.00       198.34
  319.22        2952.75           1259          53.00       198.34
  319.25        2953.00           1262          50.00       185.27
  319.28        2953.25           1266          55.00       207.06
  319.31        2953.50           1269          57.00       215.78
  319.34        2953.75           1272          56.00       211.42
  319.37        2954.00           1276          51.00       189.63
  319.40        2954.25           1279          60.00       228.86
  319.44        2954.50           1282          54.00       202.70
  319.47        2954.75           1286          60.00       228.86
  319.50        2955.00           1289          56.00       211.42
  319.53        2955.25           1292          58.00       220.14
  319.56        2955.50           1296          55.00       207.06
  319.59        2955.75           1299          54.00       202.70
  319.62        2956.00           1302          40.00       141.67
  319.65        2956.25           1306          63.00       241.94
  319.68        2956.50           1309          56.00       211.42
  319.71        2956.75           1312          55.00       207.06
  319.74        2957.00           1316          57.00       215.78
  319.78        2957.25           1319          62.00       237.58
  319.81        2957.50           1322          57.00       215.78
  319.84        2957.75           1326          55.00       207.06
  319.87        2958.00           1329          54.00       202.70
  319.90        2958.25           1332          60.00       228.86
  319.93        2958.50           1336          60.00       228.86
  319.96        2958.75           1339          53.00       198.34
  319.99        2959.00           1342          53.00       198.34
  320.02        2959.25           1346          60.00       228.86
  320.05        2959.50           1349          55.00       207.06
  320.08        2959.75           1352          67.00       259.37
  320.11        2960.00           1356          85.00       337.84
  320.14        2960.25           1359         102.00       411.95
  320.17        2960.50           1362         118.00       481.70
  320.20        2960.75           1366         164.00       682.23
  320.23        2961.00           1369         210.00       882.76
  320.27        2961.25           1372         221.00       930.71
  320.30        2961.50           1376         296.00      1257.68
  320.33        2961.75           1379         393.00      1680.56
  320.36        2962.00           1382         725.00      3128.02
  320.39        2962.25           1386        1870.00      8120.98
  320.42        2962.50           1389        3025.00     13159.07
  320.45        2962.75           1392        4196.00     18268.51
  320.48        2963.00           1396        5844.00     25461.90
  320.51        2963.25           1399        6833.00     29780.30
  320.54        2963.50           1402        8121.00     35405.94
  320.58        2963.75           1406        9647.00     42073.57
  320.61        2964.00           1409       10849.00     47327.40
  320.64        2964.25           1412       12030.00     52491.05
  320.67        2964.50           1416       13692.00     59760.49
  320.70        2964.75           1419       14727.00     64289.09
  320.73        2965.00           1422       15913.00     69479.90
  320.76        2965.25           1426       17511.00     76476.48
  320.79        2965.50           1429       18793.00     82091.63
  320.82        2965.75           1432       19888.00     86889.24
  320.86        2966.00           1436       21547.00     94160.56
  320.89        2966.25           1439       22535.00     98492.43
  320.92        2966.50           1442       23525.00    102834.20
  320.95        2966.75           1446       24785.00    108361.70
  320.98        2967.00           1449       25245.00    110380.20
  321.01        2967.25           1452       25451.00    111284.20
  321.04        2967.50           1456       25372.00    110937.50
  321.07        2967.75           1459       25377.00    110959.40
  321.10        2968.00           1462       25231.00    110318.70
  321.14        2968.25           1466       24790.00    108383.70
  321.17        2968.50           1469       23871.00    104351.90
  321.20        2968.75           1472       22771.00     99527.33
  321.23        2969.00           1476       21263.00     92915.57
  321.26        2969.25           1479       20154.00     88054.89
  321.29        2969.50           1482       18826.00     82236.21
  321.32        2969.75           1486       17263.00     75390.46
  321.35        2970.00           1489       16096.00     70280.99
  321.38        2970.25           1492       15088.00     65868.91
  321.42        2970.50           1496       13685.00     59729.87
  321.45        2970.75           1499       12477.00     54445.88
  321.48        2971.00           1502       11397.00     49723.21
  321.51        2971.25           1506        9715.00     42370.74
  321.54        2971.50           1509        8605.00     37520.42
  321.57        2971.75           1513        6918.00     30151.50
  321.60        2972.00           1516        5775.00     25160.66
  321.63        2972.25           1519        4667.00     20324.07
  321.66        2972.50           1523        3081.00     13403.38
  321.69        2972.75           1526        2003.00      8701.05
  321.73        2973.00           1529        1027.00      4444.80
  321.76        2973.25           1533         388.00      1658.76
  321.79        2973.50           1536         267.00      1131.25
  321.82        2973.75           1539         210.00       882.76
  321.85        2974.00           1543         192.00       804.29
  321.88        2974.25           1546         143.00       590.68
  321.91        2974.50           1549         114.00       464.26
  321.94        2974.75           1553          83.00       329.12
  321.97        2975.00           1556          63.00       241.94
  322.01        2975.25           1559          56.00       211.42
  322.04        2975.50           1563          49.00       180.91
  322.07        2975.75           1566          57.00       215.78
  322.10        2976.00           1569          52.00       193.99
  322.13        2976.25           1573          51.00       189.63
  322.16        2976.50           1576          50.00       185.27
  322.19        2976.75           1579          48.00       176.55
  322.22        2977.00           1583          51.00       189.63
  322.25        2977.25           1586          61.00       233.22
  322.28        2977.50           1590          55.00       207.06
  322.31        2977.75           1593          54.00       202.70
  322.34        2978.00           1596          52.00       193.99
  322.37        2978.25           1600          47.00       172.19
  322.41        2978.50           1603          54.00       202.70
  322.44        2978.75           1606          51.00       189.63
  322.47        2979.00           1610          58.00       220.14
  322.50        2979.25           1613          53.00       198.34
  322.53        2979.50           1616          48.00       176.55
  322.56        2979.75           1620          52.00       193.99
  322.59        2980.00           1623          49.00       180.91
  322.62        2980.25           1626          58.00       220.14
  322.65        2980.50           1630          46.00       167.83
  322.68        2980.75           1633          47.00       172.19
  322.71        2981.00           1637          47.00       172.19
  322.74        2981.25           1640          57.00       215.78
  322.77        2981.50           1643          50.00       185.27
  322.81        2981.75           1647          51.00       189.63
  322.84        2982.00           1650          52.00       193.99
  322.87        2982.25           1653          45.00       163.47
  322.90        2982.50           1657          53.00       198.34
  322.93        2982.75           1660          48.00       176.55
  322.96        2983.00           1663          53.00       198.34
  322.99        2983.25           1667          51.00       189.63
  323.02        2983.50           1670          53.00       198.34
  323.05        2983.75           1673          52.00       193.99
  323.08        2984.00           1677          52.00       193.99
HS scan finished at 05:23:18
end
************************************************************
  HS Scan of (1) Internal mercury lamp
************************************************************
Integration time is 0.2294 seconds per sample
dh141218Manchester 53.47 2.23 2.750537pr1000
************************************************************
Dead Time -------------------------  3E-08 
Number of Cycles Used -------------  4 
Starting Wavelength (Angstroms) ---  2950 
Final Wavelength (Angstoms) -------  2984 
Wavelength Increment (Angstroms) --  .25 
Filter Wheel #1 Position ---------- (1) Ground quartz diffuser (ND=2.32)
Filter Wheel #2 Position ---------- (1) Neutral Density 0.494



************************************************************
HS scan start time = 16:42:02
Dark Count =  4.9 


Time (GMT)  Wavelength (Ang)  Step Number  Raw Counts  Counts/Second

 1002.41        2950.00           1222          59.00       235.83
 1002.48        2950.25           1226          55.00       218.40
 1002.51        2950.50           1229          58.00       231.48
 1002.54        2950.75           1232          58.00       231.48
 1002.57        2951.00           1236          53.00       209.68
 1002.60        2951.25           1239          47.00       183.52
 1002.63        2951.50           1242          71.00       288.15
 1002.66        2951.75           1246          58.00       231.48
 1002.69        2952.00           1249          50.00       196.60
 1002.72        2952.25           1252          47.00       183.52
 1002.75        2952.50           1256          43.00       166.09
 1002.78        2952.75           1259          53.00       209.68
 1002.81        2953.00           1262          61.00       244.55
 1002.84        2953.25           1266          54.00       214.04
 1002.87        2953.50           1269          60.00       240.19
 1002.91        2953.75           1272          58.00       231.48
 1002.94        2954.00           1276          56.00       222.76
 1002.97        2954.25           1279          53.00       209.68
 1003.00        2954.50           1282          55.00       218.40
 1003.03        2954.75           1286          48.00       187.88
 1003.06        2955.00           1289          52.00       205.32
 1003.09        2955.25           1292          57.00       227.12
 1003.12        2955.50           1296          54.00       214.04
 1003.15        2955.75           1299          60.00       240.19
 1003.18        2956.00           1302          55.00       218.40
 1003.21        2956.25           1306          58.00       231.48
 1003.24        2956.50           1309          60.00       240.19
 1003.27        2956.75           1312          57.00       227.12
 1003.31        2957.00           1316          57.00       227.12
 1003.34        2957.25           1319          54.00       214.04
 1003.37        2957.50           1322          52.00       205.32
 1003.40        2957.75           1326          55.00       218.40
 1003.43        2958.00           1329          59.00       235.83
 1003.46        2958.25           1332          67.00       270.71
 1003.49        2958.50           1336          58.00       231.48
 1003.52        2958.75           1339          48.00       187.88
 1003.55        2959.00           1342          57.00       227.12
 1003.59        2959.25           1346          57.00       227.12
 1003.62        2959.50           1349          56.00       222.76
 1003.65        2959.75           1352          65.00       261.99
 1003.68        2960.00           1356         101.00       418.92
 1003.71        2960.25           1359         117.00       488.67
 1003.74        2960.50           1362         153.00       645.61
 1003.77        2960.75           1366         185.00       785.11
 1003.80        2961.00           1369         211.00       898.45
 1003.83        2961.25           1372         248.00      1059.75
 1003.86        2961.50           1376         293.00      1255.93
 1003.89        2961.75           1379         360.00      1548.02
 1003.92        2962.00           1382         614.00      2655.40
 1003.95        2962.25           1386        1645.00      7151.05
 1003.99        2962.50           1389        2672.00     11630.47
 1004.02        2962.75           1392        3763.00     16390.36
 1004.05        2963.00           1396        5216.00     22731.72
 1004.08        2963.25           1399        6327.00     27582.10
 1004.11        2963.50           1402        7619.00     33224.47
 1004.14        2963.75           1406        9156.00     39939.28
 1004.17        2964.00           1409       10329.00     45065.68
 1004.20        2964.25           1412       11723.00     51159.98
 1004.23        2964.50           1416       13383.00     58420.09
 1004.26        2964.75           1419       14501.00     63311.51
 1004.30        2965.00           1422       15726.00     68672.72
 1004.33        2965.25           1426       17380.00     75914.19
 1004.36        2965.50           1429       18456.00     80626.78
 1004.39        2965.75           1432       19609.00     85678.09
 1004.42        2966.00           1436       21057.00     92023.98
 1004.45        2966.25           1439       22411.00     97960.09
 1004.48        2966.50           1442       23349.00    102073.70
 1004.51        2966.75           1446       24549.00    107337.70
 1004.55        2967.00           1449       25149.00    109970.30
 1004.58        2967.25           1452       25197.00    110181.00
 1004.61        2967.50           1456       25165.00    110040.50
 1004.64        2967.75           1459       25355.00    110874.30
 1004.67        2968.00           1462       25255.00    110435.50
 1004.70        2968.25           1466       24675.00    107890.50
 1004.73        2968.50           1469       23993.00    104898.50
 1004.76        2968.75           1472       22908.00    100139.50
 1004.79        2969.00           1476       21497.00     93952.76
 1004.82        2969.25           1479       20389.00     89096.16
 1004.86        2969.50           1482       18945.00     82768.91
 1004.89        2969.75           1486       17659.00     77136.01
 1004.92        2970.00           1489       16513.00     72117.94
 1004.95        2970.25           1492       15323.00     66908.80
 1004.98        2970.50           1496       13721.00     59898.74
 1005.01        2970.75           1499       12612.00     55047.68
 1005.04        2971.00           1502       11570.00     50490.98
 1005.07        2971.25           1506        9903.00     43203.74
 1005.10        2971.50           1509        8796.00     38366.28
 1005.14        2971.75           1513        7278.00     31735.08
 1005.17        2972.00           1516        6181.00     26944.62
 1005.20        2972.25           1519        5029.00     21915.45
 1005.23        2972.50           1523        3517.00     15316.98
 1005.26        2972.75           1526        2387.00     10387.28
 1005.29        2973.00           1529        1327.00      5764.29
 1005.32        2973.25           1533         416.00      1792.16
 1005.35        2973.50           1536         272.00      1164.38
 1005.38        2973.75           1539         225.00       959.49
 1005.41        2974.00           1543         189.00       802.55
 1005.45        2974.25           1546         143.00       602.02
 1005.48        2974.50           1549         108.00       449.44
 1005.51        2974.75           1553          72.00       292.50
 1005.54        2975.00           1556          63.00       253.27
 1005.57        2975.25           1559          61.00       244.55
 1005.60        2975.50           1563          55.00       218.40
 1005.63        2975.75           1566          47.00       183.52
 1005.66        2976.00           1569          53.00       209.68
 1005.69        2976.25           1573          48.00       187.88
 1005.72        2976.50           1576          56.00       222.76
 1005.76        2976.75           1579          52.00       205.32
 1005.79        2977.00           1583          48.00       187.88
 1005.82        2977.25           1586          52.00       205.32
 1005.85        2977.50           1590          48.00       187.88
 1005.88        2977.75           1593          52.00       205.32
 1005.91        2978.00           1596          52.00       205.32
 1005.94        2978.25           1600          54.00       214.04
 1005.97        2978.50           1603          58.00       231.48
 1006.00        2978.75           1606          50.00       196.60
 1006.03        2979.00           1610          54.00       214.04
 1006.07        2979.25           1613          49.00       192.24
 1006.10        2979.50           1616          40.00       153.01
 1006.13        2979.75           1620          61.00       244.55
 1006.16        2980.00           1623          51.00       200.96
 1006.19        2980.25           1626          43.00       166.09
 1006.22        2980.50           1630          48.00       187.88
 1006.25        2980.75           1633          51.00       200.96
 1006.28        2981.00           1637          52.00       205.32
 1006.31        2981.25           1640          51.00       200.96
 1006.35        2981.50           1643          51.00       200.96
 1006.38        2981.75           1647          46.00       179.16
 1006.41        2982.00           1650          55.00       218.40
 1006.44        2982.25           1653          50.00       196.60
 1006.47        2982.50           1657          47.00       183.52
 1006.50        2982.75           1660          49.00       192.24
 1006.53        2983.00           1663          52.00       205.32
 1006.56        2983.25           1667          54.00       214.04
 1006.59        2983.50           1670          46.00       179.16
 1006.62        2983.75           1673          45.00       174.80
 1006.66        2984.00           1677          47.00       183.52
HS scan finished at 16:46:52
end
