************************************************************
  HS Scan of (1) Internal mercury lamp
************************************************************
Integration time is 0.2294 seconds per sample
dh081217Manchester 53.47 2.23 2.750537pr1000
************************************************************
Dead Time -------------------------  3E-08 
Number of Cycles Used -------------  4 
Starting Wavelength (Angstroms) ---  2950 
Final Wavelength (Angstoms) -------  2984 
Wavelength Increment (Angstroms) --  .25 
Filter Wheel #1 Position ---------- (1) Ground quartz diffuser (ND=2.32)
Filter Wheel #2 Position ---------- (1) Neutral Density 0.494



************************************************************
HS scan start time = 05:13:22
Dark Count =  4.2 


Time (GMT)  Wavelength (Ang)  Step Number  Raw Counts  Counts/Second

  313.73        2950.00           1222          64.00       260.68
  313.80        2950.25           1226          75.00       308.63
  313.83        2950.50           1229          72.00       295.56
  313.86        2950.75           1232          66.00       269.40
  313.89        2951.00           1236          66.00       269.40
  313.92        2951.25           1239          66.00       269.40
  313.95        2951.50           1242          63.00       256.32
  313.98        2951.75           1246          61.00       247.60
  314.02        2952.00           1249          59.00       238.89
  314.05        2952.25           1252          64.00       260.68
  314.08        2952.50           1256          58.00       234.53
  314.11        2952.75           1259          61.00       247.60
  314.14        2953.00           1262          72.00       295.56
  314.17        2953.25           1266          59.00       238.89
  314.20        2953.50           1269          61.00       247.60
  314.23        2953.75           1272          64.00       260.68
  314.26        2954.00           1276          64.00       260.68
  314.29        2954.25           1279          61.00       247.60
  314.32        2954.50           1282          66.00       269.40
  314.35        2954.75           1286          68.00       278.12
  314.38        2955.00           1289          69.00       282.48
  314.41        2955.25           1292          64.00       260.68
  314.44        2955.50           1296          60.00       243.25
  314.48        2955.75           1299          58.00       234.53
  314.51        2956.00           1302          66.00       269.40
  314.54        2956.25           1306          68.00       278.12
  314.57        2956.50           1309          66.00       269.40
  314.60        2956.75           1312          62.00       251.96
  314.63        2957.00           1316          62.00       251.96
  314.66        2957.25           1319          65.00       265.04
  314.69        2957.50           1322          67.00       273.76
  314.72        2957.75           1326          63.00       256.32
  314.75        2958.00           1329          56.00       225.81
  314.78        2958.25           1332          64.00       260.68
  314.81        2958.50           1336          63.00       256.32
  314.85        2958.75           1339          64.00       260.68
  314.88        2959.00           1342          63.00       256.32
  314.91        2959.25           1346          72.00       295.56
  314.94        2959.50           1349          71.00       291.20
  314.97        2959.75           1352          72.00       295.56
  315.00        2960.00           1356         110.00       461.21
  315.03        2960.25           1359         140.00       591.99
  315.06        2960.50           1362         165.00       700.97
  315.09        2960.75           1366         220.00       940.74
  315.12        2961.00           1369         239.00      1023.57
  315.16        2961.25           1372         296.00      1272.06
  315.19        2961.50           1376         366.00      1577.23
  315.22        2961.75           1379         495.00      2139.63
  315.25        2962.00           1382         930.00      4036.23
  315.28        2962.25           1386        2437.00     10608.43
  315.31        2962.50           1389        3847.00     16759.95
  315.34        2962.75           1392        5223.00     22765.33
  315.37        2963.00           1396        7282.00     31755.61
  315.40        2963.25           1399        8895.00     38801.90
  315.44        2963.50           1402       10431.00     45514.59
  315.47        2963.75           1406       12679.00     55343.77
  315.50        2964.00           1409       14095.00     61538.09
  315.53        2964.25           1412       15722.00     68658.28
  315.56        2964.50           1416       17774.00     77642.72
  315.59        2964.75           1419       19310.00     84371.09
  315.62        2965.00           1422       20894.00     91312.58
  315.65        2965.25           1426       22932.00    100247.90
  315.68        2965.50           1429       24504.00    107143.30
  315.72        2965.75           1432       26156.00    114392.80
  315.75        2966.00           1436       28237.00    123529.30
  315.78        2966.25           1439       29746.00    130157.60
  315.81        2966.50           1442       30966.00    135518.50
  315.84        2966.75           1446       32526.00    142375.80
  315.87        2967.00           1449       33170.00    145207.50
  315.90        2967.25           1452       33134.00    145049.20
  315.93        2967.50           1456       33454.00    146456.40
  315.96        2967.75           1459       33358.00    146034.20
  316.00        2968.00           1462       33069.00    144763.40
  316.03        2968.25           1466       32480.00    142173.60
  316.06        2968.50           1469       31123.00    136208.50
  316.09        2968.75           1472       29778.00    130298.20
  316.12        2969.00           1476       27638.00    120898.90
  316.15        2969.25           1479       26125.00    114256.70
  316.18        2969.50           1482       24645.00    107762.00
  316.21        2969.75           1486       22479.00     98261.34
  316.24        2970.00           1489       21154.00     92452.24
  316.27        2970.25           1492       19539.00     85374.46
  316.30        2970.50           1496       17601.00     76885.07
  316.33        2970.75           1499       16194.00     70724.45
  316.37        2971.00           1502       14651.00     63970.95
  316.40        2971.25           1506       12577.00     54897.67
  316.43        2971.50           1509       11064.00     48281.74
  316.46        2971.75           1513        9046.00     39461.69
  316.49        2972.00           1516        7512.00     32760.17
  316.52        2972.25           1519        5901.00     25725.16
  316.55        2972.50           1523        3991.00     17388.32
  316.58        2972.75           1526        2521.00     10974.84
  316.61        2973.00           1529        1287.00      5592.92
  316.64        2973.25           1533         490.00      2117.83
  316.68        2973.50           1536         345.00      1485.68
  316.71        2973.75           1539         290.00      1245.91
  316.74        2974.00           1543         257.00      1102.04
  316.77        2974.25           1546         198.00       844.83
  316.80        2974.50           1549         154.00       653.02
  316.83        2974.75           1553         113.00       474.29
  316.86        2975.00           1556          85.00       352.23
  316.89        2975.25           1559          70.00       286.84
  316.92        2975.50           1563          61.00       247.60
  316.95        2975.75           1566          65.00       265.04
  316.98        2976.00           1569          65.00       265.04
  317.02        2976.25           1573          52.00       208.37
  317.05        2976.50           1576          61.00       247.60
  317.08        2976.75           1579          54.00       217.09
  317.11        2977.00           1583          59.00       238.89
  317.14        2977.25           1586          51.00       204.01
  317.17        2977.50           1590          60.00       243.25
  317.20        2977.75           1593          55.00       221.45
  317.23        2978.00           1596          58.00       234.53
  317.26        2978.25           1600          57.00       230.17
  317.29        2978.50           1603          56.00       225.81
  317.32        2978.75           1606          55.00       221.45
  317.35        2979.00           1610          67.00       273.76
  317.38        2979.25           1613          57.00       230.17
  317.41        2979.50           1616          56.00       225.81
  317.45        2979.75           1620          58.00       234.53
  317.48        2980.00           1623          62.00       251.96
  317.51        2980.25           1626          59.00       238.89
  317.54        2980.50           1630          52.00       208.37
  317.57        2980.75           1633          59.00       238.89
  317.60        2981.00           1637          57.00       230.17
  317.63        2981.25           1640          62.00       251.96
  317.66        2981.50           1643          67.00       273.76
  317.69        2981.75           1647          59.00       238.89
  317.72        2982.00           1650          58.00       234.53
  317.75        2982.25           1653          57.00       230.17
  317.78        2982.50           1657          54.00       217.09
  317.81        2982.75           1660          60.00       243.25
  317.85        2983.00           1663          66.00       269.40
  317.88        2983.25           1667          65.00       265.04
  317.91        2983.50           1670          61.00       247.60
  317.94        2983.75           1673          57.00       230.17
  317.97        2984.00           1677          54.00       217.09
HS scan finished at 05:18:11
end
************************************************************
  HS Scan of (1) Internal mercury lamp
************************************************************
Integration time is 0.2294 seconds per sample
dh081217Manchester 53.47 2.23 2.750537pr1000
************************************************************
Dead Time -------------------------  3E-08 
Number of Cycles Used -------------  4 
Starting Wavelength (Angstroms) ---  2950 
Final Wavelength (Angstoms) -------  2984 
Wavelength Increment (Angstroms) --  .25 
Filter Wheel #1 Position ---------- (1) Ground quartz diffuser (ND=2.32)
Filter Wheel #2 Position ---------- (1) Neutral Density 0.494



************************************************************
HS scan start time = 16:42:03
Dark Count =  6.9 


Time (GMT)  Wavelength (Ang)  Step Number  Raw Counts  Counts/Second

 1002.42        2950.00           1222          60.00       231.48
 1002.49        2950.25           1226          67.00       261.99
 1002.52        2950.50           1229          65.00       253.27
 1002.55        2950.75           1232          69.00       270.71
 1002.58        2951.00           1236          63.00       244.55
 1002.61        2951.25           1239          65.00       253.27
 1002.64        2951.50           1242          56.00       214.04
 1002.67        2951.75           1246          59.00       227.12
 1002.70        2952.00           1249          61.00       235.83
 1002.73        2952.25           1252          66.00       257.63
 1002.76        2952.50           1256          64.00       248.91
 1002.79        2952.75           1259          68.00       266.35
 1002.83        2953.00           1262          65.00       253.27
 1002.86        2953.25           1266          60.00       231.48
 1002.89        2953.50           1269          73.00       288.15
 1002.92        2953.75           1272          79.00       314.30
 1002.95        2954.00           1276          64.00       248.91
 1002.98        2954.25           1279          62.00       240.19
 1003.01        2954.50           1282          53.00       200.96
 1003.04        2954.75           1286          67.00       261.99
 1003.07        2955.00           1289          69.00       270.71
 1003.10        2955.25           1292          65.00       253.27
 1003.13        2955.50           1296          69.00       270.71
 1003.17        2955.75           1299          60.00       231.48
 1003.20        2956.00           1302          62.00       240.19
 1003.23        2956.25           1306          58.00       222.76
 1003.26        2956.50           1309          60.00       231.48
 1003.29        2956.75           1312          73.00       288.15
 1003.32        2957.00           1316          61.00       235.83
 1003.35        2957.25           1319          65.00       253.27
 1003.38        2957.50           1322          55.00       209.68
 1003.41        2957.75           1326          66.00       257.63
 1003.44        2958.00           1329          65.00       253.27
 1003.47        2958.25           1332          66.00       257.63
 1003.50        2958.50           1336          59.00       227.12
 1003.53        2958.75           1339          64.00       248.91
 1003.56        2959.00           1342          61.00       235.83
 1003.59        2959.25           1346          73.00       288.15
 1003.63        2959.50           1349          75.00       296.86
 1003.66        2959.75           1352          83.00       331.74
 1003.69        2960.00           1356         107.00       436.36
 1003.72        2960.25           1359         140.00       580.22
 1003.75        2960.50           1362         164.00       684.84
 1003.78        2960.75           1366         215.00       907.17
 1003.81        2961.00           1369         281.00      1194.90
 1003.84        2961.25           1372         304.00      1295.17
 1003.87        2961.50           1376         371.00      1587.26
 1003.90        2961.75           1379         443.00      1901.15
 1003.93        2962.00           1382         792.00      3422.76
 1003.97        2962.25           1386        2144.00      9318.65
 1004.00        2962.50           1389        3574.00     15556.95
 1004.03        2962.75           1392        4973.00     21662.29
 1004.06        2963.00           1396        6890.00     30031.84
 1004.09        2963.25           1399        8413.00     36684.20
 1004.12        2963.50           1402       10014.00     43680.14
 1004.15        2963.75           1406       12120.00     52887.24
 1004.18        2964.00           1409       13609.00     59400.01
 1004.21        2964.25           1412       15294.00     66773.12
 1004.25        2964.50           1416       17190.00     75073.43
 1004.28        2964.75           1419       18634.00     81397.75
 1004.31        2965.00           1422       20313.00     88754.32
 1004.34        2965.25           1426       22172.00     96903.35
 1004.37        2965.50           1429       23760.00    103867.60
 1004.40        2965.75           1432       25339.00    110795.30
 1004.43        2966.00           1436       27244.00    119157.10
 1004.46        2966.25           1439       28755.00    125792.50
 1004.49        2966.50           1442       30154.00    131938.40
 1004.52        2966.75           1446       31837.00    139334.90
 1004.56        2967.00           1449       32618.00    142768.40
 1004.59        2967.25           1452       32707.00    143159.70
 1004.62        2967.50           1456       32988.00    144395.30
 1004.65        2967.75           1459       32861.00    143836.90
 1004.68        2968.00           1462       32748.00    143340.00
 1004.71        2968.25           1466       32364.00    141651.70
 1004.74        2968.50           1469       31398.00    137405.30
 1004.77        2968.75           1472       30026.00    131376.00
 1004.80        2969.00           1476       28072.00    122792.90
 1004.83        2969.25           1479       26450.00    115671.40
 1004.87        2969.50           1482       24898.00    108860.20
 1004.90        2969.75           1486       22992.00    100499.20
 1004.93        2970.00           1489       21626.00     94509.52
 1004.96        2970.25           1492       20149.00     88035.59
 1004.99        2970.50           1496       18174.00     79382.81
 1005.02        2970.75           1499       16605.00     72511.97
 1005.05        2971.00           1502       15190.00     66317.96
 1005.08        2971.25           1506       13149.00     57387.74
 1005.11        2971.50           1509       11592.00     50578.43
 1005.15        2971.75           1513        9529.00     41560.51
 1005.18        2972.00           1516        7917.00     34517.42
 1005.21        2972.25           1519        6396.00     27874.65
 1005.24        2972.50           1523        4609.00     20073.55
 1005.27        2972.75           1526        3177.00     13824.83
 1005.30        2973.00           1529        1671.00      7255.72
 1005.33        2973.25           1533         542.00      2332.77
 1005.36        2973.50           1536         338.00      1443.39
 1005.39        2973.75           1539         262.00      1112.07
 1005.42        2974.00           1543         203.00       854.86
 1005.45        2974.25           1546         170.00       711.00
 1005.48        2974.50           1549         135.00       558.42
 1005.52        2974.75           1553          97.00       392.77
 1005.55        2975.00           1556          78.00       309.94
 1005.58        2975.25           1559          71.00       279.43
 1005.61        2975.50           1563          63.00       244.55
 1005.64        2975.75           1566          61.00       235.83
 1005.67        2976.00           1569          62.00       240.19
 1005.70        2976.25           1573          59.00       227.12
 1005.73        2976.50           1576          65.00       253.27
 1005.76        2976.75           1579          58.00       222.76
 1005.79        2977.00           1583          65.00       253.27
 1005.82        2977.25           1586          61.00       235.83
 1005.86        2977.50           1590          57.00       218.40
 1005.89        2977.75           1593          61.00       235.83
 1005.92        2978.00           1596          59.00       227.12
 1005.95        2978.25           1600          62.00       240.19
 1005.98        2978.50           1603          54.00       205.32
 1006.01        2978.75           1606          59.00       227.12
 1006.04        2979.00           1610          58.00       222.76
 1006.07        2979.25           1613          65.00       253.27
 1006.10        2979.50           1616          60.00       231.48
 1006.13        2979.75           1620          56.00       214.04
 1006.17        2980.00           1623          59.00       227.12
 1006.20        2980.25           1626          62.00       240.19
 1006.23        2980.50           1630          57.00       218.40
 1006.26        2980.75           1633          59.00       227.12
 1006.29        2981.00           1637          62.00       240.19
 1006.32        2981.25           1640          59.00       227.12
 1006.35        2981.50           1643          64.00       248.91
 1006.38        2981.75           1647          50.00       187.88
 1006.41        2982.00           1650          56.00       214.04
 1006.44        2982.25           1653          57.00       218.40
 1006.47        2982.50           1657          60.00       231.48
 1006.50        2982.75           1660          68.00       266.35
 1006.54        2983.00           1663          53.00       200.96
 1006.57        2983.25           1667          52.00       196.60
 1006.60        2983.50           1670          58.00       222.76
 1006.63        2983.75           1673          48.00       179.16
 1006.66        2984.00           1677          61.00       235.83
HS scan finished at 16:46:52
end
