************************************************************
  HS Scan of (1) Internal mercury lamp
************************************************************
Integration time is 0.2294 seconds per sample
dh071218Manchester 53.47 2.23 2.804185pr1000
************************************************************
Dead Time -------------------------  3E-08 
Number of Cycles Used -------------  4 
Starting Wavelength (Angstroms) ---  2950 
Final Wavelength (Angstoms) -------  2984 
Wavelength Increment (Angstroms) --  .25 
Filter Wheel #1 Position ---------- (1) Ground quartz diffuser (ND=2.32)
Filter Wheel #2 Position ---------- (1) Neutral Density 0.494



************************************************************
HS scan start time = 05:12:10
Dark Count =  7.3 


Time (GMT)  Wavelength (Ang)  Step Number  Raw Counts  Counts/Second

  312.54        2950.00           1222          50.00       186.14
  312.60        2950.25           1226          60.00       229.73
  312.63        2950.50           1229          54.00       203.58
  312.67        2950.75           1232          54.00       203.58
  312.70        2951.00           1236          52.00       194.86
  312.73        2951.25           1239          55.00       207.94
  312.76        2951.50           1242          54.00       203.58
  312.79        2951.75           1246          48.00       177.42
  312.82        2952.00           1249          62.00       238.45
  312.85        2952.25           1252          58.00       221.01
  312.88        2952.50           1256          50.00       186.14
  312.91        2952.75           1259          53.00       199.22
  312.94        2953.00           1262          55.00       207.94
  312.97        2953.25           1266          51.00       190.50
  313.00        2953.50           1269          55.00       207.94
  313.04        2953.75           1272          47.00       173.06
  313.07        2954.00           1276          53.00       199.22
  313.10        2954.25           1279          59.00       225.37
  313.13        2954.50           1282          48.00       177.42
  313.16        2954.75           1286          52.00       194.86
  313.19        2955.00           1289          60.00       229.73
  313.22        2955.25           1292          56.00       212.29
  313.25        2955.50           1296          55.00       207.94
  313.28        2955.75           1299          53.00       199.22
  313.31        2956.00           1302          54.00       203.58
  313.34        2956.25           1306          53.00       199.22
  313.38        2956.50           1309          46.00       168.70
  313.41        2956.75           1312          57.00       216.65
  313.44        2957.00           1316          54.00       203.58
  313.47        2957.25           1319          57.00       216.65
  313.50        2957.50           1322          57.00       216.65
  313.53        2957.75           1326          52.00       194.86
  313.56        2958.00           1329          53.00       199.22
  313.59        2958.25           1332          51.00       190.50
  313.62        2958.50           1336          56.00       212.29
  313.65        2958.75           1339          59.00       225.37
  313.69        2959.00           1342          61.00       234.09
  313.72        2959.25           1346          56.00       212.29
  313.75        2959.50           1349          57.00       216.65
  313.78        2959.75           1352          63.00       242.81
  313.81        2960.00           1356          80.00       316.92
  313.84        2960.25           1359         112.00       456.41
  313.87        2960.50           1362         126.00       517.44
  313.90        2960.75           1366         166.00       691.82
  313.93        2961.00           1369         193.00       809.52
  313.96        2961.25           1372         228.00       962.10
  313.99        2961.50           1376         267.00      1132.12
  314.03        2961.75           1379         332.00      1415.49
  314.06        2962.00           1382         579.00      2492.34
  314.09        2962.25           1386        1629.00      7070.81
  314.12        2962.50           1389        2757.00     11990.80
  314.15        2962.75           1392        3843.00     16728.97
  314.18        2963.00           1396        5402.00     23533.18
  314.21        2963.25           1399        6338.00     27619.65
  314.24        2963.50           1402        7332.00     31960.45
  314.27        2963.75           1406        8790.00     38329.58
  314.31        2964.00           1409        9910.00     43223.85
  314.34        2964.25           1412       10892.00     47516.25
  314.37        2964.50           1416       12461.00     54376.78
  314.40        2964.75           1419       13726.00     59910.11
  314.43        2965.00           1422       14847.00     64815.10
  314.46        2965.25           1426       16363.00     71450.72
  314.49        2965.50           1429       17456.00     76236.50
  314.52        2965.75           1432       18417.00     80445.43
  314.55        2966.00           1436       19834.00     86653.48
  314.58        2966.25           1439       20737.00     90610.84
  314.62        2966.50           1442       21815.00     95336.37
  314.65        2966.75           1446       22838.00     99822.03
  314.68        2967.00           1449       23237.00    101571.90
  314.71        2967.25           1452       23490.00    102681.60
  314.74        2967.50           1456       23457.00    102536.80
  314.77        2967.75           1459       23549.00    102940.30
  314.80        2968.00           1462       23384.00    102216.60
  314.83        2968.25           1466       22784.00     99585.21
  314.86        2968.50           1469       21880.00     95621.34
  314.90        2968.75           1472       20821.00     90979.02
  314.93        2969.00           1476       19583.00     85553.66
  314.96        2969.25           1479       18513.00     80865.95
  314.99        2969.50           1482       17432.00     76131.40
  315.02        2969.75           1486       16034.00     70010.46
  315.05        2970.00           1489       15047.00     65690.36
  315.08        2970.25           1492       13875.00     60561.99
  315.11        2970.50           1496       12571.00     54857.87
  315.14        2970.75           1499       11475.00     50065.12
  315.18        2971.00           1502       10430.00     45496.67
  315.21        2971.25           1506        8900.00     38810.20
  315.24        2971.50           1509        7842.00     34188.06
  315.27        2971.75           1513        6233.00     27161.18
  315.30        2972.00           1516        5295.00     23066.09
  315.33        2972.25           1519        4268.00     18583.59
  315.36        2972.50           1523        2810.00     12222.00
  315.39        2972.75           1526        1900.00      8252.70
  315.42        2973.00           1529         960.00      4153.53
  315.46        2973.25           1533         370.00      1581.16
  315.49        2973.50           1536         253.00      1071.09
  315.52        2973.75           1539         207.00       870.55
  315.55        2974.00           1543         167.00       696.18
  315.58        2974.25           1546         129.00       530.52
  315.61        2974.50           1549         104.00       421.54
  315.64        2974.75           1553          76.00       299.48
  315.67        2975.00           1556          62.00       238.45
  315.70        2975.25           1559          57.00       216.65
  315.74        2975.50           1563          52.00       194.86
  315.77        2975.75           1566          61.00       234.09
  315.80        2976.00           1569          56.00       212.29
  315.83        2976.25           1573          46.00       168.70
  315.86        2976.50           1576          45.00       164.34
  315.89        2976.75           1579          55.00       207.94
  315.92        2977.00           1583          48.00       177.42
  315.95        2977.25           1586          50.00       186.14
  315.98        2977.50           1590          56.00       212.29
  316.02        2977.75           1593          57.00       216.65
  316.05        2978.00           1596          49.00       181.78
  316.08        2978.25           1600          51.00       190.50
  316.11        2978.50           1603          51.00       190.50
  316.14        2978.75           1606          52.00       194.86
  316.17        2979.00           1610          52.00       194.86
  316.20        2979.25           1613          45.00       164.34
  316.23        2979.50           1616          47.00       173.06
  316.26        2979.75           1620          53.00       199.22
  316.29        2980.00           1623          45.00       164.34
  316.32        2980.25           1626          45.00       164.34
  316.36        2980.50           1630          51.00       190.50
  316.39        2980.75           1633          47.00       173.06
  316.42        2981.00           1637          51.00       190.50
  316.45        2981.25           1640          51.00       190.50
  316.48        2981.50           1643          48.00       177.42
  316.51        2981.75           1647          55.00       207.94
  316.54        2982.00           1650          43.00       155.62
  316.57        2982.25           1653          51.00       190.50
  316.60        2982.50           1657          57.00       216.65
  316.64        2982.75           1660          49.00       181.78
  316.67        2983.00           1663          50.00       186.14
  316.70        2983.25           1667          45.00       164.34
  316.73        2983.50           1670          38.00       133.83
  316.76        2983.75           1673          45.00       164.34
  316.79        2984.00           1677          46.00       168.70
HS scan finished at 05:17:00
end
************************************************************
  HS Scan of (1) Internal mercury lamp
************************************************************
Integration time is 0.2294 seconds per sample
dh071218Manchester 53.47 2.23 2.804185pr1000
************************************************************
Dead Time -------------------------  3E-08 
Number of Cycles Used -------------  4 
Starting Wavelength (Angstroms) ---  2950 
Final Wavelength (Angstoms) -------  2984 
Wavelength Increment (Angstroms) --  .25 
Filter Wheel #1 Position ---------- (1) Ground quartz diffuser (ND=2.32)
Filter Wheel #2 Position ---------- (1) Neutral Density 0.494



************************************************************
HS scan start time = 16:42:04
Dark Count =  6.4 


Time (GMT)  Wavelength (Ang)  Step Number  Raw Counts  Counts/Second

 1002.43        2950.00           1222          57.00       220.58
 1002.50        2950.25           1226          55.00       211.86
 1002.53        2950.50           1229          59.00       229.30
 1002.56        2950.75           1232          57.00       220.58
 1002.59        2951.00           1236          64.00       251.09
 1002.62        2951.25           1239          68.00       268.53
 1002.66        2951.50           1242          50.00       190.06
 1002.69        2951.75           1246          60.00       233.65
 1002.72        2952.00           1249          52.00       198.78
 1002.75        2952.25           1252          54.00       207.50
 1002.78        2952.50           1256          56.00       216.22
 1002.81        2952.75           1259          54.00       207.50
 1002.84        2953.00           1262          58.00       224.94
 1002.87        2953.25           1266          58.00       224.94
 1002.90        2953.50           1269          53.00       203.14
 1002.93        2953.75           1272          52.00       198.78
 1002.96        2954.00           1276          55.00       211.86
 1002.99        2954.25           1279          51.00       194.42
 1003.02        2954.50           1282          50.00       190.06
 1003.05        2954.75           1286          50.00       190.06
 1003.08        2955.00           1289          56.00       216.22
 1003.12        2955.25           1292          48.00       181.34
 1003.15        2955.50           1296          57.00       220.58
 1003.18        2955.75           1299          53.00       203.14
 1003.21        2956.00           1302          55.00       211.86
 1003.24        2956.25           1306          55.00       211.86
 1003.27        2956.50           1309          56.00       216.22
 1003.30        2956.75           1312          55.00       211.86
 1003.33        2957.00           1316          56.00       216.22
 1003.36        2957.25           1319          52.00       198.78
 1003.39        2957.50           1322          51.00       194.42
 1003.42        2957.75           1326          54.00       207.50
 1003.45        2958.00           1329          51.00       194.42
 1003.48        2958.25           1332          53.00       203.14
 1003.51        2958.50           1336          48.00       181.34
 1003.54        2958.75           1339          59.00       229.30
 1003.57        2959.00           1342          52.00       198.78
 1003.60        2959.25           1346          58.00       224.94
 1003.64        2959.50           1349          62.00       242.37
 1003.67        2959.75           1352          68.00       268.53
 1003.70        2960.00           1356          86.00       347.00
 1003.73        2960.25           1359         107.00       438.54
 1003.76        2960.50           1362         137.00       569.32
 1003.79        2960.75           1366         176.00       739.34
 1003.82        2961.00           1369         198.00       835.24
 1003.85        2961.25           1372         221.00       935.51
 1003.88        2961.50           1376         285.00      1214.52
 1003.92        2961.75           1379         427.00      1833.58
 1003.95        2962.00           1382         904.00      3913.28
 1003.98        2962.25           1386        2195.00      9543.27
 1004.01        2962.50           1389        3168.00     13787.74
 1004.04        2962.75           1392        4201.00     18295.13
 1004.07        2963.00           1396        5608.00     24436.39
 1004.10        2963.25           1399        6669.00     29068.93
 1004.13        2963.50           1402        7803.00     34021.63
 1004.16        2963.75           1406        9251.00     40347.85
 1004.20        2964.00           1409       10275.00     44823.10
 1004.23        2964.25           1412       11430.00     49872.30
 1004.26        2964.50           1416       12905.00     56322.64
 1004.29        2964.75           1419       13887.00     60618.42
 1004.32        2965.00           1422       14905.00     65072.86
 1004.35        2965.25           1426       16424.00     71721.73
 1004.38        2965.50           1429       17455.00     76236.06
 1004.41        2965.75           1432       18472.00     80690.30
 1004.44        2966.00           1436       20003.00     87397.99
 1004.47        2966.25           1439       20871.00     91202.11
 1004.51        2966.50           1442       21984.00     96081.27
 1004.54        2966.75           1446       23158.00    101229.40
 1004.57        2967.00           1449       23346.00    102053.90
 1004.60        2967.25           1452       23404.00    102308.30
 1004.63        2967.50           1456       23411.00    102339.00
 1004.66        2967.75           1459       23253.00    101646.00
 1004.69        2968.00           1462       23310.00    101896.00
 1004.72        2968.25           1466       22636.00     98940.14
 1004.75        2968.50           1469       21636.00     94555.55
 1004.78        2968.75           1472       20421.00     89229.81
 1004.81        2969.00           1476       19036.00     83161.00
 1004.84        2969.25           1479       18073.00     78942.62
 1004.88        2969.50           1482       17001.00     74248.03
 1004.91        2969.75           1486       15576.00     68009.59
 1004.94        2970.00           1489       14579.00     63646.26
 1004.97        2970.25           1492       13625.00     59472.19
 1005.00        2970.50           1496       12019.00     52447.76
 1005.03        2970.75           1499       11041.00     48171.57
 1005.06        2971.00           1502       10052.00     43848.40
 1005.09        2971.25           1506        8444.00     36821.82
 1005.12        2971.50           1509        7436.00     32418.61
 1005.15        2971.75           1513        5985.00     26082.30
 1005.18        2972.00           1516        5107.00     22249.37
 1005.21        2972.25           1519        3808.00     16580.17
 1005.24        2972.50           1523        2375.00     10328.40
 1005.28        2972.75           1526        1326.00      5753.39
 1005.31        2973.00           1529         581.00      2504.98
 1005.34        2973.25           1533         295.00      1258.11
 1005.37        2973.50           1536         235.00       996.54
 1005.40        2973.75           1539         223.00       944.23
 1005.43        2974.00           1543         171.00       717.54
 1005.46        2974.25           1546         134.00       556.24
 1005.49        2974.50           1549         103.00       421.10
 1005.52        2974.75           1553          81.00       325.20
 1005.56        2975.00           1556          59.00       229.30
 1005.59        2975.25           1559          54.00       207.50
 1005.62        2975.50           1563          49.00       185.70
 1005.65        2975.75           1566          49.00       185.70
 1005.68        2976.00           1569          51.00       194.42
 1005.71        2976.25           1573          58.00       224.94
 1005.74        2976.50           1576          55.00       211.86
 1005.77        2976.75           1579          54.00       207.50
 1005.80        2977.00           1583          49.00       185.70
 1005.83        2977.25           1586          47.00       176.98
 1005.86        2977.50           1590          56.00       216.22
 1005.90        2977.75           1593          52.00       198.78
 1005.93        2978.00           1596          59.00       229.30
 1005.96        2978.25           1600          46.00       172.63
 1005.99        2978.50           1603          45.00       168.27
 1006.02        2978.75           1606          55.00       211.86
 1006.05        2979.00           1610          53.00       203.14
 1006.08        2979.25           1613          49.00       185.70
 1006.11        2979.50           1616          54.00       207.50
 1006.14        2979.75           1620          52.00       198.78
 1006.17        2980.00           1623          49.00       185.70
 1006.20        2980.25           1626          43.00       159.55
 1006.24        2980.50           1630          50.00       190.06
 1006.27        2980.75           1633          50.00       190.06
 1006.30        2981.00           1637          45.00       168.27
 1006.33        2981.25           1640          46.00       172.63
 1006.36        2981.50           1643          55.00       211.86
 1006.39        2981.75           1647          52.00       198.78
 1006.42        2982.00           1650          46.00       172.63
 1006.45        2982.25           1653          53.00       203.14
 1006.48        2982.50           1657          54.00       207.50
 1006.52        2982.75           1660          48.00       181.34
 1006.56        2983.00           1663          49.00       185.70
 1006.60        2983.25           1667          46.00       172.63
 1006.63        2983.50           1670          50.00       190.06
 1006.66        2983.75           1673          46.00       172.63
 1006.69        2984.00           1677          47.00       176.98
HS scan finished at 16:46:54
end
