************************************************************
  HS Scan of (1) Internal mercury lamp
************************************************************
Integration time is 0.2294 seconds per sample
dh071217Manchester 53.47 2.23 2.804185pr1000
************************************************************
Dead Time -------------------------  3E-08 
Number of Cycles Used -------------  4 
Starting Wavelength (Angstroms) ---  2950 
Final Wavelength (Angstoms) -------  2984 
Wavelength Increment (Angstroms) --  .25 
Filter Wheel #1 Position ---------- (1) Ground quartz diffuser (ND=2.32)
Filter Wheel #2 Position ---------- (1) Neutral Density 0.494



************************************************************
HS scan start time = 05:12:20
Dark Count =  6.2 


Time (GMT)  Wavelength (Ang)  Step Number  Raw Counts  Counts/Second

  312.70        2950.00           1222          68.00       269.40
  312.77        2950.25           1226          63.00       247.60
  312.80        2950.50           1229          62.00       243.25
  312.83        2950.75           1232          67.00       265.04
  312.86        2951.00           1236          65.00       256.32
  312.89        2951.25           1239          69.00       273.76
  312.92        2951.50           1242          60.00       234.53
  312.95        2951.75           1246          69.00       273.76
  312.98        2952.00           1249          62.00       243.25
  313.01        2952.25           1252          70.00       278.12
  313.04        2952.50           1256          63.00       247.60
  313.07        2952.75           1259          67.00       265.04
  313.11        2953.00           1262          63.00       247.60
  313.14        2953.25           1266          64.00       251.96
  313.17        2953.50           1269          66.00       260.68
  313.20        2953.75           1272          64.00       251.96
  313.23        2954.00           1276          66.00       260.68
  313.26        2954.25           1279          71.00       282.48
  313.29        2954.50           1282          66.00       260.68
  313.32        2954.75           1286          61.00       238.89
  313.35        2955.00           1289          64.00       251.96
  313.38        2955.25           1292          59.00       230.17
  313.41        2955.50           1296          63.00       247.60
  313.44        2955.75           1299          60.00       234.53
  313.47        2956.00           1302          66.00       260.68
  313.51        2956.25           1306          64.00       251.96
  313.54        2956.50           1309          66.00       260.68
  313.57        2956.75           1312          61.00       238.89
  313.60        2957.00           1316          62.00       243.25
  313.63        2957.25           1319          65.00       256.32
  313.66        2957.50           1322          62.00       243.25
  313.69        2957.75           1326          62.00       243.25
  313.72        2958.00           1329          60.00       234.53
  313.75        2958.25           1332          60.00       234.53
  313.78        2958.50           1336          57.00       221.45
  313.81        2958.75           1339          63.00       247.60
  313.84        2959.00           1342          66.00       260.68
  313.87        2959.25           1346          70.00       278.12
  313.90        2959.50           1349          77.00       308.63
  313.93        2959.75           1352          89.00       360.95
  313.97        2960.00           1356         123.00       509.16
  314.00        2960.25           1359         146.00       609.43
  314.03        2960.50           1362         183.00       770.72
  314.06        2960.75           1366         224.00       949.46
  314.09        2961.00           1369         275.00      1171.79
  314.12        2961.25           1372         327.00      1398.49
  314.15        2961.50           1376         385.00      1651.35
  314.18        2961.75           1379         493.00      2122.19
  314.21        2962.00           1382         927.00      4014.43
  314.24        2962.25           1386        2526.00     10987.93
  314.27        2962.50           1389        3965.00     17266.13
  314.31        2962.75           1392        5387.00     23472.50
  314.34        2963.00           1396        7190.00     31345.07
  314.37        2963.25           1399        8824.00     38482.94
  314.40        2963.50           1402       10301.00     44937.62
  314.43        2963.75           1406       12257.00     53489.43
  314.46        2964.00           1409       13904.00     60693.67
  314.49        2964.25           1412       15605.00     68137.40
  314.52        2964.50           1416       17631.00     77007.71
  314.55        2964.75           1419       19167.00     83735.81
  314.59        2965.00           1422       20856.00     91137.26
  314.62        2965.25           1426       22950.00    100318.00
  314.65        2965.50           1429       24662.00    107827.80
  314.68        2965.75           1432       25954.00    113497.40
  314.71        2966.00           1436       27957.00    122290.90
  314.74        2966.25           1439       29358.00    128444.30
  314.77        2966.50           1442       30693.00    134309.90
  314.80        2966.75           1446       32561.00    142520.90
  314.83        2967.00           1449       33033.00    144596.30
  314.86        2967.25           1452       33438.00    146377.20
  314.90        2967.50           1456       33486.00    146588.30
  314.93        2967.75           1459       33382.00    146131.00
  314.96        2968.00           1462       33285.00    145704.40
  314.99        2968.25           1466       32659.00    142951.80
  315.02        2968.50           1469       31183.00    136463.40
  315.05        2968.75           1472       29801.00    130390.50
  315.08        2969.00           1476       27999.00    122475.40
  315.11        2969.25           1479       26566.00    116183.70
  315.14        2969.50           1482       24768.00    108292.90
  315.17        2969.75           1486       22840.00     99835.62
  315.21        2970.00           1489       21467.00     93815.56
  315.24        2970.25           1492       19993.00     87355.05
  315.27        2970.50           1496       17995.00     78601.87
  315.30        2970.75           1499       16355.00     71420.53
  315.33        2971.00           1502       14689.00     64128.49
  315.36        2971.25           1506       12745.00     55623.69
  315.39        2971.50           1509       11046.00     48194.30
  315.42        2971.75           1513        9122.00     39785.04
  315.45        2972.00           1516        7660.00     33397.88
  315.49        2972.25           1519        6041.00     26327.67
  315.52        2972.50           1523        4028.00     17541.05
  315.55        2972.75           1526        2635.00     11463.40
  315.58        2973.00           1529        1311.00      5688.85
  315.61        2973.25           1533         471.00      2026.28
  315.64        2973.50           1536         332.00      1420.29
  315.67        2973.75           1539         255.00      1084.60
  315.70        2974.00           1543         211.00       892.79
  315.73        2974.25           1546         167.00       700.97
  315.76        2974.50           1549         137.00       570.19
  315.80        2974.75           1553          91.00       369.66
  315.83        2975.00           1556          73.00       291.20
  315.86        2975.25           1559          65.00       256.32
  315.89        2975.50           1563          63.00       247.60
  315.92        2975.75           1566          58.00       225.81
  315.95        2976.00           1569          61.00       238.89
  315.98        2976.25           1573          57.00       221.45
  316.01        2976.50           1576          57.00       221.45
  316.04        2976.75           1579          56.00       217.09
  316.07        2977.00           1583          61.00       238.89
  316.10        2977.25           1586          59.00       230.17
  316.14        2977.50           1590          60.00       234.53
  316.17        2977.75           1593          58.00       225.81
  316.20        2978.00           1596          56.00       217.09
  316.23        2978.25           1600          67.00       265.04
  316.26        2978.50           1603          61.00       238.89
  316.29        2978.75           1606          70.00       278.12
  316.32        2979.00           1610          63.00       247.60
  316.35        2979.25           1613          62.00       243.25
  316.38        2979.50           1616          65.00       256.32
  316.42        2979.75           1620          58.00       225.81
  316.45        2980.00           1623          58.00       225.81
  316.48        2980.25           1626          55.00       212.73
  316.51        2980.50           1630          54.00       208.37
  316.54        2980.75           1633          53.00       204.01
  316.57        2981.00           1637          62.00       243.25
  316.60        2981.25           1640          58.00       225.81
  316.63        2981.50           1643          59.00       230.17
  316.66        2981.75           1647          55.00       212.73
  316.69        2982.00           1650          48.00       182.22
  316.72        2982.25           1653          62.00       243.25
  316.75        2982.50           1657          55.00       212.73
  316.79        2982.75           1660          54.00       208.37
  316.82        2983.00           1663          94.00       382.74
  316.85        2983.25           1667          52.00       199.65
  316.88        2983.50           1670          58.00       225.81
  316.91        2983.75           1673          60.00       234.53
  316.94        2984.00           1677          57.00       221.45
HS scan finished at 05:17:09
end
************************************************************
  HS Scan of (1) Internal mercury lamp
************************************************************
Integration time is 0.2294 seconds per sample
dh071217Manchester 53.47 2.23 2.804185pr1000
************************************************************
Dead Time -------------------------  3E-08 
Number of Cycles Used -------------  4 
Starting Wavelength (Angstroms) ---  2950 
Final Wavelength (Angstoms) -------  2984 
Wavelength Increment (Angstroms) --  .25 
Filter Wheel #1 Position ---------- (1) Ground quartz diffuser (ND=2.32)
Filter Wheel #2 Position ---------- (1) Neutral Density 0.494



************************************************************
HS scan start time = 16:42:02
Dark Count =  5.4 


Time (GMT)  Wavelength (Ang)  Step Number  Raw Counts  Counts/Second

 1002.40        2950.00           1222          60.00       238.01
 1002.46        2950.25           1226          58.00       229.30
 1002.49        2950.50           1229          65.00       259.81
 1002.52        2950.75           1232          62.00       246.73
 1002.56        2951.00           1236          66.00       264.17
 1002.59        2951.25           1239          62.00       246.73
 1002.62        2951.50           1242          72.00       290.33
 1002.65        2951.75           1246          67.00       268.53
 1002.68        2952.00           1249          57.00       224.94
 1002.71        2952.25           1252          57.00       224.94
 1002.74        2952.50           1256          65.00       259.81
 1002.77        2952.75           1259          75.00       303.40
 1002.80        2953.00           1262          61.00       242.37
 1002.83        2953.25           1266          56.00       220.58
 1002.86        2953.50           1269          60.00       238.01
 1002.89        2953.75           1272          72.00       290.33
 1002.93        2954.00           1276          69.00       277.25
 1002.96        2954.25           1279          69.00       277.25
 1002.99        2954.50           1282          65.00       259.81
 1003.02        2954.75           1286          63.00       251.09
 1003.05        2955.00           1289          62.00       246.73
 1003.08        2955.25           1292          65.00       259.81
 1003.11        2955.50           1296          62.00       246.73
 1003.14        2955.75           1299          71.00       285.97
 1003.17        2956.00           1302          63.00       251.09
 1003.20        2956.25           1306          66.00       264.17
 1003.23        2956.50           1309          63.00       251.09
 1003.26        2956.75           1312          67.00       268.53
 1003.29        2957.00           1316          68.00       272.89
 1003.32        2957.25           1319          62.00       246.73
 1003.36        2957.50           1322          68.00       272.89
 1003.39        2957.75           1326          71.00       285.97
 1003.42        2958.00           1329          65.00       259.81
 1003.45        2958.25           1332          71.00       285.97
 1003.48        2958.50           1336          64.00       255.45
 1003.51        2958.75           1339          61.00       242.37
 1003.54        2959.00           1342          68.00       272.89
 1003.57        2959.25           1346          67.00       268.53
 1003.60        2959.50           1349          77.00       312.12
 1003.63        2959.75           1352          86.00       351.36
 1003.66        2960.00           1356         122.00       508.29
 1003.70        2960.25           1359         150.00       630.35
 1003.73        2960.50           1362         187.00       791.65
 1003.76        2960.75           1366         234.00       996.54
 1003.79        2961.00           1369         279.00      1192.72
 1003.82        2961.25           1372         326.00      1397.62
 1003.85        2961.50           1376         392.00      1685.35
 1003.88        2961.75           1379         588.00      2539.86
 1003.91        2962.00           1382        1314.00      5705.42
 1003.94        2962.25           1386        3097.00     13482.35
 1003.97        2962.50           1389        4521.00     19696.03
 1004.01        2962.75           1392        5998.00     26143.43
 1004.04        2963.00           1396        7973.00     34768.60
 1004.07        2963.25           1399        9530.00     41571.43
 1004.10        2963.50           1402       10944.00     47751.89
 1004.13        2963.75           1406       13089.00     57131.84
 1004.16        2964.00           1409       14614.00     63803.79
 1004.19        2964.25           1412       16371.00     71494.06
 1004.22        2964.50           1416       18260.00     79766.06
 1004.25        2964.75           1419       19926.00     87064.94
 1004.28        2965.00           1422       21380.00     93437.66
 1004.31        2965.25           1426       23169.00    101282.00
 1004.35        2965.50           1429       24775.00    108327.10
 1004.38        2965.75           1432       26358.00    115274.20
 1004.41        2966.00           1436       28382.00    124160.80
 1004.44        2966.25           1439       29812.00    130442.30
 1004.47        2966.50           1442       31023.00    135763.70
 1004.50        2966.75           1446       32684.00    143065.20
 1004.53        2967.00           1449       32985.00    144388.70
 1004.56        2967.25           1452       32928.00    144138.10
 1004.59        2967.50           1456       32918.00    144094.10
 1004.63        2967.75           1459       32824.00    143680.80
 1004.66        2968.00           1462       32728.00    143258.70
 1004.69        2968.25           1466       31752.00    138967.90
 1004.72        2968.50           1469       30454.00    133263.20
 1004.75        2968.75           1472       28888.00    126383.30
 1004.78        2969.00           1476       27089.00    118483.20
 1004.81        2969.25           1479       25600.00    111947.30
 1004.84        2969.50           1482       24068.00    105225.30
 1004.87        2969.75           1486       22002.00     96164.56
 1004.90        2970.00           1489       20466.00     89431.42
 1004.93        2970.25           1492       18859.00     82389.96
 1004.97        2970.50           1496       16884.00     73740.10
 1005.00        2970.75           1499       15406.00     67269.88
 1005.03        2971.00           1502       13857.00     60491.55
 1005.06        2971.25           1506       11865.00     51778.72
 1005.09        2971.50           1509       10316.00     45006.67
 1005.12        2971.75           1513        8329.00     36323.78
 1005.15        2972.00           1516        6893.00     30051.49
 1005.18        2972.25           1519        5265.00     22943.43
 1005.21        2972.50           1523        3382.00     14725.77
 1005.24        2972.75           1526        1908.00      8295.87
 1005.28        2973.00           1529         852.00      3690.91
 1005.31        2973.25           1533         416.00      1789.98
 1005.34        2973.50           1536         314.00      1345.30
 1005.37        2973.75           1539         268.00      1144.76
 1005.40        2974.00           1543         233.00       992.18
 1005.43        2974.25           1546         176.00       743.70
 1005.46        2974.50           1549         139.00       582.40
 1005.49        2974.75           1553          90.00       368.79
 1005.53        2975.00           1556          73.00       294.68
 1005.56        2975.25           1559          71.00       285.97
 1005.59        2975.50           1563          64.00       255.45
 1005.62        2975.75           1566          72.00       290.33
 1005.65        2976.00           1569          60.00       238.01
 1005.68        2976.25           1573          69.00       277.25
 1005.71        2976.50           1576          73.00       294.68
 1005.74        2976.75           1579          61.00       242.37
 1005.77        2977.00           1583          64.00       255.45
 1005.80        2977.25           1586          59.00       233.65
 1005.83        2977.50           1590          69.00       277.25
 1005.86        2977.75           1593          55.00       216.22
 1005.90        2978.00           1596          61.00       242.37
 1005.93        2978.25           1600          59.00       233.65
 1005.96        2978.50           1603          63.00       251.09
 1005.99        2978.75           1606          61.00       242.37
 1006.02        2979.00           1610          57.00       224.94
 1006.05        2979.25           1613          59.00       233.65
 1006.08        2979.50           1616          59.00       233.65
 1006.11        2979.75           1620          54.00       211.86
 1006.14        2980.00           1623          55.00       216.22
 1006.18        2980.25           1626          68.00       272.89
 1006.21        2980.50           1630          63.00       251.09
 1006.24        2980.75           1633          58.00       229.30
 1006.27        2981.00           1637          62.00       246.73
 1006.30        2981.25           1640          67.00       268.53
 1006.33        2981.50           1643          57.00       224.94
 1006.36        2981.75           1647          54.00       211.86
 1006.39        2982.00           1650          59.00       233.65
 1006.42        2982.25           1653          58.00       229.30
 1006.45        2982.50           1657          47.00       181.34
 1006.48        2982.75           1660          64.00       255.45
 1006.51        2983.00           1663          55.00       216.22
 1006.55        2983.25           1667          55.00       216.22
 1006.58        2983.50           1670          58.00       229.30
 1006.61        2983.75           1673          54.00       211.86
 1006.64        2984.00           1677          59.00       233.65
HS scan finished at 16:46:51
end
