************************************************************
  HS Scan of (1) Internal mercury lamp
************************************************************
Integration time is 0.2294 seconds per sample
dh101218Manchester 53.47 2.23 2.804185pr1000
************************************************************
Dead Time -------------------------  3E-08 
Number of Cycles Used -------------  4 
Starting Wavelength (Angstroms) ---  2950 
Final Wavelength (Angstoms) -------  2984 
Wavelength Increment (Angstroms) --  .25 
Filter Wheel #1 Position ---------- (1) Ground quartz diffuser (ND=2.32)
Filter Wheel #2 Position ---------- (1) Neutral Density 0.494



************************************************************
HS scan start time = 05:16:16
Dark Count =  7.7 


Time (GMT)  Wavelength (Ang)  Step Number  Raw Counts  Counts/Second

  316.63        2950.00           1222          54.00       201.83
  316.70        2950.25           1226          49.00       180.04
  316.73        2950.50           1229          57.00       214.91
  316.76        2950.75           1232          49.00       180.04
  316.79        2951.00           1236          49.00       180.04
  316.82        2951.25           1239          59.00       223.63
  316.85        2951.50           1242          56.00       210.55
  316.88        2951.75           1246          50.00       184.40
  316.91        2952.00           1249          56.00       210.55
  316.94        2952.25           1252          56.00       210.55
  316.97        2952.50           1256          55.00       206.19
  317.00        2952.75           1259          65.00       249.78
  317.03        2953.00           1262          62.00       236.71
  317.07        2953.25           1266          53.00       197.47
  317.10        2953.50           1269          58.00       219.27
  317.13        2953.75           1272          47.00       171.32
  317.16        2954.00           1276          50.00       184.40
  317.19        2954.25           1279          58.00       219.27
  317.22        2954.50           1282          47.00       171.32
  317.25        2954.75           1286          58.00       219.27
  317.28        2955.00           1289          51.00       188.75
  317.31        2955.25           1292          62.00       236.71
  317.34        2955.50           1296          49.00       180.04
  317.37        2955.75           1299          54.00       201.83
  317.40        2956.00           1302          59.00       223.63
  317.43        2956.25           1306          57.00       214.91
  317.47        2956.50           1309          58.00       219.27
  317.50        2956.75           1312          61.00       232.35
  317.53        2957.00           1316          55.00       206.19
  317.56        2957.25           1319          55.00       206.19
  317.59        2957.50           1322          49.00       180.04
  317.62        2957.75           1326          51.00       188.75
  317.65        2958.00           1329          51.00       188.75
  317.68        2958.25           1332          54.00       201.83
  317.71        2958.50           1336          55.00       206.19
  317.74        2958.75           1339          54.00       201.83
  317.77        2959.00           1342          53.00       197.47
  317.81        2959.25           1346          58.00       219.27
  317.84        2959.50           1349          63.00       241.07
  317.87        2959.75           1352          65.00       249.78
  317.90        2960.00           1356          88.00       350.05
  317.93        2960.25           1359         106.00       428.51
  317.96        2960.50           1362         129.00       528.78
  317.99        2960.75           1366         173.00       720.59
  318.02        2961.00           1369         191.00       799.06
  318.05        2961.25           1372         215.00       903.69
  318.08        2961.50           1376         271.00      1147.82
  318.11        2961.75           1379         333.00      1418.11
  318.14        2962.00           1382         604.00      2599.59
  318.17        2962.25           1386        1627.00      7060.34
  318.20        2962.50           1389        2750.00     11958.52
  318.24        2962.75           1392        3883.00     16901.77
  318.27        2963.00           1396        5456.00     23767.16
  318.30        2963.25           1399        6633.00     28906.05
  318.33        2963.50           1402        7540.00     32867.18
  318.36        2963.75           1406        9168.00     39979.49
  318.39        2964.00           1409       10379.00     45272.00
  318.42        2964.25           1412       11618.00     50688.62
  318.45        2964.50           1416       13139.00     57340.49
  318.48        2964.75           1419       14183.00     61907.81
  318.52        2965.00           1422       15513.00     67728.15
  318.55        2965.25           1426       17190.00     75069.93
  318.58        2965.50           1429       18357.00     80180.87
  318.61        2965.75           1432       19412.00     84802.66
  318.64        2966.00           1436       20923.00     91424.34
  318.67        2966.25           1439       21908.00     95742.35
  318.70        2966.50           1442       23091.00    100929.80
  318.73        2966.75           1446       24419.00    106755.10
  318.77        2967.00           1449       24732.00    108128.30
  318.80        2967.25           1452       24994.00    109277.90
  318.83        2967.50           1456       25009.00    109343.70
  318.86        2967.75           1459       24947.00    109071.70
  318.89        2968.00           1462       24849.00    108641.70
  318.92        2968.25           1466       24573.00    107430.70
  318.95        2968.50           1469       23469.00    102587.70
  318.98        2968.75           1472       22404.00     97917.12
  319.01        2969.00           1476       20912.00     91376.12
  319.04        2969.25           1479       19787.00     86445.78
  319.08        2969.50           1482       18524.00     80912.38
  319.11        2969.75           1486       16952.00     74027.78
  319.14        2970.00           1489       15948.00     69632.24
  319.17        2970.25           1492       14980.00     65395.39
  319.20        2970.50           1496       13481.00     58836.55
  319.23        2970.75           1499       12276.00     53565.96
  319.26        2971.00           1502       11216.00     48930.98
  319.29        2971.25           1506        9791.00     42702.01
  319.32        2971.50           1509        8484.00     36990.90
  319.35        2971.75           1513        6828.00     29757.59
  319.38        2972.00           1516        5710.00     24876.01
  319.42        2972.25           1519        4592.00     19995.86
  319.45        2972.50           1523        3058.00     13302.17
  319.48        2972.75           1526        1998.00      8678.37
  319.51        2973.00           1529        1117.00      4836.36
  319.54        2973.25           1533         390.00      1666.60
  319.57        2973.50           1536         274.00      1160.89
  319.60        2973.75           1539         223.00       938.56
  319.63        2974.00           1543         184.00       768.54
  319.66        2974.25           1546         165.00       685.72
  319.70        2974.50           1549         122.00       498.26
  319.73        2974.75           1553          84.00       332.61
  319.76        2975.00           1556          76.00       297.74
  319.79        2975.25           1559          63.00       241.07
  319.82        2975.50           1563          56.00       210.55
  319.85        2975.75           1566          55.00       206.19
  319.88        2976.00           1569          59.00       223.63
  319.91        2976.25           1573          53.00       197.47
  319.94        2976.50           1576          44.00       158.24
  319.97        2976.75           1579          57.00       214.91
  320.00        2977.00           1583          52.00       193.11
  320.03        2977.25           1586          58.00       219.27
  320.07        2977.50           1590          54.00       201.83
  320.10        2977.75           1593          49.00       180.04
  320.13        2978.00           1596          58.00       219.27
  320.16        2978.25           1600          53.00       197.47
  320.19        2978.50           1603          52.00       193.11
  320.22        2978.75           1606          47.00       171.32
  320.25        2979.00           1610          52.00       193.11
  320.28        2979.25           1613          50.00       184.40
  320.31        2979.50           1616          45.00       162.60
  320.34        2979.75           1620          44.00       158.24
  320.37        2980.00           1623          49.00       180.04
  320.40        2980.25           1626          53.00       197.47
  320.44        2980.50           1630          60.00       227.99
  320.47        2980.75           1633          46.00       166.96
  320.50        2981.00           1637          47.00       171.32
  320.53        2981.25           1640          51.00       188.75
  320.56        2981.50           1643          56.00       210.55
  320.59        2981.75           1647          46.00       166.96
  320.62        2982.00           1650          64.00       245.42
  320.65        2982.25           1653          50.00       184.40
  320.68        2982.50           1657          55.00       206.19
  320.71        2982.75           1660          52.00       193.11
  320.74        2983.00           1663          52.00       193.11
  320.77        2983.25           1667          46.00       166.96
  320.81        2983.50           1670          44.00       158.24
  320.84        2983.75           1673          52.00       193.11
  320.87        2984.00           1677          51.00       188.75
HS scan finished at 05:21:05
end
************************************************************
  HS Scan of (1) Internal mercury lamp
************************************************************
Integration time is 0.2294 seconds per sample
dh101218Manchester 53.47 2.23 2.804185pr1000
************************************************************
Dead Time -------------------------  3E-08 
Number of Cycles Used -------------  4 
Starting Wavelength (Angstroms) ---  2950 
Final Wavelength (Angstoms) -------  2984 
Wavelength Increment (Angstroms) --  .25 
Filter Wheel #1 Position ---------- (1) Ground quartz diffuser (ND=2.32)
Filter Wheel #2 Position ---------- (1) Neutral Density 0.494



************************************************************
HS scan start time = 16:42:04
Dark Count =  4.6 


Time (GMT)  Wavelength (Ang)  Step Number  Raw Counts  Counts/Second

 1002.44        2950.00           1222          48.00       189.19
 1002.51        2950.25           1226          60.00       241.50
 1002.54        2950.50           1229          63.00       254.58
 1002.57        2950.75           1232          54.00       215.35
 1002.60        2951.00           1236          76.00       311.25
 1002.63        2951.25           1239          57.00       228.42
 1002.66        2951.50           1242          55.00       219.71
 1002.69        2951.75           1246          63.00       254.58
 1002.72        2952.00           1249          54.00       215.35
 1002.75        2952.25           1252          58.00       232.78
 1002.78        2952.50           1256          57.00       228.42
 1002.81        2952.75           1259          57.00       228.42
 1002.84        2953.00           1262          51.00       202.27
 1002.88        2953.25           1266          51.00       202.27
 1002.91        2953.50           1269          52.00       206.63
 1002.94        2953.75           1272          59.00       237.14
 1002.97        2954.00           1276          53.00       210.99
 1003.00        2954.25           1279          60.00       241.50
 1003.03        2954.50           1282          47.00       184.83
 1003.06        2954.75           1286          51.00       202.27
 1003.09        2955.00           1289          59.00       237.14
 1003.12        2955.25           1292          58.00       232.78
 1003.15        2955.50           1296          56.00       224.06
 1003.19        2955.75           1299          57.00       228.42
 1003.22        2956.00           1302          53.00       210.99
 1003.25        2956.25           1306          48.00       189.19
 1003.28        2956.50           1309          56.00       224.06
 1003.31        2956.75           1312          57.00       228.42
 1003.34        2957.00           1316          57.00       228.42
 1003.37        2957.25           1319          62.00       250.22
 1003.40        2957.50           1322          61.00       245.86
 1003.43        2957.75           1326          61.00       245.86
 1003.46        2958.00           1329          56.00       224.06
 1003.49        2958.25           1332          50.00       197.91
 1003.52        2958.50           1336          53.00       210.99
 1003.55        2958.75           1339          58.00       232.78
 1003.58        2959.00           1342          57.00       228.42
 1003.61        2959.25           1346          58.00       232.78
 1003.65        2959.50           1349          61.00       245.86
 1003.68        2959.75           1352          79.00       324.33
 1003.71        2960.00           1356          89.00       367.92
 1003.74        2960.25           1359         110.00       459.47
 1003.77        2960.50           1362         136.00       572.81
 1003.80        2960.75           1366         163.00       690.51
 1003.83        2961.00           1369         221.00       943.36
 1003.86        2961.25           1372         233.00       995.67
 1003.89        2961.50           1376         282.00      1209.29
 1003.92        2961.75           1379         409.00      1762.95
 1003.95        2962.00           1382         820.00      3554.87
 1003.98        2962.25           1386        2040.00      8875.08
 1004.02        2962.50           1389        3074.00     13385.50
 1004.05        2962.75           1392        4044.00     17617.85
 1004.08        2963.00           1396        5552.00     24199.78
 1004.11        2963.25           1399        6682.00     29133.56
 1004.14        2963.50           1402        7932.00     34592.99
 1004.17        2963.75           1406        9435.00     41159.78
 1004.20        2964.00           1409       10569.00     46116.07
 1004.23        2964.25           1412       11761.00     51327.46
 1004.26        2964.50           1416       13353.00     58290.17
 1004.29        2964.75           1419       14417.00     62945.26
 1004.32        2965.00           1422       15568.00     67982.46
 1004.36        2965.25           1426       16990.00     74207.75
 1004.39        2965.50           1429       18399.00     80378.43
 1004.42        2965.75           1432       19462.00     85035.31
 1004.45        2966.00           1436       20973.00     91657.09
 1004.48        2966.25           1439       22067.00     96453.06
 1004.51        2966.50           1442       22862.00     99939.12
 1004.54        2966.75           1446       24319.00    106329.90
 1004.57        2967.00           1449       24762.00    108273.50
 1004.60        2967.25           1452       24803.00    108453.40
 1004.63        2967.50           1456       24661.00    107830.40
 1004.66        2967.75           1459       24815.00    108506.10
 1004.69        2968.00           1462       24505.00    107146.00
 1004.73        2968.25           1466       24308.00    106281.70
 1004.76        2968.50           1469       23375.00    102189.00
 1004.79        2968.75           1472       22312.00     97527.30
 1004.82        2969.00           1476       20721.00     90552.55
 1004.85        2969.25           1479       19739.00     86249.03
 1004.88        2969.50           1482       18535.00     80974.16
 1004.91        2969.75           1486       17008.00     74286.56
 1004.94        2970.00           1489       15833.00     69142.40
 1004.97        2970.25           1492       14922.00     65155.14
 1005.01        2970.50           1496       13305.00     58080.19
 1005.04        2970.75           1499       12210.00     53290.89
 1005.07        2971.00           1502       11162.00     48708.44
 1005.10        2971.25           1506        9509.00     41483.16
 1005.13        2971.50           1509        8322.00     36296.70
 1005.16        2971.75           1513        6766.00     29500.38
 1005.19        2972.00           1516        5581.00     24326.38
 1005.22        2972.25           1519        4572.00     19922.10
 1005.25        2972.50           1523        3085.00     13433.49
 1005.28        2972.75           1526        1902.00      8273.20
 1005.31        2973.00           1529         841.00      3646.43
 1005.34        2973.25           1533         367.00      1579.85
 1005.37        2973.50           1536         273.00      1170.05
 1005.41        2973.75           1539         220.00       939.00
 1005.44        2974.00           1543         186.00       790.78
 1005.47        2974.25           1546         147.00       620.76
 1005.50        2974.50           1549         124.00       520.50
 1005.53        2974.75           1553          89.00       367.92
 1005.56        2975.00           1556          64.00       258.94
 1005.59        2975.25           1559          56.00       224.06
 1005.62        2975.50           1563          52.00       206.63
 1005.65        2975.75           1566          51.00       202.27
 1005.69        2976.00           1569          56.00       224.06
 1005.72        2976.25           1573          51.00       202.27
 1005.75        2976.50           1576          46.00       180.47
 1005.78        2976.75           1579          48.00       189.19
 1005.81        2977.00           1583          52.00       206.63
 1005.84        2977.25           1586          50.00       197.91
 1005.87        2977.50           1590          46.00       180.47
 1005.90        2977.75           1593          59.00       237.14
 1005.93        2978.00           1596          54.00       215.35
 1005.96        2978.25           1600          51.00       202.27
 1005.99        2978.50           1603          48.00       189.19
 1006.03        2978.75           1606          45.00       176.11
 1006.06        2979.00           1610          50.00       197.91
 1006.09        2979.25           1613          48.00       189.19
 1006.12        2979.50           1616          50.00       197.91
 1006.15        2979.75           1620          53.00       210.99
 1006.18        2980.00           1623          42.00       163.03
 1006.21        2980.25           1626          52.00       206.63
 1006.24        2980.50           1630          42.00       163.03
 1006.27        2980.75           1633          55.00       219.71
 1006.30        2981.00           1637          49.00       193.55
 1006.34        2981.25           1640          51.00       202.27
 1006.37        2981.50           1643          57.00       228.42
 1006.40        2981.75           1647          46.00       180.47
 1006.43        2982.00           1650          49.00       193.55
 1006.46        2982.25           1653          55.00       219.71
 1006.49        2982.50           1657          53.00       210.99
 1006.52        2982.75           1660          49.00       193.55
 1006.55        2983.00           1663          45.00       176.11
 1006.58        2983.25           1667          44.00       171.75
 1006.61        2983.50           1670          48.00       189.19
 1006.65        2983.75           1673          52.00       206.63
 1006.68        2984.00           1677          43.00       167.39
HS scan finished at 16:46:54
end
