************************************************************
  HS Scan of (1) Internal mercury lamp
************************************************************
Integration time is 0.2294 seconds per sample
dh131217Manchester 53.47 2.23 2.804185pr1000
************************************************************
Dead Time -------------------------  3E-08 
Number of Cycles Used -------------  4 
Starting Wavelength (Angstroms) ---  2950 
Final Wavelength (Angstoms) -------  2984 
Wavelength Increment (Angstroms) --  .25 
Filter Wheel #1 Position ---------- (1) Ground quartz diffuser (ND=2.32)
Filter Wheel #2 Position ---------- (1) Neutral Density 0.494



************************************************************
HS scan start time = 05:17:52
Dark Count =  7.2 


Time (GMT)  Wavelength (Ang)  Step Number  Raw Counts  Counts/Second

  318.24        2950.00           1222          67.00       260.68
  318.31        2950.25           1226          68.00       265.04
  318.34        2950.50           1229          57.00       217.09
  318.37        2950.75           1232          62.00       238.89
  318.40        2951.00           1236          67.00       260.68
  318.43        2951.25           1239          61.00       234.53
  318.46        2951.50           1242          59.00       225.81
  318.49        2951.75           1246          65.00       251.96
  318.52        2952.00           1249          59.00       225.81
  318.55        2952.25           1252          63.00       243.25
  318.58        2952.50           1256          62.00       238.89
  318.61        2952.75           1259          54.00       204.01
  318.65        2953.00           1262          63.00       243.25
  318.68        2953.25           1266          65.00       251.96
  318.71        2953.50           1269          58.00       221.45
  318.74        2953.75           1272          63.00       243.25
  318.77        2954.00           1276          68.00       265.04
  318.80        2954.25           1279          59.00       225.81
  318.83        2954.50           1282          64.00       247.60
  318.86        2954.75           1286          63.00       243.25
  318.89        2955.00           1289          58.00       221.45
  318.92        2955.25           1292          62.00       238.89
  318.95        2955.50           1296          54.00       204.01
  318.98        2955.75           1299          61.00       234.53
  319.02        2956.00           1302          63.00       243.25
  319.05        2956.25           1306          63.00       243.25
  319.08        2956.50           1309          67.00       260.68
  319.11        2956.75           1312          77.00       304.27
  319.14        2957.00           1316          68.00       265.04
  319.17        2957.25           1319          59.00       225.81
  319.20        2957.50           1322          62.00       238.89
  319.23        2957.75           1326          70.00       273.76
  319.26        2958.00           1329          74.00       291.20
  319.29        2958.25           1332          60.00       230.17
  319.32        2958.50           1336          62.00       238.89
  319.35        2958.75           1339          64.00       247.60
  319.38        2959.00           1342          60.00       230.17
  319.42        2959.25           1346          80.00       317.35
  319.45        2959.50           1349          77.00       304.27
  319.48        2959.75           1352          83.00       330.43
  319.51        2960.00           1356         118.00       483.01
  319.54        2960.25           1359         144.00       596.35
  319.57        2960.50           1362         188.00       788.16
  319.60        2960.75           1366         249.00      1054.09
  319.63        2961.00           1369         267.00      1132.56
  319.66        2961.25           1372         315.00      1341.82
  319.69        2961.50           1376         400.00      1712.38
  319.73        2961.75           1379         630.00      2715.13
  319.76        2962.00           1382        1373.00      5954.86
  319.79        2962.25           1386        3098.00     13478.86
  319.82        2962.50           1389        4591.00     19993.68
  319.85        2962.75           1392        5987.00     26087.54
  319.88        2963.00           1396        7912.00     34494.26
  319.91        2963.25           1399        9439.00     41165.89
  319.94        2963.50           1402       11083.00     48351.69
  319.97        2963.75           1406       12937.00     56459.10
  320.01        2964.00           1409       14679.00     64080.35
  320.04        2964.25           1412       16492.00     72015.93
  320.07        2964.50           1416       18558.00     81063.52
  320.10        2964.75           1419       20180.00     88170.14
  320.13        2965.00           1422       21561.00     94223.26
  320.16        2965.25           1426       23789.00    103993.50
  320.19        2965.50           1429       25473.00    111382.00
  320.22        2965.75           1432       26933.00    117790.40
  320.25        2966.00           1436       28837.00    126151.30
  320.28        2966.25           1439       30317.00    132653.30
  320.31        2966.50           1442       31671.00    138603.90
  320.34        2966.75           1446       33038.00    144613.80
  320.38        2967.00           1449       33312.00    145818.70
  320.41        2967.25           1452       33349.00    145981.40
  320.44        2967.50           1456       33237.00    145488.90
  320.47        2967.75           1459       33099.00    144882.10
  320.50        2968.00           1462       32817.00    143642.10
  320.53        2968.25           1466       32009.00    140089.70
  320.56        2968.50           1469       30662.00    134169.30
  320.59        2968.75           1472       29150.00    127526.20
  320.62        2969.00           1476       27423.00    119941.70
  320.65        2969.25           1479       25680.00    112290.50
  320.69        2969.50           1482       24286.00    106173.80
  320.72        2969.75           1486       22289.00     97415.06
  320.75        2970.00           1489       20694.00     90422.82
  320.78        2970.25           1492       19229.00     84003.06
  320.81        2970.50           1496       17261.00     75383.02
  320.84        2970.75           1499       15615.00     68176.80
  320.87        2971.00           1502       14093.00     61516.21
  320.90        2971.25           1506       12104.00     52815.97
  320.93        2971.50           1509       10476.00     45698.18
  320.97        2971.75           1513        8464.00     36905.70
  321.00        2972.00           1516        7056.00     30755.48
  321.03        2972.25           1519        5594.00     24371.78
  321.06        2972.50           1523        3597.00     15656.00
  321.09        2972.75           1526        2111.00      9173.41
  321.12        2973.00           1529         922.00      3988.27
  321.15        2973.25           1533         401.00      1716.74
  321.18        2973.50           1536         327.00      1394.13
  321.21        2973.75           1539         272.00      1154.36
  321.24        2974.00           1543         223.00       940.74
  321.28        2974.25           1546         170.00       709.69
  321.31        2974.50           1549         137.00       565.83
  321.34        2974.75           1553          90.00       360.95
  321.37        2975.00           1556          67.00       260.68
  321.40        2975.25           1559          64.00       247.60
  321.43        2975.50           1563          64.00       247.60
  321.46        2975.75           1566          71.00       278.12
  321.49        2976.00           1569          61.00       234.53
  321.52        2976.25           1573          60.00       230.17
  321.55        2976.50           1576          60.00       230.17
  321.58        2976.75           1579          61.00       234.53
  321.62        2977.00           1583          62.00       238.89
  321.65        2977.25           1586          57.00       217.09
  321.68        2977.50           1590          56.00       212.73
  321.71        2977.75           1593          54.00       204.01
  321.74        2978.00           1596          61.00       234.53
  321.77        2978.25           1600          53.00       199.65
  321.80        2978.50           1603          59.00       225.81
  321.83        2978.75           1606          60.00       230.17
  321.86        2979.00           1610          68.00       265.04
  321.89        2979.25           1613          59.00       225.81
  321.92        2979.50           1616          53.00       199.65
  321.95        2979.75           1620          63.00       243.25
  321.99        2980.00           1623          57.00       217.09
  322.02        2980.25           1626          67.00       260.68
  322.05        2980.50           1630          59.00       225.81
  322.08        2980.75           1633          52.00       195.29
  322.11        2981.00           1637          55.00       208.37
  322.14        2981.25           1640          60.00       230.17
  322.17        2981.50           1643          56.00       212.73
  322.20        2981.75           1647          58.00       221.45
  322.23        2982.00           1650          57.00       217.09
  322.26        2982.25           1653          55.00       208.37
  322.29        2982.50           1657          60.00       230.17
  322.33        2982.75           1660          51.00       190.93
  322.36        2983.00           1663          52.00       195.29
  322.39        2983.25           1667          54.00       204.01
  322.42        2983.50           1670          54.00       204.01
  322.45        2983.75           1673          50.00       186.57
  322.48        2984.00           1677          68.00       265.04
HS scan finished at 05:22:42
end
************************************************************
  HS Scan of (1) Internal mercury lamp
************************************************************
Integration time is 0.2294 seconds per sample
dh131217Manchester 53.47 2.23 2.804185pr1000
************************************************************
Dead Time -------------------------  3E-08 
Number of Cycles Used -------------  4 
Starting Wavelength (Angstroms) ---  2950 
Final Wavelength (Angstoms) -------  2984 
Wavelength Increment (Angstroms) --  .25 
Filter Wheel #1 Position ---------- (1) Ground quartz diffuser (ND=2.32)
Filter Wheel #2 Position ---------- (1) Neutral Density 0.494



************************************************************
HS scan start time = 16:42:01
Dark Count =  7.6 


Time (GMT)  Wavelength (Ang)  Step Number  Raw Counts  Counts/Second

 1002.38        2950.00           1222          66.00       254.58
 1002.45        2950.25           1226          57.00       215.35
 1002.48        2950.50           1229          64.00       245.86
 1002.51        2950.75           1232          65.00       250.22
 1002.54        2951.00           1236          67.00       258.94
 1002.57        2951.25           1239          67.00       258.94
 1002.60        2951.50           1242          64.00       245.86
 1002.63        2951.75           1246          67.00       258.94
 1002.66        2952.00           1249          70.00       272.02
 1002.70        2952.25           1252          69.00       267.66
 1002.73        2952.50           1256          62.00       237.14
 1002.76        2952.75           1259          72.00       280.73
 1002.79        2953.00           1262          65.00       250.22
 1002.82        2953.25           1266          67.00       258.94
 1002.85        2953.50           1269          68.00       263.30
 1002.88        2953.75           1272          69.00       267.66
 1002.91        2954.00           1276          73.00       285.09
 1002.94        2954.25           1279          58.00       219.71
 1002.97        2954.50           1282          67.00       258.94
 1003.00        2954.75           1286          62.00       237.14
 1003.04        2955.00           1289          64.00       245.86
 1003.07        2955.25           1292          63.00       241.50
 1003.10        2955.50           1296          71.00       276.38
 1003.13        2955.75           1299          68.00       263.30
 1003.16        2956.00           1302          63.00       241.50
 1003.19        2956.25           1306          79.00       311.25
 1003.22        2956.50           1309          60.00       228.42
 1003.25        2956.75           1312          63.00       241.50
 1003.28        2957.00           1316          60.00       228.42
 1003.31        2957.25           1319          72.00       280.73
 1003.34        2957.50           1322          69.00       267.66
 1003.37        2957.75           1326          59.00       224.06
 1003.41        2958.00           1329          54.00       202.27
 1003.44        2958.25           1332          63.00       241.50
 1003.47        2958.50           1336          67.00       258.94
 1003.50        2958.75           1339          63.00       241.50
 1003.53        2959.00           1342          64.00       245.86
 1003.56        2959.25           1346          68.00       263.30
 1003.59        2959.50           1349          71.00       276.38
 1003.62        2959.75           1352          86.00       341.76
 1003.65        2960.00           1356         142.00       585.89
 1003.68        2960.25           1359         164.00       681.79
 1003.71        2960.50           1362         188.00       786.42
 1003.75        2960.75           1366         247.00      1043.62
 1003.78        2961.00           1369         294.00      1248.52
 1003.81        2961.25           1372         329.00      1401.11
 1003.84        2961.50           1376         399.00      1706.28
 1003.87        2961.75           1379         558.00      2399.48
 1003.90        2962.00           1382        1143.00      4950.17
 1003.93        2962.25           1386        2836.00     12334.12
 1003.96        2962.50           1389        4292.00     18687.02
 1003.99        2962.75           1392        5755.00     25072.91
 1004.02        2963.00           1396        7684.00     33496.59
 1004.05        2963.25           1399        9286.00     40495.55
 1004.09        2963.50           1402       10877.00     47449.37
 1004.12        2963.75           1406       12933.00     56439.87
 1004.15        2964.00           1409       14343.00     62608.33
 1004.18        2964.25           1412       16062.00     70131.71
 1004.21        2964.50           1416       18187.00     79436.69
 1004.24        2964.75           1419       19677.00     85964.22
 1004.27        2965.00           1422       21272.00     92954.59
 1004.30        2965.25           1426       23414.00    102346.90
 1004.33        2965.50           1429       24886.00    108804.50
 1004.37        2965.75           1432       26625.00    116436.50
 1004.40        2966.00           1436       28591.00    125069.10
 1004.43        2966.25           1439       29672.00    129817.60
 1004.46        2966.50           1442       31209.00    136571.50
 1004.49        2966.75           1446       32665.00    142972.00
 1004.52        2967.00           1449       32984.00    144374.60
 1004.55        2967.25           1452       33182.00    145245.30
 1004.58        2967.50           1456       33362.00    146036.80
 1004.61        2967.75           1459       33060.00    144708.80
 1004.64        2968.00           1462       33037.00    144607.70
 1004.68        2968.25           1466       31957.00    139859.40
 1004.71        2968.50           1469       30813.00    134831.10
 1004.74        2968.75           1472       29045.00    127063.20
 1004.77        2969.00           1476       27275.00    119290.10
 1004.80        2969.25           1479       25660.00    112200.90
 1004.83        2969.50           1482       24140.00    105531.50
 1004.86        2969.75           1486       22208.00     97058.14
 1004.89        2970.00           1489       20754.00     90684.03
 1004.92        2970.25           1492       19320.00     84400.01
 1004.96        2970.50           1496       17415.00     76055.65
 1004.99        2970.75           1499       15778.00     68888.52
 1005.02        2971.00           1502       14214.00     62043.89
 1005.05        2971.25           1506       12008.00     52394.42
 1005.08        2971.50           1509       10450.00     45582.78
 1005.11        2971.75           1513        8472.00     36938.91
 1005.14        2972.00           1516        6942.00     30255.87
 1005.17        2972.25           1519        5577.00     24295.82
 1005.20        2972.50           1523        3637.00     15828.79
 1005.23        2972.75           1526        2298.00      9987.30
 1005.27        2973.00           1529        1029.00      4453.08
 1005.30        2973.25           1533         403.00      1723.72
 1005.33        2973.50           1536         289.00      1226.72
 1005.36        2973.75           1539         245.00      1034.91
 1005.39        2974.00           1543         203.00       851.81
 1005.42        2974.25           1546         144.00       594.61
 1005.45        2974.50           1549         121.00       494.34
 1005.48        2974.75           1553          83.00       328.69
 1005.51        2975.00           1556          66.00       254.58
 1005.54        2975.25           1559          62.00       237.14
 1005.57        2975.50           1563          67.00       258.94
 1005.60        2975.75           1566          67.00       258.94
 1005.63        2976.00           1569          58.00       219.71
 1005.67        2976.25           1573          67.00       258.94
 1005.70        2976.50           1576          61.00       232.78
 1005.73        2976.75           1579          62.00       237.14
 1005.76        2977.00           1583          54.00       202.27
 1005.79        2977.25           1586          62.00       237.14
 1005.82        2977.50           1590          63.00       241.50
 1005.85        2977.75           1593          59.00       224.06
 1005.88        2978.00           1596          60.00       228.42
 1005.91        2978.25           1600          53.00       197.91
 1005.94        2978.50           1603          59.00       224.06
 1005.98        2978.75           1606          62.00       237.14
 1006.01        2979.00           1610          56.00       210.99
 1006.04        2979.25           1613          56.00       210.99
 1006.07        2979.50           1616          60.00       228.42
 1006.10        2979.75           1620          67.00       258.94
 1006.13        2980.00           1623          67.00       258.94
 1006.16        2980.25           1626          59.00       224.06
 1006.19        2980.50           1630          59.00       224.06
 1006.22        2980.75           1633          51.00       189.19
 1006.25        2981.00           1637          58.00       219.71
 1006.28        2981.25           1640          58.00       219.71
 1006.32        2981.50           1643          55.00       206.63
 1006.35        2981.75           1647          63.00       241.50
 1006.38        2982.00           1650          63.00       241.50
 1006.41        2982.25           1653          54.00       202.27
 1006.44        2982.50           1657          57.00       215.35
 1006.47        2982.75           1660          60.00       228.42
 1006.50        2983.00           1663          58.00       219.71
 1006.53        2983.25           1667          60.00       228.42
 1006.56        2983.50           1670          54.00       202.27
 1006.59        2983.75           1673          54.00       202.27
 1006.62        2984.00           1677          64.00       245.86
HS scan finished at 16:46:50
end
