************************************************************
  HS Scan of (1) Internal mercury lamp
************************************************************
Integration time is 0.2294 seconds per sample
dh151217Manchester 53.47 2.23 2.750537pr1000
************************************************************
Dead Time -------------------------  3E-08 
Number of Cycles Used -------------  4 
Starting Wavelength (Angstroms) ---  2950 
Final Wavelength (Angstoms) -------  2984 
Wavelength Increment (Angstroms) --  .25 
Filter Wheel #1 Position ---------- (1) Ground quartz diffuser (ND=2.32)
Filter Wheel #2 Position ---------- (1) Neutral Density 0.494



************************************************************
HS scan start time = 05:19:26
Dark Count =  7 


Time (GMT)  Wavelength (Ang)  Step Number  Raw Counts  Counts/Second

  319.81        2950.00           1222          65.00       252.84
  319.88        2950.25           1226          63.00       244.12
  319.91        2950.50           1229          69.00       270.27
  319.94        2950.75           1232          72.00       283.35
  319.97        2951.00           1236          70.00       274.63
  320.00        2951.25           1239          73.00       287.71
  320.03        2951.50           1242          61.00       235.40
  320.06        2951.75           1246          56.00       213.60
  320.09        2952.00           1249          65.00       252.84
  320.12        2952.25           1252          80.00       318.22
  320.15        2952.50           1256          65.00       252.84
  320.18        2952.75           1259          62.00       239.76
  320.22        2953.00           1262          68.00       265.91
  320.25        2953.25           1266          65.00       252.84
  320.28        2953.50           1269          62.00       239.76
  320.31        2953.75           1272          58.00       222.32
  320.34        2954.00           1276          69.00       270.27
  320.37        2954.25           1279          56.00       213.60
  320.40        2954.50           1282          61.00       235.40
  320.43        2954.75           1286          67.00       261.55
  320.46        2955.00           1289          66.00       257.19
  320.49        2955.25           1292          71.00       278.99
  320.52        2955.50           1296          74.00       292.07
  320.55        2955.75           1299          64.00       248.48
  320.58        2956.00           1302          65.00       252.84
  320.61        2956.25           1306          64.00       248.48
  320.64        2956.50           1309          64.00       248.48
  320.67        2956.75           1312          57.00       217.96
  320.70        2957.00           1316          62.00       239.76
  320.74        2957.25           1319          53.00       200.52
  320.77        2957.50           1322          58.00       222.32
  320.80        2957.75           1326          62.00       239.76
  320.83        2958.00           1329          72.00       283.35
  320.86        2958.25           1332          65.00       252.84
  320.89        2958.50           1336          62.00       239.76
  320.92        2958.75           1339          67.00       261.55
  320.95        2959.00           1342          59.00       226.68
  320.98        2959.25           1346          64.00       248.48
  321.01        2959.50           1349          72.00       283.35
  321.04        2959.75           1352          91.00       366.18
  321.07        2960.00           1356         115.00       470.80
  321.10        2960.25           1359         142.00       588.50
  321.14        2960.50           1362         172.00       719.28
  321.17        2960.75           1366         237.00      1002.65
  321.20        2961.00           1369         287.00      1220.62
  321.23        2961.25           1372         324.00      1381.92
  321.26        2961.50           1376         383.00      1639.14
  321.29        2961.75           1379         508.00      2184.10
  321.32        2962.00           1382        1008.00      4364.13
  321.35        2962.25           1386        2583.00     11233.08
  321.38        2962.50           1389        4022.00     17511.38
  321.41        2962.75           1392        5450.00     23744.02
  321.44        2963.00           1396        7506.00     32721.73
  321.47        2963.25           1399        8907.00     38842.10
  321.51        2963.50           1402       10454.00     45602.89
  321.54        2963.75           1406       12569.00     54850.43
  321.57        2964.00           1409       14256.00     62230.28
  321.60        2964.25           1412       15935.00     69578.38
  321.63        2964.50           1416       17854.00     77980.82
  321.66        2964.75           1419       19534.00     85340.28
  321.69        2965.00           1422       21186.00     92580.22
  321.72        2965.25           1426       23228.00    101533.70
  321.75        2965.50           1429       24808.00    108464.90
  321.78        2965.75           1432       26406.00    115477.80
  321.81        2966.00           1436       28476.00    124566.70
  321.85        2966.25           1439       29837.00    130545.10
  321.88        2966.50           1442       31431.00    137549.90
  321.91        2966.75           1446       32770.00    143436.30
  321.94        2967.00           1449       33154.00    145124.80
  321.97        2967.25           1452       33260.00    145590.90
  322.00        2967.50           1456       33414.00    146268.20
  322.03        2967.75           1459       33243.00    145516.20
  322.06        2968.00           1462       33085.00    144821.40
  322.09        2968.25           1466       32158.00    140745.60
  322.12        2968.50           1469       31061.00    135923.70
  322.16        2968.75           1472       29913.00    130879.10
  322.19        2969.00           1476       27846.00    121800.00
  322.22        2969.25           1479       26206.00    114600.00
  322.25        2969.50           1482       24459.00    106933.60
  322.28        2969.75           1486       22368.00     97762.33
  322.31        2970.00           1489       21036.00     91922.72
  322.34        2970.25           1492       19346.00     84516.55
  322.37        2970.50           1496       17463.00     76268.48
  322.40        2970.75           1499       15951.00     69648.43
  322.44        2971.00           1502       14483.00     63223.56
  322.47        2971.25           1506       12400.00     54111.32
  322.50        2971.50           1509       10797.00     47102.26
  322.53        2971.75           1513        8828.00     38496.92
  322.56        2972.00           1516        7318.00     31900.61
  322.59        2972.25           1519        5921.00     25800.26
  322.62        2972.50           1523        3868.00     16839.37
  322.65        2972.75           1526        2292.00      9963.75
  322.68        2973.00           1529        1069.00      4630.11
  322.71        2973.25           1533         440.00      1887.64
  322.75        2973.50           1536         297.00      1264.22
  322.78        2973.75           1539         259.00      1098.55
  322.81        2974.00           1543         217.00       915.46
  322.84        2974.25           1546         144.00       597.22
  322.87        2974.50           1549         116.00       475.16
  322.90        2974.75           1553          81.00       322.58
  322.93        2975.00           1556          72.00       283.35
  322.96        2975.25           1559          70.00       274.63
  322.99        2975.50           1563          61.00       235.40
  323.02        2975.75           1566          69.00       270.27
  323.05        2976.00           1569          62.00       239.76
  323.08        2976.25           1573          54.00       204.88
  323.12        2976.50           1576          61.00       235.40
  323.15        2976.75           1579          62.00       239.76
  323.18        2977.00           1583          63.00       244.12
  323.21        2977.25           1586          62.00       239.76
  323.24        2977.50           1590          58.00       222.32
  323.27        2977.75           1593          56.00       213.60
  323.30        2978.00           1596          61.00       235.40
  323.33        2978.25           1600          57.00       217.96
  323.36        2978.50           1603          61.00       235.40
  323.39        2978.75           1606          59.00       226.68
  323.43        2979.00           1610          60.00       231.04
  323.46        2979.25           1613          56.00       213.60
  323.49        2979.50           1616          62.00       239.76
  323.52        2979.75           1620          60.00       231.04
  323.55        2980.00           1623          62.00       239.76
  323.58        2980.25           1626          66.00       257.19
  323.61        2980.50           1630          60.00       231.04
  323.64        2980.75           1633          56.00       213.60
  323.67        2981.00           1637          55.00       209.24
  323.70        2981.25           1640          58.00       222.32
  323.73        2981.50           1643          60.00       231.04
  323.76        2981.75           1647          64.00       248.48
  323.79        2982.00           1650          55.00       209.24
  323.83        2982.25           1653          60.00       231.04
  323.86        2982.50           1657          57.00       217.96
  323.89        2982.75           1660          59.00       226.68
  323.92        2983.00           1663          58.00       222.32
  323.95        2983.25           1667          66.00       257.19
  323.98        2983.50           1670          59.00       226.68
  324.01        2983.75           1673          48.00       178.73
  324.04        2984.00           1677          52.00       196.17
HS scan finished at 05:24:15
end
************************************************************
  HS Scan of (1) Internal mercury lamp
************************************************************
Integration time is 0.2294 seconds per sample
dh151217Manchester 53.47 2.23 2.804185pr1000
************************************************************
Dead Time -------------------------  3E-08 
Number of Cycles Used -------------  4 
Starting Wavelength (Angstroms) ---  2950 
Final Wavelength (Angstoms) -------  2984 
Wavelength Increment (Angstroms) --  .25 
Filter Wheel #1 Position ---------- (1) Ground quartz diffuser (ND=2.32)
Filter Wheel #2 Position ---------- (1) Neutral Density 0.494



************************************************************
HS scan start time = 16:42:02
Dark Count =  6.5 


Time (GMT)  Wavelength (Ang)  Step Number  Raw Counts  Counts/Second

 1002.40        2950.00           1222          58.00       224.50
 1002.46        2950.25           1226          67.00       263.73
 1002.50        2950.50           1229          62.00       241.94
 1002.53        2950.75           1232          66.00       259.37
 1002.56        2951.00           1236          57.00       220.14
 1002.59        2951.25           1239          57.00       220.14
 1002.62        2951.50           1242          66.00       259.37
 1002.65        2951.75           1246          67.00       263.73
 1002.68        2952.00           1249          67.00       263.73
 1002.71        2952.25           1252          63.00       246.30
 1002.74        2952.50           1256          61.00       237.58
 1002.77        2952.75           1259          56.00       215.78
 1002.80        2953.00           1262          71.00       281.17
 1002.83        2953.25           1266          70.00       276.81
 1002.87        2953.50           1269          68.00       268.09
 1002.90        2953.75           1272          69.00       272.45
 1002.93        2954.00           1276          69.00       272.45
 1002.96        2954.25           1279          71.00       281.17
 1002.99        2954.50           1282          56.00       215.78
 1003.02        2954.75           1286          66.00       259.37
 1003.05        2955.00           1289          63.00       246.30
 1003.08        2955.25           1292          71.00       281.17
 1003.11        2955.50           1296          70.00       276.81
 1003.14        2955.75           1299          67.00       263.73
 1003.17        2956.00           1302          63.00       246.30
 1003.20        2956.25           1306          65.00       255.02
 1003.24        2956.50           1309          54.00       207.06
 1003.27        2956.75           1312          67.00       263.73
 1003.30        2957.00           1316          61.00       237.58
 1003.33        2957.25           1319          68.00       268.09
 1003.36        2957.50           1322          63.00       246.30
 1003.39        2957.75           1326          56.00       215.78
 1003.42        2958.00           1329          69.00       272.45
 1003.45        2958.25           1332          60.00       233.22
 1003.48        2958.50           1336          54.00       207.06
 1003.51        2958.75           1339          66.00       259.37
 1003.54        2959.00           1342          59.00       228.86
 1003.57        2959.25           1346          64.00       250.66
 1003.61        2959.50           1349          77.00       307.33
 1003.64        2959.75           1352          95.00       385.79
 1003.67        2960.00           1356         118.00       486.06
 1003.70        2960.25           1359         143.00       595.04
 1003.73        2960.50           1362         171.00       717.10
 1003.76        2960.75           1366         234.00       991.75
 1003.79        2961.00           1369         252.00      1070.22
 1003.82        2961.25           1372         313.00      1336.15
 1003.85        2961.50           1376         427.00      1833.14
 1003.88        2961.75           1379         779.00      3367.82
 1003.91        2962.00           1382        1734.00      7532.22
 1003.94        2962.25           1386        3536.00     15392.90
 1003.98        2962.50           1389        4927.00     21463.25
 1004.01        2962.75           1392        6339.00     27627.51
 1004.04        2963.00           1396        8397.00     36616.05
 1004.07        2963.25           1399        9872.00     43061.26
 1004.10        2963.50           1402       11317.00     49377.81
 1004.13        2963.75           1406       13520.00     59012.40
 1004.16        2964.00           1409       15172.00     66240.93
 1004.19        2964.25           1412       16699.00     72925.28
 1004.22        2964.50           1416       18863.00     82402.68
 1004.25        2964.75           1419       20235.00     88414.24
 1004.29        2965.00           1422       21813.00     95331.10
 1004.32        2965.25           1426       23806.00    104071.20
 1004.35        2965.50           1429       25418.00    111143.70
 1004.38        2965.75           1432       27175.00    118855.90
 1004.41        2966.00           1436       29185.00    127683.00
 1004.44        2966.25           1439       30429.00    133148.50
 1004.47        2966.50           1442       31555.00    138097.10
 1004.50        2966.75           1446       32662.00    142963.60
 1004.53        2967.00           1449       32814.00    143632.00
 1004.56        2967.25           1452       32812.00    143623.20
 1004.60        2967.50           1456       32835.00    143724.30
 1004.63        2967.75           1459       32786.00    143508.90
 1004.66        2968.00           1462       32498.00    142242.60
 1004.69        2968.25           1466       31168.00    136396.10
 1004.72        2968.50           1469       29779.00    130292.50
 1004.75        2968.75           1472       28481.00    124590.80
 1004.78        2969.00           1476       26625.00    116441.40
 1004.81        2969.25           1479       25175.00    110077.40
 1004.84        2969.50           1482       23594.00    103141.20
 1004.88        2969.75           1486       21690.00     94791.85
 1004.91        2970.00           1489       20177.00     88160.06
 1004.94        2970.25           1492       18654.00     81487.11
 1004.97        2970.50           1496       16519.00     72137.21
 1005.00        2970.75           1499       14960.00     65313.12
 1005.03        2971.00           1502       13377.00     58386.84
 1005.06        2971.25           1506       11378.00     49644.51
 1005.09        2971.50           1509        9823.00     42847.11
 1005.12        2971.75           1513        7928.00     34567.22
 1005.15        2972.00           1516        6440.00     28068.53
 1005.18        2972.25           1519        5008.00     21816.80
 1005.22        2972.50           1523        3154.00     13726.23
 1005.25        2972.75           1526        1723.00      7484.24
 1005.28        2973.00           1529         791.00      3420.14
 1005.31        2973.25           1533         401.00      1719.79
 1005.34        2973.50           1536         324.00      1384.10
 1005.37        2973.75           1539         276.00      1174.85
 1005.40        2974.00           1543         230.00       974.31
 1005.43        2974.25           1546         176.00       738.90
 1005.46        2974.50           1549         143.00       595.04
 1005.49        2974.75           1553          97.00       394.51
 1005.53        2975.00           1556          76.00       302.97
 1005.56        2975.25           1559          71.00       281.17
 1005.59        2975.50           1563          70.00       276.81
 1005.62        2975.75           1566          61.00       237.58
 1005.65        2976.00           1569          61.00       237.58
 1005.68        2976.25           1573          72.00       285.53
 1005.71        2976.50           1576          58.00       224.50
 1005.74        2976.75           1579          57.00       220.14
 1005.77        2977.00           1583          65.00       255.02
 1005.80        2977.25           1586          56.00       215.78
 1005.83        2977.50           1590          60.00       233.22
 1005.86        2977.75           1593          57.00       220.14
 1005.89        2978.00           1596          55.00       211.42
 1005.93        2978.25           1600          64.00       250.66
 1005.96        2978.50           1603          63.00       246.30
 1005.99        2978.75           1606          60.00       233.22
 1006.02        2979.00           1610          57.00       220.14
 1006.05        2979.25           1613          57.00       220.14
 1006.08        2979.50           1616          63.00       246.30
 1006.11        2979.75           1620          59.00       228.86
 1006.14        2980.00           1623          61.00       237.58
 1006.17        2980.25           1626          58.00       224.50
 1006.20        2980.50           1630          67.00       263.73
 1006.24        2980.75           1633          57.00       220.14
 1006.27        2981.00           1637          63.00       246.30
 1006.30        2981.25           1640          56.00       215.78
 1006.33        2981.50           1643          61.00       237.58
 1006.36        2981.75           1647          62.00       241.94
 1006.39        2982.00           1650          59.00       228.86
 1006.42        2982.25           1653          64.00       250.66
 1006.45        2982.50           1657          58.00       224.50
 1006.48        2982.75           1660          57.00       220.14
 1006.51        2983.00           1663          53.00       202.70
 1006.55        2983.25           1667          58.00       224.50
 1006.58        2983.50           1670          53.00       202.70
 1006.61        2983.75           1673          53.00       202.70
 1006.64        2984.00           1677          61.00       237.58
HS scan finished at 16:46:51
end
