************************************************************
  HS Scan of (1) Internal mercury lamp
************************************************************
Integration time is 0.2294 seconds per sample
dh181218Manchester 53.47 2.23 2.804185pr1000
************************************************************
Dead Time -------------------------  3E-08 
Number of Cycles Used -------------  4 
Starting Wavelength (Angstroms) ---  2950 
Final Wavelength (Angstoms) -------  2984 
Wavelength Increment (Angstroms) --  .25 
Filter Wheel #1 Position ---------- (1) Ground quartz diffuser (ND=2.32)
Filter Wheel #2 Position ---------- (1) Neutral Density 0.494



************************************************************
HS scan start time = 05:21:16
Dark Count =  8 


Time (GMT)  Wavelength (Ang)  Step Number  Raw Counts  Counts/Second

  321.64        2950.00           1222          63.00       239.76
  321.71        2950.25           1226          58.00       217.96
  321.74        2950.50           1229          55.00       204.88
  321.77        2950.75           1232          57.00       213.60
  321.80        2951.00           1236          54.00       200.52
  321.83        2951.25           1239          52.00       191.81
  321.86        2951.50           1242          48.00       174.37
  321.89        2951.75           1246          51.00       187.45
  321.92        2952.00           1249          56.00       209.24
  321.95        2952.25           1252          51.00       187.45
  321.98        2952.50           1256          49.00       178.73
  322.01        2952.75           1259          57.00       213.60
  322.04        2953.00           1262          54.00       200.52
  322.07        2953.25           1266          55.00       204.88
  322.11        2953.50           1269          55.00       204.88
  322.14        2953.75           1272          58.00       217.96
  322.17        2954.00           1276          61.00       231.04
  322.20        2954.25           1279          58.00       217.96
  322.23        2954.50           1282          52.00       191.81
  322.26        2954.75           1286          62.00       235.40
  322.29        2955.00           1289          50.00       183.09
  322.32        2955.25           1292          57.00       213.60
  322.35        2955.50           1296          50.00       183.09
  322.38        2955.75           1299          59.00       222.32
  322.41        2956.00           1302          59.00       222.32
  322.44        2956.25           1306          57.00       213.60
  322.48        2956.50           1309          54.00       200.52
  322.51        2956.75           1312          59.00       222.32
  322.54        2957.00           1316          50.00       183.09
  322.57        2957.25           1319          55.00       204.88
  322.60        2957.50           1322          53.00       196.17
  322.63        2957.75           1326          57.00       213.60
  322.66        2958.00           1329          56.00       209.24
  322.69        2958.25           1332          53.00       196.17
  322.72        2958.50           1336          64.00       244.12
  322.75        2958.75           1339          49.00       178.73
  322.78        2959.00           1342          55.00       204.88
  322.81        2959.25           1346          49.00       178.73
  322.84        2959.50           1349          57.00       213.60
  322.87        2959.75           1352          68.00       261.55
  322.91        2960.00           1356          88.00       348.74
  322.94        2960.25           1359         110.00       444.64
  322.97        2960.50           1362         137.00       562.35
  323.00        2960.75           1366         184.00       767.24
  323.03        2961.00           1369         206.00       863.14
  323.06        2961.25           1372         247.00      1041.88
  323.09        2961.50           1376         286.00      1211.90
  323.12        2961.75           1379         374.00      1595.54
  323.15        2962.00           1382         682.00      2938.36
  323.18        2962.25           1386        1849.00      8027.22
  323.22        2962.50           1389        3049.00     13261.60
  323.25        2962.75           1392        4260.00     18545.63
  323.28        2963.00           1396        5778.00     25171.58
  323.31        2963.25           1399        6944.00     30262.86
  323.34        2963.50           1402        8148.00     35521.70
  323.37        2963.75           1406        9651.00     42088.86
  323.40        2964.00           1409       10787.00     47054.17
  323.43        2964.25           1412       12242.00     53415.96
  323.46        2964.50           1416       13866.00     60519.55
  323.50        2964.75           1419       14779.00     64514.46
  323.53        2965.00           1422       16075.00     70186.87
  323.56        2965.25           1426       17768.00     77599.80
  323.59        2965.50           1429       19023.00     83097.04
  323.62        2965.75           1432       20117.00     87890.55
  323.65        2966.00           1436       21604.00     94408.25
  323.68        2966.25           1439       22601.00     98779.66
  323.71        2966.50           1442       23765.00    103884.70
  323.74        2966.75           1446       24989.00    109254.60
  323.77        2967.00           1449       25568.00    111795.40
  323.80        2967.25           1452       25481.00    111413.60
  323.84        2967.50           1456       25606.00    111962.20
  323.87        2967.75           1459       25737.00    112537.10
  323.90        2968.00           1462       25589.00    111887.60
  323.93        2968.25           1466       24886.00    108802.70
  323.96        2968.50           1469       24073.00    105235.80
  323.99        2968.75           1472       22822.00     99748.79
  324.02        2969.00           1476       21529.00     94079.44
  324.05        2969.25           1479       20374.00     89016.84
  324.08        2969.50           1482       19132.00     83574.59
  324.12        2969.75           1486       17538.00     76592.53
  324.15        2970.00           1489       16354.00     71408.27
  324.18        2970.25           1492       15208.00     66391.93
  324.21        2970.50           1496       13703.00     59806.43
  324.24        2970.75           1499       12418.00     54185.66
  324.27        2971.00           1502       11160.00     48684.83
  324.30        2971.25           1506        9595.00     41844.13
  324.33        2971.50           1509        8465.00     36906.58
  324.36        2971.75           1513        6970.00     30376.41
  324.40        2972.00           1516        5767.00     25123.55
  324.43        2972.25           1519        4583.00     19955.27
  324.46        2972.50           1523        3115.00     13549.54
  324.49        2972.75           1526        1988.00      8633.45
  324.52        2973.00           1529         954.00      4124.31
  324.55        2973.25           1533         390.00      1665.30
  324.58        2973.50           1536         271.00      1146.51
  324.61        2973.75           1539         240.00      1011.36
  324.64        2974.00           1543         202.00       845.71
  324.68        2974.25           1546         157.00       649.53
  324.71        2974.50           1549         131.00       536.19
  324.74        2974.75           1553          81.00       318.22
  324.77        2975.00           1556          69.00       265.91
  324.80        2975.25           1559          53.00       196.17
  324.83        2975.50           1563          48.00       174.37
  324.86        2975.75           1566          48.00       174.37
  324.89        2976.00           1569          52.00       191.81
  324.92        2976.25           1573          56.00       209.24
  324.95        2976.50           1576          55.00       204.88
  324.98        2976.75           1579          56.00       209.24
  325.02        2977.00           1583          54.00       200.52
  325.05        2977.25           1586          51.00       187.45
  325.08        2977.50           1590          52.00       191.81
  325.11        2977.75           1593          56.00       209.24
  325.14        2978.00           1596          52.00       191.81
  325.17        2978.25           1600          50.00       183.09
  325.20        2978.50           1603          50.00       183.09
  325.23        2978.75           1606          51.00       187.45
  325.26        2979.00           1610          49.00       178.73
  325.29        2979.25           1613          52.00       191.81
  325.33        2979.50           1616          56.00       209.24
  325.36        2979.75           1620          52.00       191.81
  325.39        2980.00           1623          51.00       187.45
  325.42        2980.25           1626          52.00       191.81
  325.45        2980.50           1630          52.00       191.81
  325.48        2980.75           1633          55.00       204.88
  325.51        2981.00           1637          51.00       187.45
  325.54        2981.25           1640          46.00       165.65
  325.57        2981.50           1643          52.00       191.81
  325.60        2981.75           1647          51.00       187.45
  325.63        2982.00           1650          56.00       209.24
  325.66        2982.25           1653          50.00       183.09
  325.69        2982.50           1657          54.00       200.52
  325.73        2982.75           1660          42.00       148.21
  325.76        2983.00           1663          46.00       165.65
  325.79        2983.25           1667          45.00       161.29
  325.82        2983.50           1670          53.00       196.17
  325.85        2983.75           1673          56.00       209.24
  325.88        2984.00           1677          45.00       161.29
HS scan finished at 05:26:06
end
************************************************************
  HS Scan of (1) Internal mercury lamp
************************************************************
Integration time is 0.2294 seconds per sample
dh181218Manchester 53.47 2.23 2.804185pr1000
************************************************************
Dead Time -------------------------  3E-08 
Number of Cycles Used -------------  4 
Starting Wavelength (Angstroms) ---  2950 
Final Wavelength (Angstoms) -------  2984 
Wavelength Increment (Angstroms) --  .25 
Filter Wheel #1 Position ---------- (1) Ground quartz diffuser (ND=2.32)
Filter Wheel #2 Position ---------- (1) Neutral Density 0.494



************************************************************
HS scan start time = 16:42:06
Dark Count =  5.3 


Time (GMT)  Wavelength (Ang)  Step Number  Raw Counts  Counts/Second

 1002.46        2950.00           1222          56.00       221.01
 1002.53        2950.25           1226          51.00       199.22
 1002.56        2950.50           1229          57.00       225.37
 1002.59        2950.75           1232          56.00       221.01
 1002.62        2951.00           1236          58.00       229.73
 1002.66        2951.25           1239          48.00       186.14
 1002.69        2951.50           1242          58.00       229.73
 1002.72        2951.75           1246          53.00       207.94
 1002.75        2952.00           1249          52.00       203.58
 1002.78        2952.25           1252          58.00       229.73
 1002.81        2952.50           1256          60.00       238.45
 1002.84        2952.75           1259          52.00       203.58
 1002.87        2953.00           1262          55.00       216.65
 1002.90        2953.25           1266          62.00       247.17
 1002.93        2953.50           1269          51.00       199.22
 1002.96        2953.75           1272          52.00       203.58
 1002.99        2954.00           1276          53.00       207.94
 1003.03        2954.25           1279          62.00       247.17
 1003.06        2954.50           1282          57.00       225.37
 1003.09        2954.75           1286          55.00       216.65
 1003.12        2955.00           1289          47.00       181.78
 1003.15        2955.25           1292          54.00       212.29
 1003.18        2955.50           1296          61.00       242.81
 1003.21        2955.75           1299          53.00       207.94
 1003.24        2956.00           1302          48.00       186.14
 1003.27        2956.25           1306          52.00       203.58
 1003.30        2956.50           1309          49.00       190.50
 1003.33        2956.75           1312          53.00       207.94
 1003.36        2957.00           1316          54.00       212.29
 1003.39        2957.25           1319          51.00       199.22
 1003.42        2957.50           1322          55.00       216.65
 1003.46        2957.75           1326          57.00       225.37
 1003.49        2958.00           1329          54.00       212.29
 1003.52        2958.25           1332          57.00       225.37
 1003.55        2958.50           1336          48.00       186.14
 1003.58        2958.75           1339          62.00       247.17
 1003.61        2959.00           1342          56.00       221.01
 1003.64        2959.25           1346          58.00       229.73
 1003.67        2959.50           1349          50.00       194.86
 1003.70        2959.75           1352          73.00       295.12
 1003.73        2960.00           1356          95.00       391.02
 1003.76        2960.25           1359         115.00       478.21
 1003.79        2960.50           1362         138.00       578.48
 1003.82        2960.75           1366         169.00       713.62
 1003.86        2961.00           1369         204.00       866.20
 1003.89        2961.25           1372         221.00       940.31
 1003.92        2961.50           1376         290.00      1241.11
 1003.95        2961.75           1379         443.00      1908.13
 1003.98        2962.00           1382         917.00      3974.76
 1004.01        2962.25           1386        2228.00      9692.01
 1004.04        2962.50           1389        3331.00     14503.69
 1004.07        2962.75           1392        4466.00     19456.43
 1004.10        2963.00           1396        5882.00     25637.41
 1004.14        2963.25           1399        7022.00     30615.29
 1004.17        2963.50           1402        8144.00     35516.03
 1004.20        2963.75           1406        9918.00     43267.55
 1004.23        2964.00           1409       11169.00     48735.99
 1004.26        2964.25           1412       12505.00     54577.96
 1004.29        2964.50           1416       14190.00     61948.94
 1004.32        2964.75           1419       15317.00     66880.79
 1004.35        2965.00           1422       16415.00     71687.13
 1004.38        2965.25           1426       18090.00     79021.90
 1004.41        2965.50           1429       19205.00     83906.22
 1004.45        2965.75           1432       20532.00     89721.11
 1004.48        2966.00           1436       21930.00     95849.32
 1004.51        2966.25           1439       23029.00    100668.40
 1004.54        2966.50           1442       24062.00    105199.40
 1004.57        2966.75           1446       25262.00    110464.40
 1004.60        2967.00           1449       25552.00    111737.10
 1004.63        2967.25           1452       25348.00    110841.80
 1004.66        2967.50           1456       25355.00    110872.50
 1004.69        2967.75           1459       25526.00    111623.00
 1004.72        2968.00           1462       25516.00    111579.10
 1004.75        2968.25           1466       24577.00    107458.80
 1004.79        2968.50           1469       23633.00    103317.60
 1004.82        2968.75           1472       22551.00     98572.22
 1004.85        2969.00           1476       21014.00     91833.74
 1004.88        2969.25           1479       19832.00     86653.48
 1004.91        2969.50           1482       18835.00     82285.27
 1004.94        2969.75           1486       17161.00     74953.45
 1004.97        2970.00           1489       16027.00     69988.56
 1005.00        2970.25           1492       14836.00     64775.71
 1005.03        2970.50           1496       13464.00     58772.68
 1005.07        2970.75           1499       12176.00     53139.14
 1005.10        2971.00           1502       10959.00     47817.89
 1005.13        2971.25           1506        9242.00     40313.33
 1005.16        2971.50           1509        8135.00     35476.71
 1005.19        2971.75           1513        6550.00     28554.10
 1005.22        2972.00           1516        5408.00     23568.10
 1005.25        2972.25           1519        4328.00     18854.17
 1005.28        2972.50           1523        2782.00     12108.58
 1005.31        2972.75           1526        1769.00      7690.09
 1005.35        2973.00           1529         776.00      3359.97
 1005.38        2973.25           1533         330.00      1415.49
 1005.41        2973.50           1536         265.00      1132.12
 1005.44        2973.75           1539         226.00       962.10
 1005.47        2974.00           1543         210.00       892.35
 1005.50        2974.25           1546         151.00       635.15
 1005.53        2974.50           1549         119.00       495.65
 1005.56        2974.75           1553          89.00       364.87
 1005.59        2975.00           1556          73.00       295.12
 1005.62        2975.25           1559          56.00       221.01
 1005.65        2975.50           1563          49.00       190.50
 1005.69        2975.75           1566          55.00       216.65
 1005.72        2976.00           1569          50.00       194.86
 1005.75        2976.25           1573          52.00       203.58
 1005.78        2976.50           1576          51.00       199.22
 1005.81        2976.75           1579          52.00       203.58
 1005.84        2977.00           1583          53.00       207.94
 1005.87        2977.25           1586          55.00       216.65
 1005.90        2977.50           1590          54.00       212.29
 1005.93        2977.75           1593          56.00       221.01
 1005.96        2978.00           1596          51.00       199.22
 1005.99        2978.25           1600          52.00       203.58
 1006.03        2978.50           1603          55.00       216.65
 1006.06        2978.75           1606          58.00       229.73
 1006.09        2979.00           1610          50.00       194.86
 1006.12        2979.25           1613          48.00       186.14
 1006.15        2979.50           1616          52.00       203.58
 1006.18        2979.75           1620          53.00       207.94
 1006.21        2980.00           1623          48.00       186.14
 1006.24        2980.25           1626          50.00       194.86
 1006.27        2980.50           1630          51.00       199.22
 1006.30        2980.75           1633          54.00       212.29
 1006.33        2981.00           1637          44.00       168.70
 1006.36        2981.25           1640          54.00       212.29
 1006.40        2981.50           1643          49.00       190.50
 1006.43        2981.75           1647          47.00       181.78
 1006.46        2982.00           1650          50.00       194.86
 1006.49        2982.25           1653          49.00       190.50
 1006.52        2982.50           1657          60.00       238.45
 1006.55        2982.75           1660          52.00       203.58
 1006.58        2983.00           1663          41.00       155.62
 1006.61        2983.25           1667          51.00       199.22
 1006.64        2983.50           1670          46.00       177.42
 1006.67        2983.75           1673          44.00       168.70
 1006.71        2984.00           1677          47.00       181.78
HS scan finished at 16:46:55
end
