************************************************************
  HS Scan of (1) Internal mercury lamp
************************************************************
Integration time is 0.2294 seconds per sample
dh171217Manchester 53.47 2.23 2.804185pr1000
************************************************************
Dead Time -------------------------  3E-08 
Number of Cycles Used -------------  4 
Starting Wavelength (Angstroms) ---  2950 
Final Wavelength (Angstoms) -------  2984 
Wavelength Increment (Angstroms) --  .25 
Filter Wheel #1 Position ---------- (1) Ground quartz diffuser (ND=2.32)
Filter Wheel #2 Position ---------- (1) Neutral Density 0.494



************************************************************
HS scan start time = 05:22:02
Dark Count =  7.4 


Time (GMT)  Wavelength (Ang)  Step Number  Raw Counts  Counts/Second

  322.41        2950.00           1222          70.00       272.89
  322.48        2950.25           1226          58.00       220.58
  322.51        2950.50           1229          62.00       238.01
  322.54        2950.75           1232          63.00       242.37
  322.57        2951.00           1236          66.00       255.45
  322.60        2951.25           1239          66.00       255.45
  322.63        2951.50           1242          66.00       255.45
  322.66        2951.75           1246          64.00       246.73
  322.69        2952.00           1249          61.00       233.65
  322.73        2952.25           1252          64.00       246.73
  322.76        2952.50           1256          57.00       216.22
  322.79        2952.75           1259          69.00       268.53
  322.82        2953.00           1262          62.00       238.01
  322.85        2953.25           1266          58.00       220.58
  322.88        2953.50           1269          90.00       360.07
  322.91        2953.75           1272          63.00       242.37
  322.94        2954.00           1276          68.00       264.17
  322.97        2954.25           1279          61.00       233.65
  323.00        2954.50           1282          60.00       229.30
  323.04        2954.75           1286          66.00       255.45
  323.07        2955.00           1289          57.00       216.22
  323.10        2955.25           1292          64.00       246.73
  323.13        2955.50           1296          68.00       264.17
  323.16        2955.75           1299          64.00       246.73
  323.19        2956.00           1302          58.00       220.58
  323.22        2956.25           1306          65.00       251.09
  323.25        2956.50           1309          64.00       246.73
  323.28        2956.75           1312          61.00       233.65
  323.31        2957.00           1316          54.00       203.14
  323.34        2957.25           1319          63.00       242.37
  323.37        2957.50           1322          74.00       290.33
  323.41        2957.75           1326          57.00       216.22
  323.44        2958.00           1329          62.00       238.01
  323.47        2958.25           1332          66.00       255.45
  323.50        2958.50           1336          59.00       224.94
  323.53        2958.75           1339          64.00       246.73
  323.56        2959.00           1342          68.00       264.17
  323.59        2959.25           1346          64.00       246.73
  323.62        2959.50           1349          63.00       242.37
  323.65        2959.75           1352          78.00       307.76
  323.68        2960.00           1356          94.00       377.51
  323.71        2960.25           1359         125.00       512.65
  323.75        2960.50           1362         159.00       660.87
  323.78        2960.75           1366         213.00       896.28
  323.81        2961.00           1369         252.00      1066.29
  323.84        2961.25           1372         282.00      1197.08
  323.87        2961.50           1376         369.00      1576.36
  323.90        2961.75           1379         515.00      2212.88
  323.93        2962.00           1382        1133.00      4907.44
  323.96        2962.25           1386        2713.00     11798.42
  323.99        2962.50           1389        4109.00     17889.29
  324.02        2962.75           1392        5637.00     24558.63
  324.05        2963.00           1396        7546.00     32894.70
  324.09        2963.25           1399        9067.00     39539.46
  324.12        2963.50           1402       10594.00     46213.11
  324.15        2963.75           1406       12634.00     55132.96
  324.18        2964.00           1409       14363.00     62696.72
  324.21        2964.25           1412       16153.00     70530.95
  324.24        2964.50           1416       18289.00     79884.33
  324.27        2964.75           1419       19754.00     86302.49
  324.30        2965.00           1422       21411.00     93564.79
  324.33        2965.25           1426       23397.00    102273.20
  324.36        2965.50           1429       24963.00    109143.20
  324.40        2965.75           1432       26373.00    115331.20
  324.43        2966.00           1436       28481.00    124586.90
  324.46        2966.25           1439       30121.00    131791.20
  324.49        2966.50           1442       31129.00    136220.80
  324.52        2966.75           1446       32752.00    143355.40
  324.55        2967.00           1449       33168.00    145184.60
  324.58        2967.25           1452       33186.00    145263.80
  324.61        2967.50           1456       33171.00    145197.80
  324.64        2967.75           1459       33272.00    145641.90
  324.67        2968.00           1462       33028.00    144569.00
  324.71        2968.25           1466       32135.00    140642.70
  324.74        2968.50           1469       30866.00    135064.90
  324.77        2968.75           1472       29468.00    128922.30
  324.80        2969.00           1476       27595.00    120696.10
  324.83        2969.25           1479       26126.00    114247.10
  324.86        2969.50           1482       24568.00    107410.10
  324.89        2969.75           1486       22360.00     97725.50
  324.92        2970.00           1489       21004.00     91780.69
  324.95        2970.25           1492       19548.00     85399.86
  324.98        2970.50           1496       17522.00     76525.09
  325.02        2970.75           1499       15932.00     69563.51
  325.05        2971.00           1502       14376.00     62753.60
  325.08        2971.25           1506       12305.00     53694.09
  325.11        2971.50           1509       10759.00     46934.39
  325.14        2971.75           1513        8825.00     38482.06
  325.17        2972.00           1516        7338.00     31986.22
  325.20        2972.25           1519        6004.00     26160.89
  325.23        2972.50           1523        4011.00     17461.63
  325.26        2972.75           1526        2585.00     11240.06
  325.29        2973.00           1529        1214.00      5260.64
  325.32        2973.25           1533         475.00      2038.49
  325.35        2973.50           1536         358.00      1528.41
  325.39        2973.75           1539         300.00      1275.55
  325.42        2974.00           1543         245.00      1035.78
  325.45        2974.25           1546         189.00       791.65
  325.48        2974.50           1549         144.00       595.48
  325.51        2974.75           1553         107.00       434.18
  325.54        2975.00           1556          75.00       294.68
  325.57        2975.25           1559          67.00       259.81
  325.60        2975.50           1563          61.00       233.65
  325.63        2975.75           1566          55.00       207.50
  325.66        2976.00           1569          57.00       216.22
  325.69        2976.25           1573          74.00       290.33
  325.73        2976.50           1576          51.00       190.06
  325.76        2976.75           1579          63.00       242.37
  325.79        2977.00           1583          67.00       259.81
  325.82        2977.25           1586          62.00       238.01
  325.85        2977.50           1590          60.00       229.30
  325.88        2977.75           1593          60.00       229.30
  325.91        2978.00           1596          66.00       255.45
  325.94        2978.25           1600          56.00       211.86
  325.97        2978.50           1603          60.00       229.30
  326.01        2978.75           1606          63.00       242.37
  326.04        2979.00           1610          54.00       203.14
  326.07        2979.25           1613          46.00       168.27
  326.10        2979.50           1616          59.00       224.94
  326.13        2979.75           1620          54.00       203.14
  326.16        2980.00           1623          62.00       238.01
  326.19        2980.25           1626          57.00       216.22
  326.22        2980.50           1630          56.00       211.86
  326.25        2980.75           1633          63.00       242.37
  326.28        2981.00           1637          59.00       224.94
  326.32        2981.25           1640          53.00       198.78
  326.35        2981.50           1643          60.00       229.30
  326.38        2981.75           1647          57.00       216.22
  326.41        2982.00           1650          59.00       224.94
  326.44        2982.25           1653          55.00       207.50
  326.47        2982.50           1657          62.00       238.01
  326.50        2982.75           1660          57.00       216.22
  326.53        2983.00           1663          62.00       238.01
  326.56        2983.25           1667          62.00       238.01
  326.59        2983.50           1670          58.00       220.58
  326.62        2983.75           1673          62.00       238.01
  326.65        2984.00           1677          59.00       224.94
HS scan finished at 05:26:52
end
************************************************************
  HS Scan of (1) Internal mercury lamp
************************************************************
Integration time is 0.2294 seconds per sample
dh171217Manchester 53.47 2.23 2.804185pr1000
************************************************************
Dead Time -------------------------  3E-08 
Number of Cycles Used -------------  4 
Starting Wavelength (Angstroms) ---  2950 
Final Wavelength (Angstoms) -------  2984 
Wavelength Increment (Angstroms) --  .25 
Filter Wheel #1 Position ---------- (1) Ground quartz diffuser (ND=2.32)
Filter Wheel #2 Position ---------- (1) Neutral Density 0.494



************************************************************
HS scan start time = 16:42:01
Dark Count =  6.2 


Time (GMT)  Wavelength (Ang)  Step Number  Raw Counts  Counts/Second

 1002.39        2950.00           1222          61.00       238.89
 1002.46        2950.25           1226          70.00       278.12
 1002.49        2950.50           1229          63.00       247.60
 1002.52        2950.75           1232          64.00       251.96
 1002.55        2951.00           1236          65.00       256.32
 1002.58        2951.25           1239          62.00       243.25
 1002.61        2951.50           1242          63.00       247.60
 1002.64        2951.75           1246          63.00       247.60
 1002.67        2952.00           1249          58.00       225.81
 1002.70        2952.25           1252          66.00       260.68
 1002.73        2952.50           1256          56.00       217.09
 1002.76        2952.75           1259          68.00       269.40
 1002.79        2953.00           1262          62.00       243.25
 1002.83        2953.25           1266          61.00       238.89
 1002.86        2953.50           1269          60.00       234.53
 1002.89        2953.75           1272          63.00       247.60
 1002.92        2954.00           1276          63.00       247.60
 1002.95        2954.25           1279          58.00       225.81
 1002.98        2954.50           1282          63.00       247.60
 1003.01        2954.75           1286          67.00       265.04
 1003.04        2955.00           1289          65.00       256.32
 1003.07        2955.25           1292          72.00       286.84
 1003.10        2955.50           1296          66.00       260.68
 1003.13        2955.75           1299          61.00       238.89
 1003.17        2956.00           1302          65.00       256.32
 1003.20        2956.25           1306          57.00       221.45
 1003.23        2956.50           1309          72.00       286.84
 1003.26        2956.75           1312          64.00       251.96
 1003.29        2957.00           1316          60.00       234.53
 1003.32        2957.25           1319          59.00       230.17
 1003.35        2957.50           1322          72.00       286.84
 1003.38        2957.75           1326          68.00       269.40
 1003.41        2958.00           1329          67.00       265.04
 1003.44        2958.25           1332          60.00       234.53
 1003.47        2958.50           1336          62.00       243.25
 1003.50        2958.75           1339          56.00       217.09
 1003.53        2959.00           1342          75.00       299.92
 1003.56        2959.25           1346          67.00       265.04
 1003.59        2959.50           1349          75.00       299.92
 1003.62        2959.75           1352          89.00       360.95
 1003.66        2960.00           1356         110.00       452.49
 1003.69        2960.25           1359         135.00       561.47
 1003.72        2960.50           1362         165.00       692.26
 1003.75        2960.75           1366         238.00      1010.49
 1003.78        2961.00           1369         273.00      1163.07
 1003.81        2961.25           1372         296.00      1263.34
 1003.84        2961.50           1376         377.00      1616.47
 1003.87        2961.75           1379         486.00      2091.67
 1003.90        2962.00           1382         989.00      4284.77
 1003.94        2962.25           1386        2514.00     10935.58
 1003.97        2962.50           1389        3979.00     17327.23
 1004.00        2962.75           1392        5360.00     23354.63
 1004.03        2963.00           1396        7219.00     31471.73
 1004.06        2963.25           1399        8763.00     38216.42
 1004.09        2963.50           1402       10305.00     44955.10
 1004.12        2963.75           1406       12306.00     53703.72
 1004.15        2964.00           1409       13805.00     60260.55
 1004.18        2964.25           1412       15442.00     67423.96
 1004.21        2964.50           1416       17518.00     76512.83
 1004.25        2964.75           1419       19032.00     83144.37
 1004.28        2965.00           1422       20605.00     90037.12
 1004.31        2965.25           1426       22573.00     98664.78
 1004.34        2965.50           1429       24061.00    105191.10
 1004.37        2965.75           1432       25610.00    111987.60
 1004.40        2966.00           1436       27573.00    120604.70
 1004.43        2966.25           1439       29169.00    127614.10
 1004.46        2966.50           1442       30457.00    133272.90
 1004.49        2966.75           1446       32136.00    140652.40
 1004.53        2967.00           1449       32804.00    143589.30
 1004.56        2967.25           1452       33033.00    144596.30
 1004.59        2967.50           1456       33075.00    144780.90
 1004.62        2967.75           1459       33025.00    144561.10
 1004.65        2968.00           1462       32782.00    143492.60
 1004.68        2968.25           1466       32312.00    141426.20
 1004.71        2968.50           1469       31223.00    136639.20
 1004.74        2968.75           1472       29823.00    130487.20
 1004.77        2969.00           1476       27929.00    122168.00
 1004.80        2969.25           1479       26446.00    115656.90
 1004.83        2969.50           1482       24908.00    108907.10
 1004.87        2969.75           1486       22683.00     99147.12
 1004.90        2970.00           1489       21345.00     93280.74
 1004.93        2970.25           1492       19884.00     86877.41
 1004.96        2970.50           1496       17639.00     77042.73
 1004.99        2970.75           1499       16175.00     70632.51
 1005.02        2971.00           1502       14512.00     63353.96
 1005.05        2971.25           1506       12484.00     54482.18
 1005.08        2971.50           1509       10916.00     47625.98
 1005.11        2971.75           1513        8922.00     38911.13
 1005.15        2972.00           1516        7496.00     32681.55
 1005.18        2972.25           1519        6064.00     26428.09
 1005.21        2972.50           1523        4097.00     17842.15
 1005.24        2972.75           1526        2660.00     11572.46
 1005.27        2973.00           1529        1355.00      5880.72
 1005.30        2973.25           1533         465.00      2000.12
 1005.33        2973.50           1536         325.00      1389.77
 1005.36        2973.75           1539         276.00      1176.15
 1005.39        2974.00           1543         231.00       979.98
 1005.42        2974.25           1546         161.00       674.82
 1005.46        2974.50           1549         139.00       578.91
 1005.49        2974.75           1553          95.00       387.10
 1005.52        2975.00           1556          78.00       312.99
 1005.55        2975.25           1559          64.00       251.96
 1005.58        2975.50           1563          58.00       225.81
 1005.61        2975.75           1566          63.00       247.60
 1005.64        2976.00           1569          52.00       199.65
 1005.67        2976.25           1573          62.00       243.25
 1005.70        2976.50           1576          59.00       230.17
 1005.73        2976.75           1579          48.00       182.22
 1005.76        2977.00           1583          65.00       256.32
 1005.79        2977.25           1586          63.00       247.60
 1005.82        2977.50           1590          63.00       247.60
 1005.86        2977.75           1593          63.00       247.60
 1005.89        2978.00           1596          68.00       269.40
 1005.92        2978.25           1600          58.00       225.81
 1005.95        2978.50           1603          56.00       217.09
 1005.98        2978.75           1606          59.00       230.17
 1006.01        2979.00           1610          64.00       251.96
 1006.04        2979.25           1613          55.00       212.73
 1006.07        2979.50           1616          63.00       247.60
 1006.10        2979.75           1620          61.00       238.89
 1006.13        2980.00           1623          60.00       234.53
 1006.16        2980.25           1626          54.00       208.37
 1006.19        2980.50           1630          62.00       243.25
 1006.22        2980.75           1633          55.00       212.73
 1006.26        2981.00           1637          47.00       177.86
 1006.29        2981.25           1640          60.00       234.53
 1006.32        2981.50           1643          65.00       256.32
 1006.35        2981.75           1647          55.00       212.73
 1006.38        2982.00           1650          56.00       217.09
 1006.41        2982.25           1653          53.00       204.01
 1006.44        2982.50           1657          65.00       256.32
 1006.47        2982.75           1660          60.00       234.53
 1006.50        2983.00           1663          58.00       225.81
 1006.53        2983.25           1667          56.00       217.09
 1006.57        2983.50           1670          67.00       265.04
 1006.60        2983.75           1673          55.00       212.73
 1006.63        2984.00           1677          60.00       234.53
HS scan finished at 16:46:51
end
