************************************************************
  HS Scan of (1) Internal mercury lamp
************************************************************
Integration time is 0.2294 seconds per sample
dh161218Manchester 53.47 2.23 2.804185pr1000
************************************************************
Dead Time -------------------------  3E-08 
Number of Cycles Used -------------  4 
Starting Wavelength (Angstroms) ---  2950 
Final Wavelength (Angstoms) -------  2984 
Wavelength Increment (Angstroms) --  .25 
Filter Wheel #1 Position ---------- (1) Ground quartz diffuser (ND=2.32)
Filter Wheel #2 Position ---------- (1) Neutral Density 0.494



************************************************************
HS scan start time = 05:19:57
Dark Count =  5.8 


Time (GMT)  Wavelength (Ang)  Step Number  Raw Counts  Counts/Second

  320.32        2950.00           1222          55.00       214.47
  320.39        2950.25           1226          51.00       197.04
  320.42        2950.50           1229          64.00       253.71
  320.45        2950.75           1232          57.00       223.19
  320.48        2951.00           1236          50.00       192.68
  320.51        2951.25           1239          55.00       214.47
  320.55        2951.50           1242          60.00       236.27
  320.58        2951.75           1246          50.00       192.68
  320.61        2952.00           1249          54.00       210.11
  320.64        2952.25           1252          56.00       218.83
  320.67        2952.50           1256          48.00       183.96
  320.70        2952.75           1259          56.00       218.83
  320.73        2953.00           1262          53.00       205.76
  320.76        2953.25           1266          61.00       240.63
  320.79        2953.50           1269          57.00       223.19
  320.82        2953.75           1272          55.00       214.47
  320.85        2954.00           1276          61.00       240.63
  320.88        2954.25           1279          61.00       240.63
  320.92        2954.50           1282          61.00       240.63
  320.95        2954.75           1286          54.00       210.11
  320.98        2955.00           1289          59.00       231.91
  321.01        2955.25           1292          50.00       192.68
  321.04        2955.50           1296          54.00       210.11
  321.07        2955.75           1299          57.00       223.19
  321.10        2956.00           1302          59.00       231.91
  321.13        2956.25           1306          64.00       253.71
  321.16        2956.50           1309          51.00       197.04
  321.19        2956.75           1312          52.00       201.40
  321.22        2957.00           1316          51.00       197.04
  321.26        2957.25           1319          54.00       210.11
  321.29        2957.50           1322          52.00       201.40
  321.32        2957.75           1326          63.00       249.35
  321.35        2958.00           1329          52.00       201.40
  321.38        2958.25           1332          51.00       197.04
  321.41        2958.50           1336          50.00       192.68
  321.44        2958.75           1339          51.00       197.04
  321.47        2959.00           1342          55.00       214.47
  321.50        2959.25           1346          59.00       231.91
  321.53        2959.50           1349          56.00       218.83
  321.56        2959.75           1352          60.00       236.27
  321.60        2960.00           1356          83.00       336.53
  321.63        2960.25           1359         115.00       476.03
  321.66        2960.50           1362         137.00       571.94
  321.69        2960.75           1366         175.00       737.59
  321.72        2961.00           1369         200.00       846.58
  321.75        2961.25           1372         254.00      1081.99
  321.78        2961.50           1376         323.00      1382.80
  321.81        2961.75           1379         579.00      2498.88
  321.84        2962.00           1382        1344.00      5834.50
  321.87        2962.25           1386        2677.00     11648.36
  321.90        2962.50           1389        3838.00     16713.70
  321.94        2962.75           1392        5040.00     21959.54
  321.97        2963.00           1396        6395.00     27875.09
  322.00        2963.25           1399        7594.00     33111.35
  322.03        2963.50           1402        8766.00     38231.27
  322.06        2963.75           1406       10403.00     45385.21
  322.09        2964.00           1409       11516.00     50250.94
  322.12        2964.25           1412       12758.00     55682.31
  322.15        2964.50           1416       14354.00     62664.34
  322.18        2964.75           1419       15563.00     67955.31
  322.22        2965.00           1422       16782.00     73291.75
  322.25        2965.25           1426       18497.00     80802.43
  322.28        2965.50           1429       19525.00     85306.09
  322.31        2965.75           1432       20783.00     90819.03
  322.34        2966.00           1436       22575.00     98675.28
  322.37        2966.25           1439       23719.00    103692.60
  322.40        2966.50           1442       24401.00    106684.40
  322.43        2966.75           1446       25468.00    111366.20
  322.46        2967.00           1449       25861.00    113091.00
  322.49        2967.25           1452       25748.00    112595.00
  322.53        2967.50           1456       25785.00    112757.40
  322.56        2967.75           1459       25880.00    113174.40
  322.59        2968.00           1462       25682.00    112305.40
  322.62        2968.25           1466       24696.00    107978.70
  322.65        2968.50           1469       23487.00    102675.00
  322.68        2968.75           1472       22358.00     97723.74
  322.71        2969.00           1476       20888.00     91279.26
  322.74        2969.25           1479       19852.00     86738.93
  322.77        2969.50           1482       18631.00     81389.41
  322.81        2969.75           1486       17086.00     74622.84
  322.84        2970.00           1489       15949.00     69644.93
  322.87        2970.25           1492       14773.00     64497.83
  322.90        2970.50           1496       13178.00     57519.40
  322.93        2970.75           1499       12007.00     52397.92
  322.96        2971.00           1502       10716.00     46753.42
  322.99        2971.25           1506        9180.00     40040.23
  323.02        2971.50           1509        7968.00     34745.01
  323.05        2971.75           1513        6393.00     27866.36
  323.09        2972.00           1516        5127.00     22339.29
  323.12        2972.25           1519        3954.00     17219.88
  323.15        2972.50           1523        2493.00     10845.73
  323.18        2972.75           1526        1411.00      6126.67
  323.21        2973.00           1529         681.00      2943.59
  323.24        2973.25           1533         349.00      1496.14
  323.27        2973.50           1536         261.00      1112.50
  323.30        2973.75           1539         230.00       977.36
  323.33        2974.00           1543         198.00       837.86
  323.37        2974.25           1546         142.00       593.73
  323.40        2974.50           1549         125.00       519.62
  323.43        2974.75           1553          88.00       358.33
  323.46        2975.00           1556          80.00       323.46
  323.49        2975.25           1559          65.00       258.07
  323.52        2975.50           1563          60.00       236.27
  323.55        2975.75           1566          50.00       192.68
  323.58        2976.00           1569          52.00       201.40
  323.61        2976.25           1573          51.00       197.04
  323.64        2976.50           1576          52.00       201.40
  323.67        2976.75           1579          54.00       210.11
  323.70        2977.00           1583          55.00       214.47
  323.74        2977.25           1586          49.00       188.32
  323.77        2977.50           1590          47.00       179.60
  323.80        2977.75           1593          55.00       214.47
  323.83        2978.00           1596          41.00       153.44
  323.86        2978.25           1600          47.00       179.60
  323.89        2978.50           1603          55.00       214.47
  323.92        2978.75           1606          49.00       188.32
  323.95        2979.00           1610          48.00       183.96
  323.98        2979.25           1613          48.00       183.96
  324.01        2979.50           1616          51.00       197.04
  324.05        2979.75           1620          48.00       183.96
  324.08        2980.00           1623          49.00       188.32
  324.11        2980.25           1626          48.00       183.96
  324.14        2980.50           1630          54.00       210.11
  324.17        2980.75           1633          49.00       188.32
  324.20        2981.00           1637          53.00       205.76
  324.23        2981.25           1640          56.00       218.83
  324.26        2981.50           1643          53.00       205.76
  324.29        2981.75           1647          47.00       179.60
  324.32        2982.00           1650          59.00       231.91
  324.35        2982.25           1653          50.00       192.68
  324.38        2982.50           1657          55.00       214.47
  324.42        2982.75           1660          39.00       144.73
  324.45        2983.00           1663          48.00       183.96
  324.48        2983.25           1667          52.00       201.40
  324.51        2983.50           1670          47.00       179.60
  324.54        2983.75           1673          52.00       201.40
  324.57        2984.00           1677          51.00       197.04
HS scan finished at 05:24:47
end
************************************************************
  HS Scan of (1) Internal mercury lamp
************************************************************
Integration time is 0.2294 seconds per sample
dh161218Manchester 53.47 2.23 2.804185pr1000
************************************************************
Dead Time -------------------------  3E-08 
Number of Cycles Used -------------  4 
Starting Wavelength (Angstroms) ---  2950 
Final Wavelength (Angstoms) -------  2984 
Wavelength Increment (Angstroms) --  .25 
Filter Wheel #1 Position ---------- (1) Ground quartz diffuser (ND=2.32)
Filter Wheel #2 Position ---------- (1) Neutral Density 0.494



************************************************************
HS scan start time = 16:42:03
Dark Count =  4.5 


Time (GMT)  Wavelength (Ang)  Step Number  Raw Counts  Counts/Second

 1002.42        2950.00           1222          51.00       202.70
 1002.48        2950.25           1226          49.00       193.99
 1002.52        2950.50           1229          49.00       193.99
 1002.55        2950.75           1232          53.00       211.42
 1002.58        2951.00           1236          77.00       316.04
 1002.61        2951.25           1239          65.00       263.73
 1002.64        2951.50           1242          60.00       241.94
 1002.67        2951.75           1246          53.00       211.42
 1002.70        2952.00           1249          60.00       241.94
 1002.73        2952.25           1252          58.00       233.22
 1002.76        2952.50           1256          56.00       224.50
 1002.79        2952.75           1259          55.00       220.14
 1002.82        2953.00           1262          64.00       259.37
 1002.85        2953.25           1266          61.00       246.30
 1002.89        2953.50           1269          48.00       189.63
 1002.92        2953.75           1272          53.00       211.42
 1002.95        2954.00           1276          52.00       207.06
 1002.98        2954.25           1279          59.00       237.58
 1003.01        2954.50           1282          57.00       228.86
 1003.04        2954.75           1286          63.00       255.02
 1003.07        2955.00           1289          48.00       189.63
 1003.10        2955.25           1292          52.00       207.06
 1003.13        2955.50           1296          59.00       237.58
 1003.16        2955.75           1299          57.00       228.86
 1003.19        2956.00           1302          48.00       189.63
 1003.23        2956.25           1306          61.00       246.30
 1003.26        2956.50           1309          53.00       211.42
 1003.29        2956.75           1312          54.00       215.78
 1003.32        2957.00           1316          54.00       215.78
 1003.35        2957.25           1319          51.00       202.70
 1003.38        2957.50           1322          57.00       228.86
 1003.41        2957.75           1326          55.00       220.14
 1003.44        2958.00           1329          55.00       220.14
 1003.47        2958.25           1332          65.00       263.73
 1003.50        2958.50           1336          51.00       202.70
 1003.53        2958.75           1339          58.00       233.22
 1003.56        2959.00           1342          57.00       228.86
 1003.60        2959.25           1346          53.00       211.42
 1003.63        2959.50           1349          56.00       224.50
 1003.66        2959.75           1352          67.00       272.45
 1003.69        2960.00           1356          80.00       329.12
 1003.72        2960.25           1359         107.00       446.82
 1003.75        2960.50           1362         135.00       568.89
 1003.78        2960.75           1366         166.00       704.03
 1003.81        2961.00           1369         204.00       869.68
 1003.84        2961.25           1372         226.00       965.59
 1003.87        2961.50           1376         270.00      1157.41
 1003.90        2961.75           1379         391.00      1684.92
 1003.94        2962.00           1382         789.00      3420.14
 1003.97        2962.25           1386        2016.00      8770.83
 1004.00        2962.50           1389        3091.00     13460.10
 1004.03        2962.75           1392        4131.00     17997.95
 1004.06        2963.00           1396        5597.00     24396.67
 1004.09        2963.25           1399        6795.00     29627.46
 1004.12        2963.50           1402        7914.00     34514.80
 1004.15        2963.75           1406        9403.00     41020.37
 1004.18        2964.00           1409       10623.00     46352.56
 1004.22        2964.25           1412       11702.00     51069.90
 1004.25        2964.50           1416       13329.00     58185.62
 1004.28        2964.75           1419       14263.00     62271.85
 1004.31        2965.00           1422       15505.00     67707.13
 1004.34        2965.25           1426       16942.00     73998.00
 1004.37        2965.50           1429       18101.00     79073.58
 1004.40        2965.75           1432       19181.00     83804.60
 1004.43        2966.00           1436       20825.00     91008.81
 1004.46        2966.25           1439       21772.00     95160.12
 1004.49        2966.50           1442       22692.00     99194.05
 1004.53        2966.75           1446       23778.00    103957.10
 1004.56        2967.00           1449       24047.00    105137.10
 1004.59        2967.25           1452       23982.00    104852.00
 1004.62        2967.50           1456       24158.00    105624.10
 1004.65        2967.75           1459       24137.00    105531.90
 1004.68        2968.00           1462       24123.00    105470.50
 1004.71        2968.25           1466       23335.00    102014.00
 1004.74        2968.50           1469       22243.00     97225.19
 1004.77        2968.75           1472       21233.00     92797.22
 1004.81        2969.00           1476       19688.00     86026.00
 1004.84        2969.25           1479       18585.00     81193.61
 1004.87        2969.50           1482       17678.00     77220.98
 1004.90        2969.75           1486       15982.00     69795.08
 1004.93        2970.00           1489       15001.00     65501.30
 1004.96        2970.25           1492       13851.00     60469.23
 1004.99        2970.50           1496       12383.00     54047.90
 1005.02        2970.75           1499       11313.00     49369.06
 1005.05        2971.00           1502       10291.00     44901.33
 1005.09        2971.25           1506        8790.00     38341.81
 1005.12        2971.50           1509        7688.00     33527.61
 1005.15        2971.75           1513        6150.00     26811.01
 1005.18        2972.00           1516        5045.00     21987.04
 1005.21        2972.25           1519        3917.00     17064.09
 1005.24        2972.50           1523        2493.00     10851.40
 1005.27        2972.75           1526        1500.00      6520.46
 1005.30        2973.00           1529         693.00      3001.58
 1005.33        2973.25           1533         327.00      1405.90
 1005.36        2973.50           1536         257.00      1100.73
 1005.39        2973.75           1539         202.00       860.96
 1005.43        2974.00           1543         189.00       804.29
 1005.46        2974.25           1546         135.00       568.89
 1005.49        2974.50           1549         102.00       425.03
 1005.52        2974.75           1553          75.00       307.33
 1005.55        2975.00           1556          66.00       268.09
 1005.58        2975.25           1559          62.00       250.66
 1005.61        2975.50           1563          52.00       207.06
 1005.64        2975.75           1566          52.00       207.06
 1005.67        2976.00           1569          51.00       202.70
 1005.70        2976.25           1573          53.00       211.42
 1005.74        2976.50           1576          56.00       224.50
 1005.77        2976.75           1579          47.00       185.27
 1005.80        2977.00           1583          48.00       189.63
 1005.83        2977.25           1586          52.00       207.06
 1005.86        2977.50           1590          44.00       172.19
 1005.89        2977.75           1593          58.00       233.22
 1005.92        2978.00           1596          59.00       237.58
 1005.95        2978.25           1600          52.00       207.06
 1005.98        2978.50           1603          54.00       215.78
 1006.01        2978.75           1606          47.00       185.27
 1006.04        2979.00           1610          46.00       180.91
 1006.07        2979.25           1613          54.00       215.78
 1006.10        2979.50           1616          44.00       172.19
 1006.13        2979.75           1620          54.00       215.78
 1006.17        2980.00           1623          55.00       220.14
 1006.20        2980.25           1626          49.00       193.99
 1006.23        2980.50           1630          46.00       180.91
 1006.26        2980.75           1633          53.00       211.42
 1006.29        2981.00           1637          49.00       193.99
 1006.32        2981.25           1640          53.00       211.42
 1006.35        2981.50           1643          54.00       215.78
 1006.38        2981.75           1647          48.00       189.63
 1006.41        2982.00           1650          51.00       202.70
 1006.44        2982.25           1653          49.00       193.99
 1006.47        2982.50           1657          51.00       202.70
 1006.51        2982.75           1660          44.00       172.19
 1006.54        2983.00           1663          51.00       202.70
 1006.57        2983.25           1667          45.00       176.55
 1006.60        2983.50           1670          48.00       189.63
 1006.63        2983.75           1673          49.00       193.99
 1006.66        2984.00           1677          51.00       202.70
HS scan finished at 16:46:52
end
