************************************************************
  HS Scan of (1) Internal mercury lamp
************************************************************
Integration time is 0.2294 seconds per sample
dh171218Manchester 53.47 2.23 2.804185pr1000
************************************************************
Dead Time -------------------------  3E-08 
Number of Cycles Used -------------  4 
Starting Wavelength (Angstroms) ---  2950 
Final Wavelength (Angstoms) -------  2984 
Wavelength Increment (Angstroms) --  .25 
Filter Wheel #1 Position ---------- (1) Ground quartz diffuser (ND=2.32)
Filter Wheel #2 Position ---------- (1) Neutral Density 0.494



************************************************************
HS scan start time = 05:20:39
Dark Count =  7 


Time (GMT)  Wavelength (Ang)  Step Number  Raw Counts  Counts/Second

  321.03        2950.00           1222          58.00       222.32
  321.09        2950.25           1226          58.00       222.32
  321.12        2950.50           1229          56.00       213.60
  321.16        2950.75           1232          51.00       191.81
  321.19        2951.00           1236          52.00       196.17
  321.22        2951.25           1239          59.00       226.68
  321.25        2951.50           1242          68.00       265.91
  321.28        2951.75           1246          56.00       213.60
  321.31        2952.00           1249          51.00       191.81
  321.34        2952.25           1252          48.00       178.73
  321.37        2952.50           1256          61.00       235.40
  321.40        2952.75           1259          60.00       231.04
  321.43        2953.00           1262          47.00       174.37
  321.47        2953.25           1266          55.00       209.24
  321.50        2953.50           1269          63.00       244.12
  321.53        2953.75           1272          49.00       183.09
  321.56        2954.00           1276          54.00       204.88
  321.59        2954.25           1279          53.00       200.52
  321.62        2954.50           1282          54.00       204.88
  321.65        2954.75           1286          53.00       200.52
  321.68        2955.00           1289          50.00       187.45
  321.71        2955.25           1292          66.00       257.19
  321.74        2955.50           1296          53.00       200.52
  321.77        2955.75           1299          55.00       209.24
  321.80        2956.00           1302          59.00       226.68
  321.84        2956.25           1306          57.00       217.96
  321.87        2956.50           1309          56.00       213.60
  321.90        2956.75           1312          49.00       183.09
  321.93        2957.00           1316          47.00       174.37
  321.96        2957.25           1319          61.00       235.40
  321.99        2957.50           1322          53.00       200.52
  322.02        2957.75           1326          54.00       204.88
  322.05        2958.00           1329          62.00       239.76
  322.08        2958.25           1332          54.00       204.88
  322.11        2958.50           1336          54.00       204.88
  322.14        2958.75           1339          56.00       213.60
  322.17        2959.00           1342          46.00       170.01
  322.20        2959.25           1346          52.00       196.17
  322.23        2959.50           1349          60.00       231.04
  322.27        2959.75           1352          69.00       270.27
  322.30        2960.00           1356          68.00       265.91
  322.33        2960.25           1359         104.00       422.85
  322.36        2960.50           1362         122.00       501.32
  322.39        2960.75           1366         165.00       688.77
  322.42        2961.00           1369         186.00       780.31
  322.45        2961.25           1372         216.00       911.10
  322.48        2961.50           1376         301.00      1281.65
  322.51        2961.75           1379         418.00      1791.73
  322.54        2962.00           1382         978.00      4233.32
  322.58        2962.25           1386        2303.00     10011.73
  322.61        2962.50           1389        3337.00     14522.46
  322.64        2962.75           1392        4482.00     19518.84
  322.67        2963.00           1396        5923.00     25808.99
  322.70        2963.25           1399        6936.00     30232.29
  322.73        2963.50           1402        8059.00     35137.28
  322.76        2963.75           1406        9661.00     42136.94
  322.79        2964.00           1409       10746.00     46879.31
  322.82        2964.25           1412       12146.00     53000.51
  322.85        2964.50           1416       13913.00     60729.55
  322.88        2964.75           1419       14796.00     64593.23
  322.91        2965.00           1422       16189.00     70690.30
  322.94        2965.25           1426       17627.00     76986.68
  322.98        2965.50           1429       18561.00     81077.53
  323.01        2965.75           1432       19744.00     86260.43
  323.04        2966.00           1436       21295.00     93058.05
  323.07        2966.25           1439       22120.00     96674.91
  323.10        2966.50           1442       23193.00    101380.20
  323.13        2966.75           1446       24452.00    106902.90
  323.16        2967.00           1449       24448.00    106885.40
  323.19        2967.25           1452       24333.00    106380.80
  323.22        2967.50           1456       24558.00    107368.00
  323.25        2967.75           1459       24454.00    106911.70
  323.29        2968.00           1462       24368.00    106534.40
  323.32        2968.25           1466       23464.00    102568.80
  323.35        2968.50           1469       22502.00     98349.91
  323.38        2968.75           1472       21340.00     93255.31
  323.41        2969.00           1476       20041.00     87561.88
  323.44        2969.25           1479       19030.00     83132.10
  323.47        2969.50           1482       17781.00     77661.11
  323.50        2969.75           1486       16380.00     71526.47
  323.53        2970.00           1489       15186.00     66300.01
  323.56        2970.25           1492       14014.00     61171.44
  323.60        2970.50           1496       12616.00     55055.99
  323.63        2970.75           1499       11577.00     50512.41
  323.66        2971.00           1502       10224.00     44597.56
  323.69        2971.25           1506        8670.00     37806.59
  323.72        2971.50           1509        7559.00     32953.23
  323.75        2971.75           1513        6214.00     27079.54
  323.78        2972.00           1516        5147.00     22421.35
  323.81        2972.25           1519        4113.00     17908.49
  323.84        2972.50           1523        2671.00     11616.95
  323.87        2972.75           1526        1562.00      6779.93
  323.90        2973.00           1529         737.00      3182.52
  323.94        2973.25           1533         353.00      1508.35
  323.97        2973.50           1536         264.00      1120.35
  324.00        2973.75           1539         225.00       950.33
  324.03        2974.00           1543         189.00       793.39
  324.06        2974.25           1546         150.00       623.38
  324.09        2974.50           1549         115.00       470.80
  324.12        2974.75           1553          86.00       344.38
  324.15        2975.00           1556          72.00       283.35
  324.18        2975.25           1559          63.00       244.12
  324.21        2975.50           1563          56.00       213.60
  324.24        2975.75           1566          59.00       226.68
  324.27        2976.00           1569          56.00       213.60
  324.31        2976.25           1573          44.00       161.29
  324.34        2976.50           1576          54.00       204.88
  324.37        2976.75           1579          55.00       209.24
  324.40        2977.00           1583          60.00       231.04
  324.43        2977.25           1586          58.00       222.32
  324.46        2977.50           1590          63.00       244.12
  324.49        2977.75           1593          47.00       174.37
  324.52        2978.00           1596          48.00       178.73
  324.55        2978.25           1600          49.00       183.09
  324.58        2978.50           1603          53.00       200.52
  324.61        2978.75           1606          52.00       196.17
  324.64        2979.00           1610          53.00       200.52
  324.67        2979.25           1613          45.00       165.65
  324.71        2979.50           1616          58.00       222.32
  324.74        2979.75           1620          53.00       200.52
  324.77        2980.00           1623          47.00       174.37
  324.80        2980.25           1626          49.00       183.09
  324.83        2980.50           1630          57.00       217.96
  324.86        2980.75           1633          57.00       217.96
  324.89        2981.00           1637          52.00       196.17
  324.92        2981.25           1640          63.00       244.12
  324.95        2981.50           1643          56.00       213.60
  324.98        2981.75           1647          44.00       161.29
  325.01        2982.00           1650          45.00       165.65
  325.04        2982.25           1653          46.00       170.01
  325.08        2982.50           1657          51.00       191.81
  325.11        2982.75           1660          47.00       174.37
  325.14        2983.00           1663          51.00       191.81
  325.17        2983.25           1667          53.00       200.52
  325.20        2983.50           1670          54.00       204.88
  325.23        2983.75           1673          53.00       200.52
  325.26        2984.00           1677          51.00       191.81
HS scan finished at 05:25:29
end
************************************************************
  HS Scan of (1) Internal mercury lamp
************************************************************
Integration time is 0.2294 seconds per sample
dh171218Manchester 53.47 2.23 2.804185pr1000
************************************************************
Dead Time -------------------------  3E-08 
Number of Cycles Used -------------  4 
Starting Wavelength (Angstroms) ---  2950 
Final Wavelength (Angstoms) -------  2984 
Wavelength Increment (Angstroms) --  .25 
Filter Wheel #1 Position ---------- (1) Ground quartz diffuser (ND=2.32)
Filter Wheel #2 Position ---------- (1) Neutral Density 0.494



************************************************************
HS scan start time = 16:42:06
Dark Count =  6.5 


Time (GMT)  Wavelength (Ang)  Step Number  Raw Counts  Counts/Second

 1002.48        2950.00           1222          58.00       224.50
 1002.54        2950.25           1226          53.00       202.70
 1002.57        2950.50           1229          59.00       228.86
 1002.61        2950.75           1232          60.00       233.22
 1002.64        2951.00           1236          57.00       220.14
 1002.67        2951.25           1239          48.00       180.91
 1002.70        2951.50           1242          61.00       237.58
 1002.73        2951.75           1246          56.00       215.78
 1002.76        2952.00           1249          55.00       211.42
 1002.79        2952.25           1252          64.00       250.66
 1002.82        2952.50           1256          58.00       224.50
 1002.85        2952.75           1259          59.00       228.86
 1002.88        2953.00           1262          51.00       193.99
 1002.91        2953.25           1266          55.00       211.42
 1002.95        2953.50           1269          54.00       207.06
 1002.98        2953.75           1272          60.00       233.22
 1003.01        2954.00           1276          56.00       215.78
 1003.04        2954.25           1279          57.00       220.14
 1003.07        2954.50           1282          50.00       189.63
 1003.10        2954.75           1286          58.00       224.50
 1003.13        2955.00           1289          55.00       211.42
 1003.16        2955.25           1292          58.00       224.50
 1003.19        2955.50           1296          52.00       198.34
 1003.22        2955.75           1299          53.00       202.70
 1003.25        2956.00           1302          56.00       215.78
 1003.29        2956.25           1306          53.00       202.70
 1003.32        2956.50           1309          51.00       193.99
 1003.35        2956.75           1312          53.00       202.70
 1003.38        2957.00           1316          53.00       202.70
 1003.41        2957.25           1319          53.00       202.70
 1003.44        2957.50           1322          52.00       198.34
 1003.47        2957.75           1326          52.00       198.34
 1003.50        2958.00           1329          57.00       220.14
 1003.53        2958.25           1332          56.00       215.78
 1003.56        2958.50           1336          61.00       237.58
 1003.59        2958.75           1339          58.00       224.50
 1003.63        2959.00           1342          54.00       207.06
 1003.66        2959.25           1346          59.00       228.86
 1003.69        2959.50           1349          61.00       237.58
 1003.72        2959.75           1352          62.00       241.94
 1003.75        2960.00           1356          89.00       359.64
 1003.78        2960.25           1359         110.00       451.18
 1003.81        2960.50           1362         139.00       577.60
 1003.84        2960.75           1366         187.00       786.85
 1003.87        2961.00           1369         212.00       895.84
 1003.90        2961.25           1372         257.00      1092.01
 1003.93        2961.50           1376         300.00      1279.47
 1003.97        2961.75           1379         397.00      1702.35
 1004.00        2962.00           1382         748.00      3232.66
 1004.03        2962.25           1386        1885.00      8190.77
 1004.06        2962.50           1389        3026.00     13167.80
 1004.09        2962.75           1392        4152.00     18080.86
 1004.12        2963.00           1396        5587.00     24344.28
 1004.15        2963.25           1399        6702.00     29212.60
 1004.18        2963.50           1402        7944.00     34637.11
 1004.21        2963.75           1406        9370.00     40867.43
 1004.25        2964.00           1409       10672.00     46558.01
 1004.28        2964.25           1412       11898.00     51918.21
 1004.31        2964.50           1416       13765.00     60084.23
 1004.34        2964.75           1419       14730.00     64306.60
 1004.37        2965.00           1422       15887.00     69370.46
 1004.40        2965.25           1426       17530.00     76564.06
 1004.43        2965.50           1429       18868.00     82424.57
 1004.46        2965.75           1432       19928.00     87068.90
 1004.49        2966.00           1436       21482.00     93879.99
 1004.52        2966.25           1439       22709.00     99259.84
 1004.55        2966.50           1442       23826.00    104158.90
 1004.58        2966.75           1446       24744.00    108186.20
 1004.62        2967.00           1449       25229.00    110314.40
 1004.65        2967.25           1452       25411.00    111113.00
 1004.68        2967.50           1456       25348.00    110836.50
 1004.71        2967.75           1459       25304.00    110643.50
 1004.74        2968.00           1462       25071.00    109621.00
 1004.77        2968.25           1466       24564.00    107396.50
 1004.80        2968.50           1469       23588.00    103114.90
 1004.83        2968.75           1472       22540.00     98518.74
 1004.87        2969.00           1476       21126.00     92319.41
 1004.90        2969.25           1479       20085.00     87756.89
 1004.93        2969.50           1482       19040.00     83178.10
 1004.96        2969.75           1486       17338.00     75723.27
 1004.99        2970.00           1489       16217.00     70815.06
 1005.02        2970.25           1492       15029.00     65615.09
 1005.05        2970.50           1496       13487.00     58868.05
 1005.08        2970.75           1499       12378.00     54017.28
 1005.11        2971.00           1502       11075.00     48319.78
 1005.14        2971.25           1506        9659.00     42130.38
 1005.17        2971.50           1509        8414.00     36690.32
 1005.21        2971.75           1513        6932.00     30217.01
 1005.24        2972.00           1516        5839.00     25444.44
 1005.27        2972.25           1519        4664.00     20315.34
 1005.30        2972.50           1523        3193.00     13896.38
 1005.33        2972.75           1526        2133.00      9272.41
 1005.36        2973.00           1529        1043.00      4518.92
 1005.39        2973.25           1533         383.00      1641.32
 1005.42        2973.50           1536         245.00      1039.70
 1005.45        2973.75           1539         232.00       983.03
 1005.49        2974.00           1543         178.00       747.62
 1005.52        2974.25           1546         129.00       534.01
 1005.55        2974.50           1549         111.00       455.54
 1005.58        2974.75           1553          78.00       311.69
 1005.61        2975.00           1556          68.00       268.09
 1005.64        2975.25           1559          57.00       220.14
 1005.67        2975.50           1563          52.00       198.34
 1005.70        2975.75           1566          52.00       198.34
 1005.73        2976.00           1569          60.00       233.22
 1005.76        2976.25           1573          55.00       211.42
 1005.80        2976.50           1576          44.00       163.47
 1005.83        2976.75           1579          53.00       202.70
 1005.86        2977.00           1583          50.00       189.63
 1005.89        2977.25           1586          52.00       198.34
 1005.92        2977.50           1590          57.00       220.14
 1005.95        2977.75           1593          50.00       189.63
 1005.98        2978.00           1596          45.00       167.83
 1006.01        2978.25           1600          49.00       185.27
 1006.04        2978.50           1603          49.00       185.27
 1006.08        2978.75           1606          46.00       172.19
 1006.11        2979.00           1610          48.00       180.91
 1006.14        2979.25           1613          49.00       185.27
 1006.17        2979.50           1616          53.00       202.70
 1006.21        2979.75           1620          57.00       220.14
 1006.25        2980.00           1623          48.00       180.91
 1006.28        2980.25           1626          55.00       211.42
 1006.31        2980.50           1630          57.00       220.14
 1006.34        2980.75           1633          52.00       198.34
 1006.37        2981.00           1637          59.00       228.86
 1006.40        2981.25           1640          46.00       172.19
 1006.43        2981.50           1643          49.00       185.27
 1006.46        2981.75           1647          49.00       185.27
 1006.49        2982.00           1650          46.00       172.19
 1006.52        2982.25           1653          51.00       193.99
 1006.56        2982.50           1657          50.00       189.63
 1006.59        2982.75           1660          50.00       189.63
 1006.62        2983.00           1663          41.00       150.39
 1006.65        2983.25           1667          52.00       198.34
 1006.68        2983.50           1670          47.00       176.55
 1006.71        2983.75           1673          51.00       193.99
 1006.74        2984.00           1677          52.00       198.34
HS scan finished at 16:46:58
end
