************************************************************
  HS Scan of (1) Internal mercury lamp
************************************************************
Integration time is 0.2294 seconds per sample
dh221217Manchester 53.47 2.23 2.804185pr1000
************************************************************
Dead Time -------------------------  3E-08 
Number of Cycles Used -------------  4 
Starting Wavelength (Angstroms) ---  2950 
Final Wavelength (Angstoms) -------  2984 
Wavelength Increment (Angstroms) --  .25 
Filter Wheel #1 Position ---------- (1) Ground quartz diffuser (ND=2.32)
Filter Wheel #2 Position ---------- (1) Neutral Density 0.494



************************************************************
HS scan start time = 05:23:39
Dark Count =  7.7 


Time (GMT)  Wavelength (Ang)  Step Number  Raw Counts  Counts/Second

  324.01        2950.00           1222          68.00       262.86
  324.08        2950.25           1226          62.00       236.71
  324.11        2950.50           1229          60.00       227.99
  324.14        2950.75           1232          59.00       223.63
  324.17        2951.00           1236          58.00       219.27
  324.21        2951.25           1239          59.00       223.63
  324.24        2951.50           1242          61.00       232.35
  324.27        2951.75           1246          62.00       236.71
  324.30        2952.00           1249          66.00       254.14
  324.33        2952.25           1252          62.00       236.71
  324.36        2952.50           1256          61.00       232.35
  324.39        2952.75           1259          66.00       254.14
  324.42        2953.00           1262          63.00       241.07
  324.45        2953.25           1266          62.00       236.71
  324.48        2953.50           1269          67.00       258.50
  324.51        2953.75           1272          58.00       219.27
  324.55        2954.00           1276          54.00       201.83
  324.58        2954.25           1279          65.00       249.78
  324.61        2954.50           1282          77.00       302.10
  324.64        2954.75           1286          56.00       210.55
  324.67        2955.00           1289          62.00       236.71
  324.70        2955.25           1292          67.00       258.50
  324.73        2955.50           1296          62.00       236.71
  324.76        2955.75           1299          60.00       227.99
  324.79        2956.00           1302          61.00       232.35
  324.82        2956.25           1306          68.00       262.86
  324.86        2956.50           1309          59.00       223.63
  324.89        2956.75           1312          58.00       219.27
  324.92        2957.00           1316          57.00       214.91
  324.95        2957.25           1319          64.00       245.42
  324.98        2957.50           1322          60.00       227.99
  325.01        2957.75           1326          57.00       214.91
  325.04        2958.00           1329          60.00       227.99
  325.07        2958.25           1332          60.00       227.99
  325.10        2958.50           1336          64.00       245.42
  325.13        2958.75           1339          64.00       245.42
  325.16        2959.00           1342          69.00       267.22
  325.19        2959.25           1346          68.00       262.86
  325.23        2959.50           1349          78.00       306.45
  325.26        2959.75           1352          93.00       371.84
  325.29        2960.00           1356         133.00       546.22
  325.32        2960.25           1359         153.00       633.40
  325.35        2960.50           1362         204.00       855.73
  325.38        2960.75           1366         254.00      1073.71
  325.41        2961.00           1369         287.00      1217.57
  325.44        2961.25           1372         330.00      1405.03
  325.47        2961.50           1376         365.00      1557.61
  325.50        2961.75           1379         473.00      2028.46
  325.54        2962.00           1382         736.00      3175.11
  325.57        2962.25           1386        2045.00      8883.36
  325.60        2962.50           1389        3462.00     15064.78
  325.63        2962.75           1392        5105.00     22234.97
  325.66        2963.00           1396        7030.00     30639.75
  325.69        2963.25           1399        8592.00     37462.74
  325.72        2963.50           1402        9997.00     43602.33
  325.75        2963.75           1406       11996.00     52341.50
  325.78        2964.00           1409       13573.00     59239.01
  325.81        2964.25           1412       15019.00     65566.06
  325.85        2964.50           1416       17213.00     75170.65
  325.88        2964.75           1419       18840.00     82296.66
  325.91        2965.00           1422       20320.00     88781.49
  325.94        2965.25           1426       22507.00     98368.78
  325.97        2965.50           1429       24030.00    105048.50
  326.00        2965.75           1432       25508.00    111533.40
  326.03        2966.00           1436       27441.00    120018.50
  326.06        2966.25           1439       28832.00    126127.20
  326.09        2966.50           1442       30333.00    132721.40
  326.12        2966.75           1446       32077.00    140386.40
  326.16        2967.00           1449       32884.00    143934.50
  326.19        2967.25           1452       33407.00    146234.30
  326.22        2967.50           1456       33284.00    145693.40
  326.25        2967.75           1459       33475.00    146533.30
  326.28        2968.00           1462       33273.00    145645.00
  326.31        2968.25           1466       32631.00    142822.10
  326.34        2968.50           1469       31747.00    138935.80
  326.37        2968.75           1472       29946.00    131021.00
  326.40        2969.00           1476       28245.00    123549.10
  326.44        2969.25           1479       26650.00    116545.80
  326.47        2969.50           1482       25390.00    111015.60
  326.50        2969.75           1486       23320.00    101934.20
  326.53        2970.00           1489       21942.00     95891.42
  326.56        2970.25           1492       20348.00     88904.19
  326.59        2970.50           1496       18135.00     79208.49
  326.62        2970.75           1499       16694.00     72898.13
  326.65        2971.00           1502       15070.00     65789.27
  326.68        2971.25           1506       12993.00     56701.87
  326.71        2971.50           1509       11428.00     49857.87
  326.74        2971.75           1513        9516.00     41500.20
  326.77        2972.00           1516        8143.00     35501.17
  326.81        2972.25           1519        6453.00     28120.05
  326.84        2972.50           1523        4609.00     20070.06
  326.87        2972.75           1526        3172.00     13799.52
  326.90        2973.00           1529        1635.00      7095.23
  326.93        2973.25           1533         543.00      2333.64
  326.96        2973.50           1536         356.00      1518.38
  326.99        2973.75           1539         273.00      1156.54
  327.02        2974.00           1543         224.00       942.92
  327.05        2974.25           1546         179.00       746.75
  327.08        2974.50           1549         127.00       520.06
  327.12        2974.75           1553          97.00       389.28
  327.15        2975.00           1556          73.00       284.66
  327.18        2975.25           1559          64.00       245.42
  327.21        2975.50           1563          63.00       241.07
  327.24        2975.75           1566          60.00       227.99
  327.27        2976.00           1569          64.00       245.42
  327.30        2976.25           1573          62.00       236.71
  327.33        2976.50           1576          59.00       223.63
  327.36        2976.75           1579          59.00       223.63
  327.39        2977.00           1583          63.00       241.07
  327.43        2977.25           1586          59.00       223.63
  327.46        2977.50           1590          58.00       219.27
  327.49        2977.75           1593          63.00       241.07
  327.52        2978.00           1596          68.00       262.86
  327.55        2978.25           1600          59.00       223.63
  327.58        2978.50           1603          59.00       223.63
  327.61        2978.75           1606          67.00       258.50
  327.64        2979.00           1610          58.00       219.27
  327.67        2979.25           1613          53.00       197.47
  327.70        2979.50           1616          61.00       232.35
  327.73        2979.75           1620          61.00       232.35
  327.76        2980.00           1623          66.00       254.14
  327.79        2980.25           1626          59.00       223.63
  327.82        2980.50           1630          57.00       214.91
  327.86        2980.75           1633          53.00       197.47
  327.89        2981.00           1637          61.00       232.35
  327.92        2981.25           1640          64.00       245.42
  327.95        2981.50           1643          55.00       206.19
  327.98        2981.75           1647          53.00       197.47
  328.01        2982.00           1650          57.00       214.91
  328.04        2982.25           1653          60.00       227.99
  328.07        2982.50           1657          61.00       232.35
  328.10        2982.75           1660          63.00       241.07
  328.13        2983.00           1663          60.00       227.99
  328.16        2983.25           1667          62.00       236.71
  328.20        2983.50           1670          55.00       206.19
  328.23        2983.75           1673          57.00       214.91
  328.26        2984.00           1677          52.00       193.11
HS scan finished at 05:28:28
end
************************************************************
  HS Scan of (1) Internal mercury lamp
************************************************************
Integration time is 0.2294 seconds per sample
dh221217Manchester 53.47 2.23 2.804185pr1000
************************************************************
Dead Time -------------------------  3E-08 
Number of Cycles Used -------------  4 
Starting Wavelength (Angstroms) ---  2950 
Final Wavelength (Angstoms) -------  2984 
Wavelength Increment (Angstroms) --  .25 
Filter Wheel #1 Position ---------- (1) Ground quartz diffuser (ND=2.32)
Filter Wheel #2 Position ---------- (1) Neutral Density 0.494



************************************************************
HS scan start time = 16:42:02
Dark Count =  6.2 


Time (GMT)  Wavelength (Ang)  Step Number  Raw Counts  Counts/Second

 1002.41        2950.00           1222          63.00       247.60
 1002.47        2950.25           1226          66.00       260.68
 1002.50        2950.50           1229          54.00       208.37
 1002.53        2950.75           1232          60.00       234.53
 1002.57        2951.00           1236          59.00       230.17
 1002.60        2951.25           1239          65.00       256.32
 1002.63        2951.50           1242          70.00       278.12
 1002.66        2951.75           1246          61.00       238.89
 1002.69        2952.00           1249          69.00       273.76
 1002.72        2952.25           1252          65.00       256.32
 1002.75        2952.50           1256          67.00       265.04
 1002.78        2952.75           1259          65.00       256.32
 1002.81        2953.00           1262          53.00       204.01
 1002.84        2953.25           1266          65.00       256.32
 1002.87        2953.50           1269          66.00       260.68
 1002.90        2953.75           1272          59.00       230.17
 1002.93        2954.00           1276          64.00       251.96
 1002.97        2954.25           1279          66.00       260.68
 1003.00        2954.50           1282          59.00       230.17
 1003.03        2954.75           1286          64.00       251.96
 1003.06        2955.00           1289          65.00       256.32
 1003.09        2955.25           1292          64.00       251.96
 1003.12        2955.50           1296          60.00       234.53
 1003.15        2955.75           1299          56.00       217.09
 1003.18        2956.00           1302          62.00       243.25
 1003.21        2956.25           1306          64.00       251.96
 1003.24        2956.50           1309          66.00       260.68
 1003.27        2956.75           1312          63.00       247.60
 1003.30        2957.00           1316          60.00       234.53
 1003.33        2957.25           1319          61.00       238.89
 1003.37        2957.50           1322          61.00       238.89
 1003.40        2957.75           1326          65.00       256.32
 1003.43        2958.00           1329          55.00       212.73
 1003.46        2958.25           1332          62.00       243.25
 1003.49        2958.50           1336          60.00       234.53
 1003.52        2958.75           1339          64.00       251.96
 1003.55        2959.00           1342          62.00       243.25
 1003.58        2959.25           1346          64.00       251.96
 1003.61        2959.50           1349          79.00       317.35
 1003.64        2959.75           1352          88.00       356.59
 1003.67        2960.00           1356         112.00       461.21
 1003.70        2960.25           1359         139.00       578.91
 1003.74        2960.50           1362         175.00       735.85
 1003.77        2960.75           1366         254.00      1080.24
 1003.80        2961.00           1369         288.00      1228.47
 1003.83        2961.25           1372         321.00      1372.33
 1003.86        2961.50           1376         373.00      1599.03
 1003.89        2961.75           1379         475.00      2043.72
 1003.92        2962.00           1382         872.00      3774.62
 1003.95        2962.25           1386        2217.00      9640.10
 1003.98        2962.50           1389        3585.00     15608.01
 1004.01        2962.75           1392        5047.00     21988.34
 1004.04        2963.00           1396        7081.00     30869.03
 1004.08        2963.25           1399        8704.00     37958.63
 1004.11        2963.50           1402       10287.00     44876.42
 1004.14        2963.75           1406       12206.00     53266.40
 1004.17        2964.00           1409       13700.00     59801.17
 1004.20        2964.25           1412       15281.00     66719.28
 1004.23        2964.50           1416       17314.00     75619.49
 1004.26        2964.75           1419       18758.00     81944.01
 1004.29        2965.00           1422       20368.00     88998.43
 1004.32        2965.25           1426       22564.00     98625.31
 1004.35        2965.50           1429       23974.00    104809.40
 1004.38        2965.75           1432       25673.00    112264.10
 1004.42        2966.00           1436       27737.00    121324.90
 1004.45        2966.25           1439       29066.00    127161.60
 1004.48        2966.50           1442       30412.00    133075.10
 1004.51        2966.75           1446       32160.00    140757.90
 1004.54        2967.00           1449       32703.00    143145.20
 1004.57        2967.25           1452       32831.00    143708.00
 1004.60        2967.50           1456       32852.00    143800.40
 1004.63        2967.75           1459       32867.00    143866.30
 1004.66        2968.00           1462       32867.00    143866.30
 1004.69        2968.25           1466       32101.00    140498.50
 1004.72        2968.50           1469       31216.00    136608.40
 1004.76        2968.75           1472       29627.00    129626.10
 1004.79        2969.00           1476       27486.00    120222.70
 1004.82        2969.25           1479       26362.00    115288.20
 1004.85        2969.50           1482       24542.00    107301.30
 1004.88        2969.75           1486       22499.00     98340.28
 1004.91        2970.00           1489       21154.00     92443.47
 1004.94        2970.25           1492       19624.00     85738.12
 1004.97        2970.50           1496       17807.00     77778.49
 1005.00        2970.75           1499       16231.00     70877.66
 1005.03        2971.00           1502       14832.00     64754.27
 1005.06        2971.25           1506       12889.00     56253.53
 1005.10        2971.50           1509       11420.00     49829.44
 1005.13        2971.75           1513        9371.00     40873.10
 1005.16        2972.00           1516        7784.00     33939.51
 1005.19        2972.25           1519        6313.00     27515.29
 1005.22        2972.50           1523        4224.00     18396.38
 1005.25        2972.75           1526        2766.00     12034.86
 1005.28        2973.00           1529        1487.00      6456.35
 1005.31        2973.25           1533         515.00      2218.11
 1005.34        2973.50           1536         321.00      1372.33
 1005.37        2973.75           1539         272.00      1158.72
 1005.41        2974.00           1543         203.00       857.91
 1005.44        2974.25           1546         143.00       596.35
 1005.47        2974.50           1549         119.00       491.72
 1005.50        2974.75           1553          84.00       339.15
 1005.53        2975.00           1556          67.00       265.04
 1005.56        2975.25           1559          60.00       234.53
 1005.59        2975.50           1563          62.00       243.25
 1005.62        2975.75           1566          62.00       243.25
 1005.65        2976.00           1569          64.00       251.96
 1005.68        2976.25           1573          63.00       247.60
 1005.71        2976.50           1576          57.00       221.45
 1005.75        2976.75           1579          64.00       251.96
 1005.78        2977.00           1583          59.00       230.17
 1005.81        2977.25           1586          56.00       217.09
 1005.84        2977.50           1590          58.00       225.81
 1005.87        2977.75           1593          55.00       212.73
 1005.90        2978.00           1596          63.00       247.60
 1005.93        2978.25           1600          59.00       230.17
 1005.96        2978.50           1603          58.00       225.81
 1005.99        2978.75           1606          62.00       243.25
 1006.02        2979.00           1610          67.00       265.04
 1006.05        2979.25           1613          60.00       234.53
 1006.08        2979.50           1616          57.00       221.45
 1006.11        2979.75           1620          53.00       204.01
 1006.14        2980.00           1623          54.00       208.37
 1006.18        2980.25           1626          56.00       217.09
 1006.21        2980.50           1630          62.00       243.25
 1006.24        2980.75           1633          55.00       212.73
 1006.27        2981.00           1637          59.00       230.17
 1006.30        2981.25           1640          56.00       217.09
 1006.33        2981.50           1643          54.00       208.37
 1006.36        2981.75           1647          68.00       269.40
 1006.39        2982.00           1650          55.00       212.73
 1006.42        2982.25           1653          59.00       230.17
 1006.45        2982.50           1657          56.00       217.09
 1006.49        2982.75           1660          55.00       212.73
 1006.52        2983.00           1663          61.00       238.89
 1006.55        2983.25           1667          63.00       247.60
 1006.58        2983.50           1670          60.00       234.53
 1006.61        2983.75           1673          68.00       269.40
 1006.64        2984.00           1677          61.00       238.89
HS scan finished at 16:46:51
end
