************************************************************
  HS Scan of (1) Internal mercury lamp
************************************************************
Integration time is 0.2294 seconds per sample
dh191217Manchester 53.47 2.23 2.804185pr1000
************************************************************
Dead Time -------------------------  3E-08 
Number of Cycles Used -------------  4 
Starting Wavelength (Angstroms) ---  2950 
Final Wavelength (Angstoms) -------  2984 
Wavelength Increment (Angstroms) --  .25 
Filter Wheel #1 Position ---------- (1) Ground quartz diffuser (ND=2.32)
Filter Wheel #2 Position ---------- (1) Neutral Density 0.494



************************************************************
HS scan start time = 05:22:07
Dark Count =  5.6 


Time (GMT)  Wavelength (Ang)  Step Number  Raw Counts  Counts/Second

  322.48        2950.00           1222          58.00       228.42
  322.55        2950.25           1226          61.00       241.50
  322.58        2950.50           1229          62.00       245.86
  322.61        2950.75           1232          55.00       215.35
  322.64        2951.00           1236          64.00       254.58
  322.67        2951.25           1239          65.00       258.94
  322.71        2951.50           1242          70.00       280.73
  322.74        2951.75           1246          61.00       241.50
  322.77        2952.00           1249          61.00       241.50
  322.80        2952.25           1252          64.00       254.58
  322.83        2952.50           1256          62.00       245.86
  322.86        2952.75           1259          60.00       237.14
  322.89        2953.00           1262          70.00       280.73
  322.92        2953.25           1266          57.00       224.06
  322.95        2953.50           1269          54.00       210.99
  322.98        2953.75           1272          55.00       215.35
  323.01        2954.00           1276          62.00       245.86
  323.04        2954.25           1279          66.00       263.30
  323.07        2954.50           1282          62.00       245.86
  323.11        2954.75           1286          62.00       245.86
  323.14        2955.00           1289          65.00       258.94
  323.17        2955.25           1292          64.00       254.58
  323.20        2955.50           1296          56.00       219.71
  323.23        2955.75           1299          66.00       263.30
  323.26        2956.00           1302          60.00       237.14
  323.29        2956.25           1306          65.00       258.94
  323.32        2956.50           1309          61.00       241.50
  323.35        2956.75           1312          60.00       237.14
  323.38        2957.00           1316          62.00       245.86
  323.41        2957.25           1319          61.00       241.50
  323.44        2957.50           1322          63.00       250.22
  323.47        2957.75           1326          71.00       285.09
  323.51        2958.00           1329          69.00       276.38
  323.54        2958.25           1332          61.00       241.50
  323.57        2958.50           1336          65.00       258.94
  323.60        2958.75           1339          68.00       272.02
  323.63        2959.00           1342          66.00       263.30
  323.66        2959.25           1346          70.00       280.73
  323.69        2959.50           1349          85.00       346.12
  323.72        2959.75           1352          93.00       381.00
  323.75        2960.00           1356         134.00       559.73
  323.78        2960.25           1359         154.00       646.92
  323.81        2960.50           1362         199.00       843.09
  323.85        2960.75           1366         239.00      1017.47
  323.88        2961.00           1369         295.00      1261.60
  323.91        2961.25           1372         343.00      1470.86
  323.94        2961.50           1376         414.00      1780.39
  323.97        2961.75           1379         547.00      2360.24
  324.00        2962.00           1382        1145.00      4967.61
  324.03        2962.25           1386        2759.00     12006.94
  324.06        2962.50           1389        4381.00     19084.16
  324.09        2962.75           1392        5858.00     25531.32
  324.12        2963.00           1396        7776.00     33907.18
  324.16        2963.25           1399        9403.00     41015.56
  324.19        2963.50           1402       10966.00     47847.19
  324.22        2963.75           1406       13163.00     57454.66
  324.25        2964.00           1409       14576.00     63636.64
  324.28        2964.25           1412       16189.00     70696.43
  324.31        2964.50           1416       18299.00     79936.03
  324.34        2964.75           1419       19862.00     86783.62
  324.37        2965.00           1422       21465.00     93809.41
  324.40        2965.25           1426       23449.00    102509.20
  324.43        2965.50           1429       25042.00    109497.70
  324.46        2965.75           1432       26380.00    115369.90
  324.49        2966.00           1436       28516.00    124748.50
  324.52        2966.25           1439       29808.00    130423.90
  324.56        2966.50           1442       31074.00    135987.00
  324.59        2966.75           1446       32645.00    142892.90
  324.62        2967.00           1449       33040.00    144629.70
  324.65        2967.25           1452       33228.00    145456.40
  324.68        2967.50           1456       33024.00    144559.30
  324.71        2967.75           1459       33051.00    144678.00
  324.74        2968.00           1462       32846.00    143776.60
  324.77        2968.25           1466       31981.00    139973.70
  324.80        2968.50           1469       30605.00    133925.90
  324.83        2968.75           1472       29056.00    127120.30
  324.86        2969.00           1476       27092.00    118495.50
  324.90        2969.25           1479       25459.00    111327.60
  324.93        2969.50           1482       23935.00    104641.00
  324.96        2969.75           1486       22161.00     96860.83
  324.99        2970.00           1489       20765.00     90741.02
  325.02        2970.25           1492       19318.00     84400.01
  325.05        2970.50           1496       17372.00     75876.10
  325.08        2970.75           1499       15740.00     68730.95
  325.11        2971.00           1502       14188.00     61938.88
  325.14        2971.25           1506       11985.00     52302.58
  325.18        2971.50           1509       10406.00     45399.20
  325.21        2971.75           1513        8375.00     36523.88
  325.24        2972.00           1516        6936.00     30238.41
  325.27        2972.25           1519        5438.00     23697.75
  325.30        2972.50           1523        3574.00     15562.63
  325.33        2972.75           1526        2280.00      9917.51
  325.36        2973.00           1529         981.00      4252.50
  325.39        2973.25           1533         414.00      1780.39
  325.42        2973.50           1536         310.00      1326.99
  325.45        2973.75           1539         258.00      1100.30
  325.49        2974.00           1543         216.00       917.20
  325.52        2974.25           1546         155.00       651.28
  325.55        2974.50           1549         126.00       524.86
  325.58        2974.75           1553          91.00       372.28
  325.61        2975.00           1556          76.00       306.89
  325.64        2975.25           1559          65.00       258.94
  325.67        2975.50           1563          61.00       241.50
  325.70        2975.75           1566          57.00       224.06
  325.73        2976.00           1569          57.00       224.06
  325.76        2976.25           1573          55.00       215.35
  325.79        2976.50           1576          56.00       219.71
  325.83        2976.75           1579          61.00       241.50
  325.86        2977.00           1583          63.00       250.22
  325.89        2977.25           1586          69.00       276.38
  325.92        2977.50           1590          62.00       245.86
  325.95        2977.75           1593          65.00       258.94
  325.98        2978.00           1596          57.00       224.06
  326.01        2978.25           1600          58.00       228.42
  326.04        2978.50           1603          56.00       219.71
  326.07        2978.75           1606          54.00       210.99
  326.10        2979.00           1610          59.00       232.78
  326.13        2979.25           1613          61.00       241.50
  326.17        2979.50           1616          68.00       272.02
  326.20        2979.75           1620          53.00       206.63
  326.23        2980.00           1623          58.00       228.42
  326.26        2980.25           1626          58.00       228.42
  326.29        2980.50           1630          58.00       228.42
  326.32        2980.75           1633          49.00       189.19
  326.35        2981.00           1637          55.00       215.35
  326.38        2981.25           1640          66.00       263.30
  326.41        2981.50           1643          57.00       224.06
  326.44        2981.75           1647          57.00       224.06
  326.47        2982.00           1650          58.00       228.42
  326.50        2982.25           1653          58.00       228.42
  326.53        2982.50           1657          55.00       215.35
  326.56        2982.75           1660          56.00       219.71
  326.60        2983.00           1663          57.00       224.06
  326.63        2983.25           1667          54.00       210.99
  326.66        2983.50           1670          60.00       237.14
  326.69        2983.75           1673          59.00       232.78
  326.72        2984.00           1677          52.00       202.27
HS scan finished at 05:26:56
end
************************************************************
  HS Scan of (1) Internal mercury lamp
************************************************************
Integration time is 0.2294 seconds per sample
dh191217Manchester 53.47 2.23 2.804185pr1000
************************************************************
Dead Time -------------------------  3E-08 
Number of Cycles Used -------------  4 
Starting Wavelength (Angstroms) ---  2950 
Final Wavelength (Angstoms) -------  2984 
Wavelength Increment (Angstroms) --  .25 
Filter Wheel #1 Position ---------- (1) Ground quartz diffuser (ND=2.32)
Filter Wheel #2 Position ---------- (1) Neutral Density 0.494



************************************************************
HS scan start time = 16:42:03
Dark Count =  5.9 


Time (GMT)  Wavelength (Ang)  Step Number  Raw Counts  Counts/Second

 1002.43        2950.00           1222          58.00       227.12
 1002.49        2950.25           1226          64.00       253.27
 1002.52        2950.50           1229          67.00       266.35
 1002.56        2950.75           1232          59.00       231.48
 1002.59        2951.00           1236          67.00       266.35
 1002.62        2951.25           1239          69.00       275.07
 1002.65        2951.50           1242          66.00       261.99
 1002.68        2951.75           1246          61.00       240.19
 1002.71        2952.00           1249          60.00       235.83
 1002.74        2952.25           1252          65.00       257.63
 1002.77        2952.50           1256          65.00       257.63
 1002.80        2952.75           1259          69.00       275.07
 1002.83        2953.00           1262          69.00       275.07
 1002.86        2953.25           1266          52.00       200.96
 1002.90        2953.50           1269          61.00       240.19
 1002.93        2953.75           1272          59.00       231.48
 1002.96        2954.00           1276          65.00       257.63
 1002.99        2954.25           1279          60.00       235.83
 1003.02        2954.50           1282          55.00       214.04
 1003.05        2954.75           1286          75.00       301.22
 1003.08        2955.00           1289          62.00       244.55
 1003.11        2955.25           1292          63.00       248.91
 1003.14        2955.50           1296          63.00       248.91
 1003.17        2955.75           1299          60.00       235.83
 1003.20        2956.00           1302          71.00       283.79
 1003.23        2956.25           1306          62.00       244.55
 1003.26        2956.50           1309          65.00       257.63
 1003.30        2956.75           1312          56.00       218.40
 1003.33        2957.00           1316          62.00       244.55
 1003.36        2957.25           1319          70.00       279.43
 1003.39        2957.50           1322          63.00       248.91
 1003.42        2957.75           1326          65.00       257.63
 1003.45        2958.00           1329          64.00       253.27
 1003.48        2958.25           1332          59.00       231.48
 1003.51        2958.50           1336          66.00       261.99
 1003.54        2958.75           1339          58.00       227.12
 1003.57        2959.00           1342          58.00       227.12
 1003.60        2959.25           1346          67.00       266.35
 1003.63        2959.50           1349          72.00       288.15
 1003.67        2959.75           1352          82.00       331.74
 1003.70        2960.00           1356         114.00       471.24
 1003.73        2960.25           1359         143.00       597.66
 1003.76        2960.50           1362         170.00       715.36
 1003.79        2960.75           1366         228.00       968.21
 1003.82        2961.00           1369         273.00      1164.38
 1003.85        2961.25           1372         316.00      1351.84
 1003.88        2961.50           1376         383.00      1643.93
 1003.91        2961.75           1379         549.00      2367.65
 1003.94        2962.00           1382        1197.00      5193.05
 1003.98        2962.25           1386        2832.00     12324.09
 1004.01        2962.50           1389        4295.00     18707.53
 1004.04        2962.75           1392        5749.00     25054.13
 1004.07        2963.00           1396        7523.00     32800.79
 1004.10        2963.25           1399        9065.00     39537.28
 1004.13        2963.50           1402       10663.00     46521.29
 1004.16        2963.75           1406       12670.00     55296.97
 1004.19        2964.00           1409       14296.00     62410.12
 1004.22        2964.25           1412       16085.00     70239.83
 1004.26        2964.50           1416       18174.00     79387.19
 1004.29        2964.75           1419       19700.00     86072.44
 1004.32        2965.00           1422       21254.00     92883.12
 1004.35        2965.25           1426       23348.00    102064.90
 1004.38        2965.50           1429       24845.00    108632.00
 1004.41        2965.75           1432       26415.00    115522.20
 1004.44        2966.00           1436       28375.00    124127.90
 1004.47        2966.25           1439       29556.00    129315.40
 1004.50        2966.50           1442       30913.00    135278.10
 1004.53        2966.75           1446       32550.00    142473.80
 1004.56        2967.00           1449       33118.00    144971.40
 1004.60        2967.25           1452       32902.00    144021.60
 1004.63        2967.50           1456       32939.00    144184.20
 1004.66        2967.75           1459       33033.00    144597.60
 1004.69        2968.00           1462       32803.00    143586.30
 1004.72        2968.25           1466       31836.00    139334.90
 1004.75        2968.50           1469       30605.00    133924.50
 1004.78        2968.75           1472       29122.00    127408.90
 1004.81        2969.00           1476       27135.00    118682.90
 1004.84        2969.25           1479       25640.00    112120.60
 1004.87        2969.50           1482       24236.00    105960.10
 1004.91        2969.75           1486       22289.00     97420.76
 1004.94        2970.00           1489       20685.00     90389.06
 1004.97        2970.25           1492       19152.00     83671.41
 1005.00        2970.50           1496       17223.00     75222.31
 1005.03        2970.75           1499       15600.00     68116.82
 1005.06        2971.00           1502       14074.00     61438.77
 1005.09        2971.25           1506       12083.00     52729.82
 1005.12        2971.50           1509       10500.00     45808.77
 1005.15        2971.75           1513        8481.00     36985.65
 1005.19        2972.00           1516        7161.00     31219.72
 1005.22        2972.25           1519        5708.00     24875.14
 1005.25        2972.50           1523        3751.00     16333.64
 1005.28        2972.75           1526        2346.00     10204.08
 1005.31        2973.00           1529        1006.00      4360.20
 1005.34        2973.25           1533         419.00      1800.88
 1005.37        2973.50           1536         329.00      1408.52
 1005.40        2973.75           1539         256.00      1090.27
 1005.43        2974.00           1543         225.00       955.13
 1005.46        2974.25           1546         163.00       684.84
 1005.49        2974.50           1549         125.00       519.19
 1005.52        2974.75           1553          96.00       392.77
 1005.55        2975.00           1556          78.00       314.30
 1005.59        2975.25           1559          65.00       257.63
 1005.62        2975.50           1563          58.00       227.12
 1005.65        2975.75           1566          58.00       227.12
 1005.68        2976.00           1569          64.00       253.27
 1005.71        2976.25           1573          61.00       240.19
 1005.74        2976.50           1576          61.00       240.19
 1005.77        2976.75           1579          62.00       244.55
 1005.80        2977.00           1583          56.00       218.40
 1005.83        2977.25           1586          58.00       227.12
 1005.86        2977.50           1590          54.00       209.68
 1005.89        2977.75           1593          51.00       196.60
 1005.92        2978.00           1596          54.00       209.68
 1005.95        2978.25           1600          54.00       209.68
 1005.98        2978.50           1603          59.00       231.48
 1006.01        2978.75           1606          53.00       205.32
 1006.05        2979.00           1610          68.00       270.71
 1006.08        2979.25           1613          66.00       261.99
 1006.11        2979.50           1616          58.00       227.12
 1006.14        2979.75           1620          53.00       205.32
 1006.17        2980.00           1623          62.00       244.55
 1006.20        2980.25           1626          63.00       248.91
 1006.23        2980.50           1630          55.00       214.04
 1006.26        2980.75           1633          57.00       222.76
 1006.29        2981.00           1637          58.00       227.12
 1006.32        2981.25           1640          70.00       279.43
 1006.35        2981.50           1643          64.00       253.27
 1006.38        2981.75           1647          59.00       231.48
 1006.41        2982.00           1650          57.00       222.76
 1006.44        2982.25           1653          52.00       200.96
 1006.48        2982.50           1657          55.00       214.04
 1006.51        2982.75           1660          53.00       205.32
 1006.54        2983.00           1663          58.00       227.12
 1006.57        2983.25           1667          65.00       257.63
 1006.60        2983.50           1670          46.00       174.80
 1006.63        2983.75           1673          53.00       205.32
 1006.66        2984.00           1677          65.00       257.63
HS scan finished at 16:46:53
end
