************************************************************
  HS Scan of (1) Internal mercury lamp
************************************************************
Integration time is 0.2294 seconds per sample
dh201217Manchester 53.47 2.23 2.804185pr1000
************************************************************
Dead Time -------------------------  3E-08 
Number of Cycles Used -------------  4 
Starting Wavelength (Angstroms) ---  2950 
Final Wavelength (Angstoms) -------  2984 
Wavelength Increment (Angstroms) --  .25 
Filter Wheel #1 Position ---------- (1) Ground quartz diffuser (ND=2.32)
Filter Wheel #2 Position ---------- (1) Neutral Density 0.494



************************************************************
HS scan start time = 05:22:38
Dark Count =  5.3 


Time (GMT)  Wavelength (Ang)  Step Number  Raw Counts  Counts/Second

  323.01        2950.00           1222          60.00       238.45
  323.07        2950.25           1226          61.00       242.81
  323.10        2950.50           1229          70.00       282.04
  323.13        2950.75           1232          59.00       234.09
  323.17        2951.00           1236          62.00       247.17
  323.20        2951.25           1239          60.00       238.45
  323.23        2951.50           1242          59.00       234.09
  323.26        2951.75           1246          58.00       229.73
  323.29        2952.00           1249          65.00       260.25
  323.32        2952.25           1252          65.00       260.25
  323.35        2952.50           1256          61.00       242.81
  323.38        2952.75           1259          61.00       242.81
  323.41        2953.00           1262          62.00       247.17
  323.44        2953.25           1266          66.00       264.61
  323.47        2953.50           1269          59.00       234.09
  323.50        2953.75           1272          61.00       242.81
  323.53        2954.00           1276          61.00       242.81
  323.56        2954.25           1279          63.00       251.53
  323.59        2954.50           1282          62.00       247.17
  323.62        2954.75           1286          68.00       273.32
  323.65        2955.00           1289          65.00       260.25
  323.69        2955.25           1292          65.00       260.25
  323.72        2955.50           1296          66.00       264.61
  323.75        2955.75           1299          64.00       255.89
  323.78        2956.00           1302          64.00       255.89
  323.81        2956.25           1306          58.00       229.73
  323.84        2956.50           1309          61.00       242.81
  323.87        2956.75           1312          65.00       260.25
  323.90        2957.00           1316          72.00       290.76
  323.93        2957.25           1319          55.00       216.65
  323.96        2957.50           1322          64.00       255.89
  323.99        2957.75           1326          62.00       247.17
  324.02        2958.00           1329          51.00       199.22
  324.05        2958.25           1332          58.00       229.73
  324.09        2958.50           1336          60.00       238.45
  324.12        2958.75           1339          59.00       234.09
  324.15        2959.00           1342          63.00       251.53
  324.18        2959.25           1346          61.00       242.81
  324.21        2959.50           1349          67.00       268.96
  324.24        2959.75           1352          76.00       308.20
  324.27        2960.00           1356         104.00       430.26
  324.30        2960.25           1359         132.00       552.32
  324.33        2960.50           1362         156.00       656.94
  324.36        2960.75           1366         213.00       905.43
  324.39        2961.00           1369         254.00      1084.17
  324.42        2961.25           1372         274.00      1171.36
  324.46        2961.50           1376         350.00      1502.68
  324.49        2961.75           1379         427.00      1838.38
  324.52        2962.00           1382         784.00      3394.85
  324.55        2962.25           1386        2196.00      9552.43
  324.58        2962.50           1389        3661.00     15943.54
  324.61        2962.75           1392        5043.00     21974.82
  324.64        2963.00           1396        7026.00     30632.76
  324.67        2963.25           1399        8504.00     37088.76
  324.70        2963.50           1402       10095.00     44041.15
  324.73        2963.75           1406       12329.00     53808.24
  324.76        2964.00           1409       13940.00     60855.12
  324.80        2964.25           1412       15563.00     67957.50
  324.83        2964.50           1416       17763.00     77589.73
  324.86        2964.75           1419       19305.00     84344.36
  324.89        2965.00           1422       20812.00     90948.33
  324.92        2965.25           1426       22835.00     99817.64
  324.95        2965.50           1429       24271.00    106116.30
  324.98        2965.75           1432       25843.00    113014.20
  325.01        2966.00           1436       27710.00    121210.20
  325.04        2966.25           1439       29349.00    128408.70
  325.07        2966.50           1442       30993.00    135632.30
  325.10        2966.75           1446       32584.00    142626.00
  325.14        2967.00           1449       33109.00    144934.40
  325.17        2967.25           1452       33114.00    144956.40
  325.20        2967.50           1456       33100.00    144894.80
  325.23        2967.75           1459       33191.00    145295.00
  325.26        2968.00           1462       33157.00    145145.50
  325.29        2968.25           1466       32463.00    142094.00
  325.32        2968.50           1469       31536.00    138018.90
  325.35        2968.75           1472       30001.00    131273.20
  325.38        2969.00           1476       28087.00    122865.70
  325.42        2969.25           1479       26730.00    116907.60
  325.45        2969.50           1482       25039.00    109485.90
  325.48        2969.75           1486       23169.00    101282.40
  325.51        2970.00           1489       21601.00     94406.93
  325.54        2970.25           1492       19936.00     87109.21
  325.57        2970.50           1496       17837.00     77913.81
  325.60        2970.75           1499       16360.00     71446.35
  325.63        2971.00           1502       14916.00     65125.81
  325.66        2971.25           1506       12907.00     56336.20
  325.70        2971.50           1509       11357.00     49557.94
  325.73        2971.75           1513        9480.00     41353.36
  325.76        2972.00           1516        7931.00     34585.56
  325.79        2972.25           1519        6431.00     28034.47
  325.82        2972.50           1523        4422.00     19264.40
  325.85        2972.75           1526        2846.00     12387.78
  325.88        2973.00           1529        1578.00      6857.12
  325.91        2973.25           1533         541.00      2335.39
  325.94        2973.50           1536         366.00      1572.44
  325.97        2973.75           1539         325.00      1393.69
  326.01        2974.00           1543         257.00      1097.25
  326.04        2974.25           1546         193.00       818.24
  326.07        2974.50           1549         156.00       656.94
  326.10        2974.75           1553         121.00       504.37
  326.13        2975.00           1556          88.00       360.51
  326.16        2975.25           1559          77.00       312.56
  326.19        2975.50           1563          62.00       247.17
  326.22        2975.75           1566          64.00       255.89
  326.25        2976.00           1569          69.00       277.68
  326.28        2976.25           1573          55.00       216.65
  326.31        2976.50           1576          69.00       277.68
  326.34        2976.75           1579          63.00       251.53
  326.37        2977.00           1583          55.00       216.65
  326.40        2977.25           1586          60.00       238.45
  326.44        2977.50           1590          57.00       225.37
  326.47        2977.75           1593          68.00       273.32
  326.50        2978.00           1596          58.00       229.73
  326.53        2978.25           1600          52.00       203.58
  326.56        2978.50           1603          54.00       212.29
  326.59        2978.75           1606          56.00       221.01
  326.62        2979.00           1610          59.00       234.09
  326.65        2979.25           1613          54.00       212.29
  326.68        2979.50           1616          61.00       242.81
  326.71        2979.75           1620          54.00       212.29
  326.74        2980.00           1623          58.00       229.73
  326.78        2980.25           1626          58.00       229.73
  326.81        2980.50           1630          58.00       229.73
  326.84        2980.75           1633          54.00       212.29
  326.87        2981.00           1637          56.00       221.01
  326.90        2981.25           1640          59.00       234.09
  326.93        2981.50           1643          59.00       234.09
  326.96        2981.75           1647          62.00       247.17
  326.99        2982.00           1650          61.00       242.81
  327.02        2982.25           1653          56.00       221.01
  327.05        2982.50           1657          67.00       268.96
  327.08        2982.75           1660          55.00       216.65
  327.11        2983.00           1663          57.00       225.37
  327.14        2983.25           1667          51.00       199.22
  327.17        2983.50           1670          53.00       207.94
  327.20        2983.75           1673          64.00       255.89
  327.23        2984.00           1677          58.00       229.73
HS scan finished at 05:27:27
end
************************************************************
  HS Scan of (1) Internal mercury lamp
************************************************************
Integration time is 0.2294 seconds per sample
dh201217Manchester 53.47 2.23 2.804185pr1000
************************************************************
Dead Time -------------------------  3E-08 
Number of Cycles Used -------------  4 
Starting Wavelength (Angstroms) ---  2950 
Final Wavelength (Angstoms) -------  2984 
Wavelength Increment (Angstroms) --  .25 
Filter Wheel #1 Position ---------- (1) Ground quartz diffuser (ND=2.32)
Filter Wheel #2 Position ---------- (1) Neutral Density 0.494



************************************************************
HS scan start time = 16:42:04
Dark Count =  6.3 


Time (GMT)  Wavelength (Ang)  Step Number  Raw Counts  Counts/Second

 1002.44        2950.00           1222          65.00       255.89
 1002.51        2950.25           1226          61.00       238.45
 1002.54        2950.50           1229          71.00       282.04
 1002.57        2950.75           1232          65.00       255.89
 1002.60        2951.00           1236          65.00       255.89
 1002.63        2951.25           1239          71.00       282.04
 1002.66        2951.50           1242          64.00       251.53
 1002.69        2951.75           1246          63.00       247.17
 1002.72        2952.00           1249          56.00       216.65
 1002.75        2952.25           1252          60.00       234.09
 1002.78        2952.50           1256          73.00       290.76
 1002.81        2952.75           1259          65.00       255.89
 1002.84        2953.00           1262          69.00       273.32
 1002.87        2953.25           1266          73.00       290.76
 1002.91        2953.50           1269          65.00       255.89
 1002.94        2953.75           1272          67.00       264.61
 1002.97        2954.00           1276          65.00       255.89
 1003.00        2954.25           1279          65.00       255.89
 1003.03        2954.50           1282          60.00       234.09
 1003.06        2954.75           1286          63.00       247.17
 1003.09        2955.00           1289          63.00       247.17
 1003.12        2955.25           1292          64.00       251.53
 1003.15        2955.50           1296          70.00       277.68
 1003.18        2955.75           1299          69.00       273.32
 1003.21        2956.00           1302          70.00       277.68
 1003.24        2956.25           1306          61.00       238.45
 1003.27        2956.50           1309          59.00       229.73
 1003.30        2956.75           1312          62.00       242.81
 1003.33        2957.00           1316          56.00       216.65
 1003.37        2957.25           1319          59.00       229.73
 1003.40        2957.50           1322          63.00       247.17
 1003.43        2957.75           1326          63.00       247.17
 1003.46        2958.00           1329          66.00       260.25
 1003.49        2958.25           1332          57.00       221.01
 1003.52        2958.50           1336          58.00       225.37
 1003.55        2958.75           1339          63.00       247.17
 1003.58        2959.00           1342          60.00       234.09
 1003.61        2959.25           1346          71.00       282.04
 1003.64        2959.50           1349          60.00       234.09
 1003.67        2959.75           1352          78.00       312.56
 1003.71        2960.00           1356         101.00       412.82
 1003.74        2960.25           1359         129.00       534.88
 1003.77        2960.50           1362         178.00       748.49
 1003.80        2960.75           1366         214.00       905.43
 1003.83        2961.00           1369         266.00      1132.12
 1003.86        2961.25           1372         299.00      1275.99
 1003.89        2961.50           1376         376.00      1611.67
 1003.92        2961.75           1379         511.00      2200.23
 1003.95        2962.00           1382        1001.00      4336.66
 1003.98        2962.25           1386        2550.00     11092.18
 1004.01        2962.50           1389        3892.00     16947.15
 1004.05        2962.75           1392        5313.00     23149.03
 1004.08        2963.00           1396        7309.00     31864.36
 1004.11        2963.25           1399        8885.00     38749.03
 1004.14        2963.50           1402       10502.00     45815.77
 1004.17        2963.75           1406       12448.00     54324.30
 1004.20        2964.00           1409       14098.00     61542.03
 1004.23        2964.25           1412       15733.00     68697.23
 1004.26        2964.50           1416       17820.00     77834.99
 1004.29        2964.75           1419       19355.00     84559.05
 1004.33        2965.00           1422       20830.00     91022.84
 1004.36        2965.25           1426       22919.00    100181.60
 1004.39        2965.50           1429       24293.00    106208.40
 1004.42        2965.75           1432       25739.00    112553.30
 1004.45        2966.00           1436       27687.00    121104.80
 1004.48        2966.25           1439       29194.00    127723.40
 1004.51        2966.50           1442       30657.00    134151.30
 1004.54        2966.75           1446       32305.00    141394.90
 1004.57        2967.00           1449       32878.00    143914.30
 1004.61        2967.25           1452       32723.00    143232.70
 1004.64        2967.50           1456       32895.00    143989.00
 1004.67        2967.75           1459       32899.00    144006.60
 1004.70        2968.00           1462       32687.00    143074.40
 1004.73        2968.25           1466       32161.00    140761.90
 1004.76        2968.50           1469       30897.00    135206.00
 1004.79        2968.75           1472       29457.00    128878.80
 1004.82        2969.00           1476       27462.00    120116.90
 1004.85        2969.25           1479       25928.00    113382.80
 1004.89        2969.50           1482       24579.00    107463.20
 1004.92        2969.75           1486       22285.00     97401.46
 1004.95        2970.00           1489       20963.00     91605.80
 1004.98        2970.25           1492       19417.00     84830.69
 1005.01        2970.50           1496       17519.00     76516.76
 1005.04        2970.75           1499       16025.00     69975.43
 1005.07        2971.00           1502       14455.00     63104.10
 1005.10        2971.25           1506       12461.00     54381.15
 1005.13        2971.50           1509       10987.00     47935.93
 1005.16        2971.75           1513        8961.00     39081.11
 1005.20        2972.00           1516        7451.00     32484.57
 1005.23        2972.25           1519        5953.00     25943.03
 1005.26        2972.50           1523        4079.00     17763.17
 1005.29        2972.75           1526        2633.00     11454.24
 1005.32        2973.00           1529        1305.00      5662.25
 1005.35        2973.25           1533         484.00      2082.52
 1005.38        2973.50           1536         324.00      1384.97
 1005.41        2973.75           1539         297.00      1267.27
 1005.44        2974.00           1543         231.00       979.54
 1005.47        2974.25           1546         165.00       691.82
 1005.51        2974.50           1549         150.00       626.43
 1005.54        2974.75           1553          96.00       391.02
 1005.57        2975.00           1556          85.00       343.07
 1005.60        2975.25           1559          71.00       282.04
 1005.63        2975.50           1563          65.00       255.89
 1005.66        2975.75           1566          63.00       247.17
 1005.69        2976.00           1569          60.00       234.09
 1005.72        2976.25           1573          55.00       212.29
 1005.75        2976.50           1576          63.00       247.17
 1005.78        2976.75           1579          64.00       251.53
 1005.81        2977.00           1583          56.00       216.65
 1005.84        2977.25           1586          68.00       268.96
 1005.88        2977.50           1590          66.00       260.25
 1005.91        2977.75           1593          68.00       268.96
 1005.94        2978.00           1596          61.00       238.45
 1005.97        2978.25           1600          60.00       234.09
 1006.00        2978.50           1603          65.00       255.89
 1006.03        2978.75           1606          53.00       203.58
 1006.06        2979.00           1610          61.00       238.45
 1006.09        2979.25           1613          56.00       216.65
 1006.12        2979.50           1616          67.00       264.61
 1006.15        2979.75           1620          51.00       194.86
 1006.18        2980.00           1623          59.00       229.73
 1006.21        2980.25           1626          59.00       229.73
 1006.25        2980.50           1630          61.00       238.45
 1006.28        2980.75           1633          59.00       229.73
 1006.31        2981.00           1637          62.00       242.81
 1006.34        2981.25           1640          58.00       225.37
 1006.37        2981.50           1643          60.00       234.09
 1006.40        2981.75           1647          64.00       251.53
 1006.43        2982.00           1650          66.00       260.25
 1006.46        2982.25           1653          67.00       264.61
 1006.49        2982.50           1657          58.00       225.37
 1006.52        2982.75           1660          56.00       216.65
 1006.55        2983.00           1663          62.00       242.81
 1006.58        2983.25           1667          50.00       190.50
 1006.61        2983.50           1670          59.00       229.73
 1006.65        2983.75           1673          56.00       216.65
 1006.68        2984.00           1677          57.00       221.01
HS scan finished at 16:46:54
end
