************************************************************
  HS Scan of (1) Internal mercury lamp
************************************************************
Integration time is 0.2294 seconds per sample
dh201218Manchester 53.47 2.23 2.804185pr1000
************************************************************
Dead Time -------------------------  3E-08 
Number of Cycles Used -------------  4 
Starting Wavelength (Angstroms) ---  2950 
Final Wavelength (Angstoms) -------  2984 
Wavelength Increment (Angstroms) --  .25 
Filter Wheel #1 Position ---------- (1) Ground quartz diffuser (ND=2.32)
Filter Wheel #2 Position ---------- (1) Neutral Density 0.494



************************************************************
HS scan start time = 05:22:31
Dark Count =  7.5 


Time (GMT)  Wavelength (Ang)  Step Number  Raw Counts  Counts/Second

  322.88        2950.00           1222          62.00       237.58
  322.95        2950.25           1226          59.00       224.50
  322.98        2950.50           1229          54.00       202.70
  323.01        2950.75           1232          53.00       198.34
  323.04        2951.00           1236          49.00       180.91
  323.07        2951.25           1239          56.00       211.42
  323.10        2951.50           1242          59.00       224.50
  323.13        2951.75           1246          45.00       163.47
  323.16        2952.00           1249          56.00       211.42
  323.19        2952.25           1252          56.00       211.42
  323.23        2952.50           1256          61.00       233.22
  323.26        2952.75           1259          59.00       224.50
  323.29        2953.00           1262          59.00       224.50
  323.32        2953.25           1266          53.00       198.34
  323.35        2953.50           1269          67.00       259.37
  323.38        2953.75           1272          56.00       211.42
  323.41        2954.00           1276          54.00       202.70
  323.44        2954.25           1279          54.00       202.70
  323.47        2954.50           1282          59.00       224.50
  323.50        2954.75           1286          58.00       220.14
  323.53        2955.00           1289          59.00       224.50
  323.56        2955.25           1292          57.00       215.78
  323.59        2955.50           1296          53.00       198.34
  323.62        2955.75           1299          57.00       215.78
  323.66        2956.00           1302          52.00       193.99
  323.69        2956.25           1306          58.00       220.14
  323.72        2956.50           1309          50.00       185.27
  323.75        2956.75           1312          49.00       180.91
  323.78        2957.00           1316          56.00       211.42
  323.81        2957.25           1319          54.00       202.70
  323.84        2957.50           1322          44.00       159.11
  323.87        2957.75           1326          54.00       202.70
  323.90        2958.00           1329          53.00       198.34
  323.93        2958.25           1332          55.00       207.06
  323.96        2958.50           1336          56.00       211.42
  323.99        2958.75           1339          52.00       193.99
  324.02        2959.00           1342          63.00       241.94
  324.05        2959.25           1346          53.00       198.34
  324.09        2959.50           1349          58.00       220.14
  324.12        2959.75           1352          72.00       281.17
  324.15        2960.00           1356         103.00       416.31
  324.18        2960.25           1359         117.00       477.34
  324.21        2960.50           1362         146.00       603.76
  324.24        2960.75           1366         185.00       773.78
  324.27        2961.00           1369         216.00       908.92
  324.30        2961.25           1372         241.00      1017.90
  324.33        2961.50           1376         299.00      1270.75
  324.36        2961.75           1379         433.00      1854.94
  324.39        2962.00           1382         920.00      3978.24
  324.42        2962.25           1386        2209.00      9599.54
  324.45        2962.50           1389        3298.00     14350.12
  324.49        2962.75           1392        4481.00     19512.29
  324.52        2963.00           1396        6060.00     26404.96
  324.55        2963.25           1399        7191.00     31343.76
  324.58        2963.50           1402        8412.00     36677.21
  324.61        2963.75           1406        9939.00     43349.71
  324.64        2964.00           1409       11294.00     49272.87
  324.67        2964.25           1412       12533.00     54690.80
  324.70        2964.50           1416       14072.00     61423.03
  324.73        2964.75           1419       15271.00     66669.83
  324.76        2965.00           1422       16387.00     71554.93
  324.80        2965.25           1426       18083.00     78981.61
  324.83        2965.50           1429       19119.00     83519.82
  324.86        2965.75           1432       20395.00     89111.06
  324.89        2966.00           1436       21952.00     95936.14
  324.92        2966.25           1439       23119.00    101053.50
  324.95        2966.50           1442       24205.00    105817.10
  324.98        2966.75           1446       25518.00    111578.20
  325.01        2967.00           1449       25653.00    112170.60
  325.04        2967.25           1452       25872.00    113131.80
  325.08        2967.50           1456       25759.00    112635.90
  325.11        2967.75           1459       25777.00    112714.90
  325.14        2968.00           1462       25694.00    112350.60
  325.17        2968.25           1466       24935.00    109019.90
  325.20        2968.50           1469       23872.00    104356.30
  325.23        2968.75           1472       22617.00     98852.01
  325.26        2969.00           1476       21092.00     92165.99
  325.29        2969.25           1479       19968.00     87239.80
  325.33        2969.50           1482       18703.00     81697.38
  325.36        2969.75           1486       17179.00     75022.63
  325.39        2970.00           1489       15979.00     69768.81
  325.42        2970.25           1492       14755.00     64411.62
  325.45        2970.50           1496       13331.00     58181.24
  325.48        2970.75           1499       12122.00     52893.37
  325.51        2971.00           1502       10942.00     47733.96
  325.54        2971.25           1506        9230.00     40251.28
  325.57        2971.50           1509        8050.00     35095.79
  325.60        2971.75           1513        6570.00     28631.82
  325.63        2972.00           1516        5307.00     23117.60
  325.67        2972.25           1519        4240.00     18460.53
  325.70        2972.50           1523        2697.00     11728.19
  325.73        2972.75           1526        1605.00      6965.27
  325.76        2973.00           1529         712.00      3071.34
  325.79        2973.25           1533         311.00      1323.07
  325.82        2973.50           1536         232.00       978.67
  325.85        2973.75           1539         199.00       834.81
  325.88        2974.00           1543         162.00       673.51
  325.91        2974.25           1546         122.00       499.14
  325.94        2974.50           1549         100.00       403.23
  325.97        2974.75           1553          78.00       307.33
  326.00        2975.00           1556          53.00       198.34
  326.04        2975.25           1559          61.00       233.22
  326.07        2975.50           1563          55.00       207.06
  326.10        2975.75           1566          49.00       180.91
  326.13        2976.00           1569          56.00       211.42
  326.16        2976.25           1573          56.00       211.42
  326.19        2976.50           1576          74.00       289.89
  326.22        2976.75           1579          57.00       215.78
  326.25        2977.00           1583          48.00       176.55
  326.28        2977.25           1586          53.00       198.34
  326.31        2977.50           1590          58.00       220.14
  326.34        2977.75           1593          52.00       193.99
  326.38        2978.00           1596          55.00       207.06
  326.41        2978.25           1600          54.00       202.70
  326.44        2978.50           1603          56.00       211.42
  326.47        2978.75           1606          43.00       154.75
  326.50        2979.00           1610          48.00       176.55
  326.53        2979.25           1613          52.00       193.99
  326.56        2979.50           1616          49.00       180.91
  326.59        2979.75           1620          48.00       176.55
  326.62        2980.00           1623          47.00       172.19
  326.65        2980.25           1626          55.00       207.06
  326.68        2980.50           1630          46.00       167.83
  326.72        2980.75           1633          51.00       189.63
  326.75        2981.00           1637          48.00       176.55
  326.78        2981.25           1640          50.00       185.27
  326.81        2981.50           1643          53.00       198.34
  326.84        2981.75           1647          45.00       163.47
  326.87        2982.00           1650          51.00       189.63
  326.90        2982.25           1653          46.00       167.83
  326.93        2982.50           1657          46.00       167.83
  326.96        2982.75           1660          49.00       180.91
  326.99        2983.00           1663          50.00       185.27
  327.02        2983.25           1667          50.00       185.27
  327.05        2983.50           1670          49.00       180.91
  327.08        2983.75           1673          53.00       198.34
  327.12        2984.00           1677          47.00       172.19
HS scan finished at 05:27:20
end
************************************************************
  HS Scan of (1) Internal mercury lamp
************************************************************
Integration time is 0.2294 seconds per sample
dh201218Manchester 53.47 2.23 2.804185pr1000
************************************************************
Dead Time -------------------------  3E-08 
Number of Cycles Used -------------  4 
Starting Wavelength (Angstroms) ---  2950 
Final Wavelength (Angstoms) -------  2984 
Wavelength Increment (Angstroms) --  .25 
Filter Wheel #1 Position ---------- (1) Ground quartz diffuser (ND=2.32)
Filter Wheel #2 Position ---------- (1) Neutral Density 0.494



************************************************************
HS scan start time = 16:42:05
Dark Count =  6.8 


Time (GMT)  Wavelength (Ang)  Step Number  Raw Counts  Counts/Second

 1002.46        2950.00           1222          48.00       179.60
 1002.52        2950.25           1226          60.00       231.91
 1002.56        2950.50           1229          57.00       218.83
 1002.59        2950.75           1232          54.00       205.76
 1002.62        2951.00           1236          53.00       201.40
 1002.65        2951.25           1239          55.00       210.11
 1002.68        2951.50           1242          56.00       214.47
 1002.71        2951.75           1246          60.00       231.91
 1002.74        2952.00           1249          69.00       271.14
 1002.77        2952.25           1252          57.00       218.83
 1002.80        2952.50           1256          50.00       188.32
 1002.83        2952.75           1259          51.00       192.68
 1002.86        2953.00           1262          55.00       210.11
 1002.90        2953.25           1266          56.00       214.47
 1002.93        2953.50           1269          53.00       201.40
 1002.96        2953.75           1272          56.00       214.47
 1002.99        2954.00           1276          56.00       214.47
 1003.02        2954.25           1279          54.00       205.76
 1003.05        2954.50           1282          57.00       218.83
 1003.08        2954.75           1286          58.00       223.19
 1003.11        2955.00           1289          57.00       218.83
 1003.14        2955.25           1292          55.00       210.11
 1003.17        2955.50           1296          53.00       201.40
 1003.20        2955.75           1299          50.00       188.32
 1003.24        2956.00           1302          48.00       179.60
 1003.27        2956.25           1306          56.00       214.47
 1003.30        2956.50           1309          50.00       188.32
 1003.33        2956.75           1312          52.00       197.04
 1003.36        2957.00           1316          58.00       223.19
 1003.39        2957.25           1319          51.00       192.68
 1003.42        2957.50           1322          54.00       205.76
 1003.45        2957.75           1326          56.00       214.47
 1003.48        2958.00           1329          61.00       236.27
 1003.51        2958.25           1332          55.00       210.11
 1003.54        2958.50           1336          52.00       197.04
 1003.58        2958.75           1339          50.00       188.32
 1003.61        2959.00           1342          55.00       210.11
 1003.64        2959.25           1346          66.00       258.07
 1003.67        2959.50           1349          63.00       244.99
 1003.70        2959.75           1352          78.00       310.38
 1003.73        2960.00           1356          95.00       384.49
 1003.76        2960.25           1359         111.00       454.23
 1003.79        2960.50           1362         155.00       646.05
 1003.82        2960.75           1366         189.00       794.26
 1003.85        2961.00           1369         218.00       920.69
 1003.88        2961.25           1372         248.00      1051.47
 1003.92        2961.50           1376         312.00      1330.48
 1003.95        2961.75           1379         399.00      1709.77
 1003.98        2962.00           1382         762.00      3292.39
 1004.01        2962.25           1386        1973.00      8573.26
 1004.04        2962.50           1389        3130.00     13620.21
 1004.07        2962.75           1392        4363.00     19000.37
 1004.10        2963.00           1396        5905.00     25731.28
 1004.13        2963.25           1399        6924.00     30180.76
 1004.16        2963.50           1402        8058.00     35133.79
 1004.19        2963.75           1406        9674.00     42194.62
 1004.23        2964.00           1409       10854.00     47352.32
 1004.26        2964.25           1412       12004.00     52380.42
 1004.29        2964.50           1416       13680.00     59711.05
 1004.32        2964.75           1419       14854.00     64847.92
 1004.35        2965.00           1422       16247.00     70945.09
 1004.38        2965.25           1426       17779.00     77653.24
 1004.41        2965.50           1429       18772.00     82002.71
 1004.44        2965.75           1432       20172.00     88136.83
 1004.47        2966.00           1436       21465.00     93804.15
 1004.51        2966.25           1439       22555.00     98583.19
 1004.54        2966.50           1442       23661.00    103433.80
 1004.57        2966.75           1446       24850.00    108650.00
 1004.60        2967.00           1449       25421.00    111155.60
 1004.63        2967.25           1452       25544.00    111695.40
 1004.66        2967.50           1456       25580.00    111853.40
 1004.69        2967.75           1459       25480.00    111414.50
 1004.72        2968.00           1462       25325.00    110734.30
 1004.75        2968.25           1466       24698.00    107983.10
 1004.78        2968.50           1469       23802.00    104052.30
 1004.81        2968.75           1472       22875.00     99986.48
 1004.84        2969.00           1476       21271.00     92953.71
 1004.88        2969.25           1479       20086.00     87759.96
 1004.91        2969.50           1482       18891.00     82524.02
 1004.94        2969.75           1486       17495.00     76409.48
 1004.97        2970.00           1489       16231.00     70875.03
 1005.00        2970.25           1492       15069.00     65788.84
 1005.03        2970.50           1496       13411.00     58534.26
 1005.06        2970.75           1499       12390.00     54068.46
 1005.09        2971.00           1502       11036.00     48147.97
 1005.12        2971.25           1506        9570.00     41740.12
 1005.15        2971.50           1509        8319.00     36273.98
 1005.19        2971.75           1513        6817.00     29713.49
 1005.22        2972.00           1516        5671.00     24709.68
 1005.25        2972.25           1519        4528.00     19720.47
 1005.28        2972.50           1523        3027.00     13170.85
 1005.31        2972.75           1526        1885.00      8189.46
 1005.34        2973.00           1529         884.00      3824.33
 1005.37        2973.25           1533         352.00      1504.86
 1005.40        2973.50           1536         257.00      1090.71
 1005.43        2973.75           1539         222.00       938.13
 1005.46        2974.00           1543         170.00       711.44
 1005.50        2974.25           1546         133.00       550.14
 1005.53        2974.50           1549         100.00       406.28
 1005.56        2974.75           1553          72.00       284.22
 1005.59        2975.00           1556          62.00       240.63
 1005.62        2975.25           1559          55.00       210.11
 1005.65        2975.50           1563          53.00       201.40
 1005.68        2975.75           1566          52.00       197.04
 1005.71        2976.00           1569          48.00       179.60
 1005.74        2976.25           1573          51.00       192.68
 1005.77        2976.50           1576          49.00       183.96
 1005.80        2976.75           1579          48.00       179.60
 1005.83        2977.00           1583          58.00       223.19
 1005.87        2977.25           1586          58.00       223.19
 1005.90        2977.50           1590          56.00       214.47
 1005.93        2977.75           1593          60.00       231.91
 1005.96        2978.00           1596          59.00       227.55
 1005.99        2978.25           1600          51.00       192.68
 1006.02        2978.50           1603          43.00       157.80
 1006.05        2978.75           1606          48.00       179.60
 1006.08        2979.00           1610          46.00       170.88
 1006.11        2979.25           1613          55.00       210.11
 1006.14        2979.50           1616          47.00       175.24
 1006.17        2979.75           1620          49.00       183.96
 1006.21        2980.00           1623          51.00       192.68
 1006.24        2980.25           1626          52.00       197.04
 1006.27        2980.50           1630          48.00       179.60
 1006.30        2980.75           1633          50.00       188.32
 1006.33        2981.00           1637          49.00       183.96
 1006.36        2981.25           1640          48.00       179.60
 1006.39        2981.50           1643          48.00       179.60
 1006.42        2981.75           1647          52.00       197.04
 1006.45        2982.00           1650          53.00       201.40
 1006.48        2982.25           1653          50.00       188.32
 1006.51        2982.50           1657          46.00       170.88
 1006.54        2982.75           1660          49.00       183.96
 1006.57        2983.00           1663          48.00       179.60
 1006.61        2983.25           1667          45.00       166.52
 1006.64        2983.50           1670          52.00       197.04
 1006.67        2983.75           1673          54.00       205.76
 1006.70        2984.00           1677          53.00       201.40
HS scan finished at 16:46:55
end
