************************************************************
  HS Scan of (1) Internal mercury lamp
************************************************************
Integration time is 0.2294 seconds per sample
dh251217Manchester 53.47 2.23 2.804185pr1000
************************************************************
Dead Time -------------------------  3E-08 
Number of Cycles Used -------------  4 
Starting Wavelength (Angstroms) ---  2950 
Final Wavelength (Angstoms) -------  2984 
Wavelength Increment (Angstroms) --  .25 
Filter Wheel #1 Position ---------- (1) Ground quartz diffuser (ND=2.32)
Filter Wheel #2 Position ---------- (1) Neutral Density 0.494



************************************************************
HS scan start time = 05:26:09
Dark Count =  7.2 


Time (GMT)  Wavelength (Ang)  Step Number  Raw Counts  Counts/Second

  326.52        2950.00           1222          74.00       291.20
  326.58        2950.25           1226          72.00       282.48
  326.61        2950.50           1229          71.00       278.12
  326.65        2950.75           1232          60.00       230.17
  326.68        2951.00           1236          56.00       212.73
  326.71        2951.25           1239          66.00       256.32
  326.74        2951.50           1242          63.00       243.25
  326.77        2951.75           1246          65.00       251.96
  326.80        2952.00           1249          63.00       243.25
  326.83        2952.25           1252          57.00       217.09
  326.86        2952.50           1256          65.00       251.96
  326.89        2952.75           1259          54.00       204.01
  326.92        2953.00           1262          59.00       225.81
  326.95        2953.25           1266          61.00       234.53
  326.98        2953.50           1269          70.00       273.76
  327.01        2953.75           1272          65.00       251.96
  327.05        2954.00           1276          57.00       217.09
  327.08        2954.25           1279          60.00       230.17
  327.11        2954.50           1282          66.00       256.32
  327.14        2954.75           1286          63.00       243.25
  327.17        2955.00           1289          67.00       260.68
  327.20        2955.25           1292          56.00       212.73
  327.23        2955.50           1296          59.00       225.81
  327.26        2955.75           1299          59.00       225.81
  327.29        2956.00           1302          57.00       217.09
  327.32        2956.25           1306          62.00       238.89
  327.35        2956.50           1309          69.00       269.40
  327.39        2956.75           1312          63.00       243.25
  327.42        2957.00           1316          66.00       256.32
  327.45        2957.25           1319          62.00       238.89
  327.48        2957.50           1322          63.00       243.25
  327.51        2957.75           1326          63.00       243.25
  327.54        2958.00           1329          66.00       256.32
  327.57        2958.25           1332          64.00       247.60
  327.60        2958.50           1336          58.00       221.45
  327.63        2958.75           1339          63.00       243.25
  327.66        2959.00           1342          63.00       243.25
  327.69        2959.25           1346          70.00       273.76
  327.73        2959.50           1349          73.00       286.84
  327.76        2959.75           1352          77.00       304.27
  327.79        2960.00           1356          98.00       395.82
  327.82        2960.25           1359         129.00       530.96
  327.85        2960.50           1362         172.00       718.41
  327.88        2960.75           1366         210.00       884.07
  327.91        2961.00           1369         254.00      1075.88
  327.94        2961.25           1372         307.00      1306.94
  327.97        2961.50           1376         381.00      1629.55
  328.00        2961.75           1379         555.00      2388.14
  328.04        2962.00           1382        1231.00      5335.64
  328.07        2962.25           1386        2922.00     12711.04
  328.10        2962.50           1389        4334.00     18872.06
  328.13        2962.75           1392        5932.00     25847.41
  328.16        2963.00           1396        7824.00     34109.86
  328.19        2963.25           1399        9430.00     41126.56
  328.22        2963.50           1402       10828.00     47236.90
  328.25        2963.75           1406       12832.00     55999.85
  328.28        2964.00           1409       14655.00     63975.33
  328.31        2964.25           1412       16223.00     70838.27
  328.35        2964.50           1416       18676.00     81580.43
  328.38        2964.75           1419       20172.00     88135.08
  328.41        2965.00           1422       21486.00     93894.46
  328.44        2965.25           1426       23659.00    103423.30
  328.47        2965.50           1429       25261.00    110451.70
  328.50        2965.75           1432       26800.00    117206.50
  328.53        2966.00           1436       28778.00    125892.20
  328.56        2966.25           1439       30243.00    132328.10
  328.59        2966.50           1442       31677.00    138630.30
  328.62        2966.75           1446       33061.00    144715.00
  328.65        2967.00           1449       33284.00    145695.60
  328.68        2967.25           1452       33425.00    146315.60
  328.72        2967.50           1456       33269.00    145629.60
  328.75        2967.75           1459       33592.00    147050.10
  328.78        2968.00           1462       32953.00    144240.10
  328.81        2968.25           1466       32211.00    140977.70
  328.84        2968.50           1469       31122.00    136190.90
  328.87        2968.75           1472       29496.00    129046.10
  328.90        2969.00           1476       27609.00    120758.40
  328.93        2969.25           1479       26084.00    114063.60
  328.96        2969.50           1482       24787.00    108371.80
  329.00        2969.75           1486       22541.00     98520.06
  329.03        2970.00           1489       20867.00     91181.08
  329.06        2970.25           1492       19526.00     85304.34
  329.09        2970.50           1496       17419.00     76074.91
  329.12        2970.75           1499       15840.00     69161.66
  329.15        2971.00           1502       14215.00     62050.01
  329.18        2971.25           1506       12146.00     52999.64
  329.21        2971.50           1509       10737.00     46839.10
  329.24        2971.75           1513        8697.00     37923.68
  329.28        2972.00           1516        7195.00     31362.54
  329.31        2972.25           1519        5748.00     25044.09
  329.34        2972.50           1523        3837.00     16703.23
  329.37        2972.75           1526        2369.00     10298.73
  329.40        2973.00           1529        1082.00      4685.93
  329.43        2973.25           1533         467.00      2004.48
  329.46        2973.50           1536         359.00      1533.64
  329.49        2973.75           1539         315.00      1341.82
  329.52        2974.00           1543         256.00      1084.60
  329.55        2974.25           1546         200.00       840.47
  329.59        2974.50           1549         165.00       687.90
  329.62        2974.75           1553         107.00       435.05
  329.65        2975.00           1556          87.00       347.87
  329.68        2975.25           1559          64.00       247.60
  329.71        2975.50           1563          65.00       251.96
  329.74        2975.75           1566          60.00       230.17
  329.77        2976.00           1569          58.00       221.45
  329.80        2976.25           1573          66.00       256.32
  329.83        2976.50           1576          57.00       217.09
  329.86        2976.75           1579          49.00       182.22
  329.89        2977.00           1583          61.00       234.53
  329.92        2977.25           1586          57.00       217.09
  329.95        2977.50           1590          76.00       299.92
  329.99        2977.75           1593          58.00       221.45
  330.02        2978.00           1596          51.00       190.93
  330.05        2978.25           1600          58.00       221.45
  330.08        2978.50           1603          56.00       212.73
  330.11        2978.75           1606          52.00       195.29
  330.14        2979.00           1610          71.00       278.12
  330.17        2979.25           1613          57.00       217.09
  330.20        2979.50           1616          59.00       225.81
  330.23        2979.75           1620          60.00       230.17
  330.26        2980.00           1623          60.00       230.17
  330.29        2980.25           1626          53.00       199.65
  330.32        2980.50           1630          52.00       195.29
  330.35        2980.75           1633          62.00       238.89
  330.38        2981.00           1637          57.00       217.09
  330.42        2981.25           1640          55.00       208.37
  330.45        2981.50           1643          59.00       225.81
  330.48        2981.75           1647          54.00       204.01
  330.51        2982.00           1650          50.00       186.57
  330.54        2982.25           1653          58.00       221.45
  330.57        2982.50           1657          53.00       199.65
  330.60        2982.75           1660          55.00       208.37
  330.63        2983.00           1663          60.00       230.17
  330.66        2983.25           1667          56.00       212.73
  330.69        2983.50           1670          66.00       256.32
  330.73        2983.75           1673          63.00       243.25
  330.76        2984.00           1677          51.00       190.93
HS scan finished at 05:30:58
end
************************************************************
  HS Scan of (1) Internal mercury lamp
************************************************************
Integration time is 0.2294 seconds per sample
dh251217Manchester 53.47 2.23 2.804185pr1000
************************************************************
Dead Time -------------------------  3E-08 
Number of Cycles Used -------------  4 
Starting Wavelength (Angstroms) ---  2950 
Final Wavelength (Angstoms) -------  2984 
Wavelength Increment (Angstroms) --  .25 
Filter Wheel #1 Position ---------- (1) Ground quartz diffuser (ND=2.32)
Filter Wheel #2 Position ---------- (1) Neutral Density 0.494



************************************************************
HS scan start time = 16:42:01
Dark Count =  6.4 


Time (GMT)  Wavelength (Ang)  Step Number  Raw Counts  Counts/Second

 1002.39        2950.00           1222          69.00       272.89
 1002.46        2950.25           1226          64.00       251.09
 1002.49        2950.50           1229          65.00       255.45
 1002.52        2950.75           1232          70.00       277.25
 1002.55        2951.00           1236          62.00       242.37
 1002.58        2951.25           1239          66.00       259.81
 1002.61        2951.50           1242          58.00       224.94
 1002.64        2951.75           1246          53.00       203.14
 1002.67        2952.00           1249          64.00       251.09
 1002.71        2952.25           1252          61.00       238.01
 1002.74        2952.50           1256          57.00       220.58
 1002.77        2952.75           1259          70.00       277.25
 1002.80        2953.00           1262          66.00       259.81
 1002.83        2953.25           1266          62.00       242.37
 1002.86        2953.50           1269          72.00       285.97
 1002.89        2953.75           1272          68.00       268.53
 1002.92        2954.00           1276          58.00       224.94
 1002.95        2954.25           1279          64.00       251.09
 1002.98        2954.50           1282          67.00       264.17
 1003.01        2954.75           1286          57.00       220.58
 1003.04        2955.00           1289          54.00       207.50
 1003.07        2955.25           1292          58.00       224.94
 1003.11        2955.50           1296          60.00       233.65
 1003.14        2955.75           1299          63.00       246.73
 1003.17        2956.00           1302          62.00       242.37
 1003.20        2956.25           1306          64.00       251.09
 1003.23        2956.50           1309          64.00       251.09
 1003.26        2956.75           1312          64.00       251.09
 1003.29        2957.00           1316          68.00       268.53
 1003.32        2957.25           1319          55.00       211.86
 1003.35        2957.50           1322          60.00       233.65
 1003.38        2957.75           1326          60.00       233.65
 1003.42        2958.00           1329          66.00       259.81
 1003.45        2958.25           1332          56.00       216.22
 1003.48        2958.50           1336          69.00       272.89
 1003.51        2958.75           1339          69.00       272.89
 1003.54        2959.00           1342          64.00       251.09
 1003.57        2959.25           1346          73.00       290.33
 1003.60        2959.50           1349          68.00       268.53
 1003.63        2959.75           1352          83.00       333.92
 1003.66        2960.00           1356         115.00       473.42
 1003.69        2960.25           1359         140.00       582.40
 1003.72        2960.50           1362         189.00       796.01
 1003.76        2960.75           1366         246.00      1044.50
 1003.79        2961.00           1369         263.00      1118.61
 1003.82        2961.25           1372         314.00      1340.94
 1003.85        2961.50           1376         412.00      1768.18
 1003.88        2961.75           1379         693.00      2993.29
 1003.91        2962.00           1382        1564.00      6791.27
 1003.94        2962.25           1386        3326.00     14477.08
 1003.97        2962.50           1389        4784.00     20839.53
 1004.00        2962.75           1392        6242.00     27204.41
 1004.03        2963.00           1396        8218.00     35834.49
 1004.07        2963.25           1399        9512.00     41488.40
 1004.10        2963.50           1402       11184.00     48796.75
 1004.13        2963.75           1406       13436.00     58645.38
 1004.16        2964.00           1409       14915.00     65116.62
 1004.19        2964.25           1412       16401.00     71621.03
 1004.22        2964.50           1416       18622.00     81347.37
 1004.25        2964.75           1419       20199.00     88256.91
 1004.28        2965.00           1422       21861.00     95541.99
 1004.31        2965.25           1426       23735.00    103760.20
 1004.34        2965.50           1429       25511.00    111552.30
 1004.37        2965.75           1432       27095.00    118505.10
 1004.41        2966.00           1436       29140.00    127485.80
 1004.44        2966.25           1439       30594.00    133874.00
 1004.47        2966.50           1442       32052.00    140282.30
 1004.50        2966.75           1446       33139.00    145061.50
 1004.53        2967.00           1449       33085.00    144824.00
 1004.56        2967.25           1452       33187.00    145272.60
 1004.59        2967.50           1456       33056.00    144696.50
 1004.62        2967.75           1459       33101.00    144894.40
 1004.65        2968.00           1462       32587.00    142634.30
 1004.69        2968.25           1466       31490.00    137811.80
 1004.72        2968.50           1469       30185.00    132076.80
 1004.75        2968.75           1472       28859.00    126251.50
 1004.78        2969.00           1476       26948.00    117859.80
 1004.81        2969.25           1479       25303.00    110639.50
 1004.84        2969.50           1482       23859.00    104304.10
 1004.87        2969.75           1486       21803.00     95287.69
 1004.90        2970.00           1489       20395.00     89115.88
 1004.93        2970.25           1492       18739.00     81859.90
 1004.97        2970.50           1496       16785.00     73302.25
 1005.00        2970.75           1499       15233.00     66508.34
 1005.03        2971.00           1502       13649.00     59577.18
 1005.06        2971.25           1506       11446.00     49942.26
 1005.09        2971.50           1509        9806.00     42773.25
 1005.12        2971.75           1513        7950.00     34663.76
 1005.15        2972.00           1516        6370.00     27763.31
 1005.18        2972.25           1519        5103.00     22231.92
 1005.21        2972.50           1523        3186.00     13866.27
 1005.24        2972.75           1526        1761.00      7650.41
 1005.27        2973.00           1529         766.00      3311.58
 1005.30        2973.25           1533         412.00      1768.18
 1005.34        2973.50           1536         313.00      1336.58
 1005.37        2973.75           1539         272.00      1157.84
 1005.40        2974.00           1543         214.00       904.99
 1005.43        2974.25           1546         165.00       691.38
 1005.46        2974.50           1549         133.00       551.88
 1005.49        2974.75           1553          97.00       394.95
 1005.52        2975.00           1556          71.00       281.61
 1005.55        2975.25           1559          68.00       268.53
 1005.58        2975.50           1563          56.00       216.22
 1005.62        2975.75           1566          66.00       259.81
 1005.65        2976.00           1569          58.00       224.94
 1005.68        2976.25           1573          63.00       246.73
 1005.71        2976.50           1576          61.00       238.01
 1005.74        2976.75           1579          58.00       224.94
 1005.77        2977.00           1583          57.00       220.58
 1005.80        2977.25           1586          68.00       268.53
 1005.83        2977.50           1590          64.00       251.09
 1005.86        2977.75           1593          61.00       238.01
 1005.89        2978.00           1596          64.00       251.09
 1005.92        2978.25           1600          61.00       238.01
 1005.95        2978.50           1603          57.00       220.58
 1005.98        2978.75           1606          65.00       255.45
 1006.01        2979.00           1610          57.00       220.58
 1006.05        2979.25           1613          52.00       198.78
 1006.08        2979.50           1616          51.00       194.42
 1006.11        2979.75           1620          56.00       216.22
 1006.14        2980.00           1623          57.00       220.58
 1006.17        2980.25           1626          61.00       238.01
 1006.20        2980.50           1630          59.00       229.30
 1006.23        2980.75           1633          56.00       216.22
 1006.26        2981.00           1637          58.00       224.94
 1006.29        2981.25           1640          59.00       229.30
 1006.32        2981.50           1643          61.00       238.01
 1006.35        2981.75           1647          58.00       224.94
 1006.38        2982.00           1650          55.00       211.86
 1006.42        2982.25           1653          53.00       203.14
 1006.45        2982.50           1657          48.00       181.34
 1006.48        2982.75           1660          55.00       211.86
 1006.51        2983.00           1663          58.00       224.94
 1006.54        2983.25           1667          57.00       220.58
 1006.57        2983.50           1670          58.00       224.94
 1006.60        2983.75           1673          58.00       224.94
 1006.63        2984.00           1677          54.00       207.50
HS scan finished at 16:46:51
end
