************************************************************
  HS Scan of (1) Internal mercury lamp
************************************************************
Integration time is 0.2294 seconds per sample
dh251218Manchester 53.47 2.23 2.804185pr1000
************************************************************
Dead Time -------------------------  3E-08 
Number of Cycles Used -------------  4 
Starting Wavelength (Angstroms) ---  2950 
Final Wavelength (Angstoms) -------  2984 
Wavelength Increment (Angstroms) --  .25 
Filter Wheel #1 Position ---------- (1) Ground quartz diffuser (ND=2.32)
Filter Wheel #2 Position ---------- (1) Neutral Density 0.494



************************************************************
HS scan start time = 05:26:05
Dark Count =  6.6 


Time (GMT)  Wavelength (Ang)  Step Number  Raw Counts  Counts/Second

  326.45        2950.00           1222          57.00       219.71
  326.51        2950.25           1226          54.00       206.63
  326.54        2950.50           1229          64.00       250.22
  326.58        2950.75           1232          51.00       193.55
  326.61        2951.00           1236          51.00       193.55
  326.64        2951.25           1239          54.00       206.63
  326.67        2951.50           1242          59.00       228.42
  326.70        2951.75           1246          59.00       228.42
  326.73        2952.00           1249          58.00       224.06
  326.76        2952.25           1252          64.00       250.22
  326.79        2952.50           1256          51.00       193.55
  326.82        2952.75           1259          60.00       232.78
  326.85        2953.00           1262          49.00       184.83
  326.88        2953.25           1266          56.00       215.35
  326.92        2953.50           1269          60.00       232.78
  326.95        2953.75           1272          55.00       210.99
  326.98        2954.00           1276          63.00       245.86
  327.01        2954.25           1279          53.00       202.27
  327.04        2954.50           1282          56.00       215.35
  327.07        2954.75           1286          55.00       210.99
  327.10        2955.00           1289          58.00       224.06
  327.13        2955.25           1292          52.00       197.91
  327.16        2955.50           1296          55.00       210.99
  327.19        2955.75           1299          59.00       228.42
  327.22        2956.00           1302          57.00       219.71
  327.25        2956.25           1306          55.00       210.99
  327.29        2956.50           1309          52.00       197.91
  327.32        2956.75           1312          61.00       237.14
  327.35        2957.00           1316          53.00       202.27
  327.38        2957.25           1319          51.00       193.55
  327.41        2957.50           1322          59.00       228.42
  327.44        2957.75           1326          59.00       228.42
  327.47        2958.00           1329          52.00       197.91
  327.50        2958.25           1332          53.00       202.27
  327.53        2958.50           1336          51.00       193.55
  327.56        2958.75           1339          55.00       210.99
  327.60        2959.00           1342          54.00       206.63
  327.63        2959.25           1346          51.00       193.55
  327.66        2959.50           1349          63.00       245.86
  327.69        2959.75           1352          66.00       258.94
  327.72        2960.00           1356          83.00       333.05
  327.75        2960.25           1359          97.00       394.08
  327.78        2960.50           1362         122.00       503.06
  327.81        2960.75           1366         169.00       707.95
  327.84        2961.00           1369         181.00       760.26
  327.88        2961.25           1372         235.00       995.67
  327.91        2961.50           1376         276.00      1174.41
  327.94        2961.75           1379         390.00      1671.40
  327.97        2962.00           1382         874.00      3781.60
  328.00        2962.25           1386        2199.00      9559.85
  328.03        2962.50           1389        3306.00     14388.95
  328.06        2962.75           1392        4443.00     19350.38
  328.09        2963.00           1396        5779.00     25182.05
  328.12        2963.25           1399        7063.00     30788.67
  328.16        2963.50           1402        8177.00     35654.51
  328.19        2963.75           1406        9729.00     42435.86
  328.22        2964.00           1409       11095.00     48406.78
  328.25        2964.25           1412       12410.00     54156.80
  328.28        2964.50           1416       14033.00     61256.33
  328.31        2964.75           1419       15093.00     65894.75
  328.34        2965.00           1422       16291.00     71138.60
  328.37        2965.25           1426       17932.00     78324.19
  328.40        2965.50           1429       19262.00     84150.28
  328.43        2965.75           1432       20506.00     89601.47
  328.47        2966.00           1436       21943.00     95900.62
  328.50        2966.25           1439       23101.00    100978.50
  328.53        2966.50           1442       23973.00    104803.30
  328.56        2966.75           1446       25034.00    109458.20
  328.59        2967.00           1449       25392.00    111029.20
  328.62        2967.25           1452       25264.00    110467.50
  328.65        2967.50           1456       25489.00    111454.90
  328.68        2967.75           1459       25314.00    110686.90
  328.71        2968.00           1462       25315.00    110691.30
  328.75        2968.25           1466       24604.00    107571.50
  328.78        2968.50           1469       23483.00    102653.90
  328.81        2968.75           1472       22359.00     97724.62
  328.84        2969.00           1476       20976.00     91661.47
  328.87        2969.25           1479       19798.00     86498.80
  328.90        2969.50           1482       18738.00     81854.65
  328.93        2969.75           1486       17051.00     74466.09
  328.96        2970.00           1489       15894.00     69400.66
  329.00        2970.25           1492       14850.00     64831.29
  329.03        2970.50           1496       13378.00     58390.78
  329.06        2970.75           1499       11986.00     52302.58
  329.09        2971.00           1502       10990.00     47947.74
  329.12        2971.25           1506        9287.00     40504.29
  329.15        2971.50           1509        8045.00     35077.87
  329.18        2971.75           1513        6519.00     28413.05
  329.21        2972.00           1516        5472.00     23841.81
  329.24        2972.25           1519        4362.00     18996.87
  329.28        2972.50           1523        2914.00     12678.75
  329.31        2972.75           1526        1871.00      8129.27
  329.34        2973.00           1529         836.00      3615.91
  329.37        2973.25           1533         373.00      1597.29
  329.40        2973.50           1536         274.00      1165.69
  329.43        2973.75           1539         239.00      1013.11
  329.46        2974.00           1543         197.00       830.01
  329.49        2974.25           1546         160.00       668.71
  329.52        2974.50           1549         134.00       555.37
  329.55        2974.75           1553          93.00       376.64
  329.58        2975.00           1556          77.00       306.89
  329.61        2975.25           1559          60.00       232.78
  329.64        2975.50           1563          54.00       206.63
  329.68        2975.75           1566          58.00       224.06
  329.71        2976.00           1569          53.00       202.27
  329.74        2976.25           1573          54.00       206.63
  329.77        2976.50           1576          47.00       176.11
  329.80        2976.75           1579          52.00       197.91
  329.83        2977.00           1583          52.00       197.91
  329.86        2977.25           1586          55.00       210.99
  329.89        2977.50           1590          56.00       215.35
  329.92        2977.75           1593          51.00       193.55
  329.95        2978.00           1596          58.00       224.06
  329.99        2978.25           1600          48.00       180.47
  330.02        2978.50           1603          45.00       167.39
  330.05        2978.75           1606          54.00       206.63
  330.08        2979.00           1610          45.00       167.39
  330.11        2979.25           1613          50.00       189.19
  330.14        2979.50           1616          46.00       171.75
  330.17        2979.75           1620          53.00       202.27
  330.20        2980.00           1623          48.00       180.47
  330.23        2980.25           1626          59.00       228.42
  330.26        2980.50           1630          44.00       163.03
  330.29        2980.75           1633          57.00       219.71
  330.32        2981.00           1637          50.00       189.19
  330.35        2981.25           1640          51.00       193.55
  330.38        2981.50           1643          40.00       145.60
  330.41        2981.75           1647          58.00       224.06
  330.45        2982.00           1650          47.00       176.11
  330.48        2982.25           1653          44.00       163.03
  330.51        2982.50           1657          46.00       171.75
  330.54        2982.75           1660          53.00       202.27
  330.57        2983.00           1663          49.00       184.83
  330.60        2983.25           1667          49.00       184.83
  330.63        2983.50           1670          48.00       180.47
  330.66        2983.75           1673          53.00       202.27
  330.69        2984.00           1677          47.00       176.11
HS scan finished at 05:30:54
end
************************************************************
  HS Scan of (1) Internal mercury lamp
************************************************************
Integration time is 0.2294 seconds per sample
dh251218Manchester 53.47 2.23 2.804185pr1000
************************************************************
Dead Time -------------------------  3E-08 
Number of Cycles Used -------------  4 
Starting Wavelength (Angstroms) ---  2950 
Final Wavelength (Angstoms) -------  2984 
Wavelength Increment (Angstroms) --  .25 
Filter Wheel #1 Position ---------- (1) Ground quartz diffuser (ND=2.32)
Filter Wheel #2 Position ---------- (1) Neutral Density 0.494



************************************************************
HS scan start time = 16:42:03
Dark Count =  4.9 


Time (GMT)  Wavelength (Ang)  Step Number  Raw Counts  Counts/Second

 1002.43        2950.00           1222          69.00       279.43
 1002.49        2950.25           1226          53.00       209.68
 1002.52        2950.50           1229          47.00       183.52
 1002.55        2950.75           1232          52.00       205.32
 1002.59        2951.00           1236          56.00       222.76
 1002.62        2951.25           1239          55.00       218.40
 1002.65        2951.50           1242          47.00       183.52
 1002.68        2951.75           1246          46.00       179.16
 1002.71        2952.00           1249          68.00       275.07
 1002.74        2952.25           1252          51.00       200.96
 1002.77        2952.50           1256          55.00       218.40
 1002.80        2952.75           1259          54.00       214.04
 1002.83        2953.00           1262          46.00       179.16
 1002.86        2953.25           1266          54.00       214.04
 1002.90        2953.50           1269          55.00       218.40
 1002.93        2953.75           1272          59.00       235.83
 1002.96        2954.00           1276          56.00       222.76
 1002.99        2954.25           1279          54.00       214.04
 1003.02        2954.50           1282          54.00       214.04
 1003.05        2954.75           1286          58.00       231.48
 1003.08        2955.00           1289          58.00       231.48
 1003.11        2955.25           1292          54.00       214.04
 1003.14        2955.50           1296          58.00       231.48
 1003.17        2955.75           1299          54.00       214.04
 1003.21        2956.00           1302          57.00       227.12
 1003.24        2956.25           1306          58.00       231.48
 1003.27        2956.50           1309          54.00       214.04
 1003.30        2956.75           1312          52.00       205.32
 1003.33        2957.00           1316          56.00       222.76
 1003.36        2957.25           1319          54.00       214.04
 1003.39        2957.50           1322          56.00       222.76
 1003.42        2957.75           1326          54.00       214.04
 1003.45        2958.00           1329          56.00       222.76
 1003.48        2958.25           1332          61.00       244.55
 1003.51        2958.50           1336          50.00       196.60
 1003.55        2958.75           1339          62.00       248.91
 1003.58        2959.00           1342          59.00       235.83
 1003.61        2959.25           1346          62.00       248.91
 1003.64        2959.50           1349          63.00       253.27
 1003.67        2959.75           1352          73.00       296.86
 1003.70        2960.00           1356          88.00       362.25
 1003.73        2960.25           1359         116.00       484.31
 1003.76        2960.50           1362         132.00       554.06
 1003.79        2960.75           1366         167.00       706.64
 1003.83        2961.00           1369         203.00       863.58
 1003.86        2961.25           1372         251.00      1072.83
 1003.89        2961.50           1376         310.00      1330.04
 1003.92        2961.75           1379         469.00      2023.23
 1003.95        2962.00           1382        1041.00      4517.18
 1003.98        2962.25           1386        2344.00     10199.72
 1004.01        2962.50           1389        3439.00     14976.65
 1004.04        2962.75           1392        4544.00     19798.59
 1004.07        2963.00           1396        5991.00     26115.05
 1004.10        2963.25           1399        7125.00     31066.87
 1004.13        2963.50           1402        8254.00     35998.31
 1004.16        2963.75           1406        9857.00     43002.70
 1004.19        2964.00           1409       11098.00     48427.33
 1004.23        2964.25           1412       12197.00     53232.72
 1004.26        2964.50           1416       13922.00     60778.11
 1004.29        2964.75           1419       15232.00     66510.53
 1004.32        2965.00           1422       16258.00     71001.55
 1004.35        2965.25           1426       17969.00     78493.69
 1004.38        2965.50           1429       19098.00     83439.20
 1004.41        2965.75           1432       20307.00     88736.79
 1004.44        2966.00           1436       21915.00     95785.31
 1004.48        2966.25           1439       22955.00    100345.70
 1004.51        2966.50           1442       23952.00    104718.60
 1004.54        2966.75           1446       24886.00    108816.30
 1004.57        2967.00           1449       24926.00    108991.80
 1004.60        2967.25           1452       25051.00    109540.30
 1004.63        2967.50           1456       25134.00    109904.50
 1004.66        2967.75           1459       24884.00    108807.50
 1004.69        2968.00           1462       24863.00    108715.40
 1004.72        2968.25           1466       24039.00    105100.30
 1004.76        2968.50           1469       22987.00    100486.00
 1004.79        2968.75           1472       22001.00     96162.37
 1004.82        2969.00           1476       20435.00     89297.76
 1004.85        2969.25           1479       19275.00     84214.68
 1004.88        2969.50           1482       18360.00     80206.28
 1004.91        2969.75           1486       16718.00     73015.47
 1004.94        2970.00           1489       15625.00     68230.63
 1004.97        2970.25           1492       14415.00     62935.19
 1005.00        2970.50           1496       12849.00     56084.26
 1005.03        2970.75           1499       11785.00     51431.08
 1005.07        2971.00           1502       10574.00     46136.62
 1005.10        2971.25           1506        8897.00     38807.58
 1005.13        2971.50           1509        7799.00     34010.71
 1005.16        2971.75           1513        6259.00     27285.19
 1005.19        2972.00           1516        5113.00     22282.11
 1005.22        2972.25           1519        4113.00     17917.65
 1005.25        2972.50           1523        2566.00     11168.08
 1005.28        2972.75           1526        1514.00      6579.76
 1005.31        2973.00           1529         669.00      2895.19
 1005.34        2973.25           1533         340.00      1460.83
 1005.38        2973.50           1536         249.00      1064.11
 1005.41        2973.75           1539         222.00       946.41
 1005.44        2974.00           1543         181.00       767.67
 1005.47        2974.25           1546         131.00       549.70
 1005.50        2974.50           1549         108.00       449.44
 1005.53        2974.75           1553          84.00       344.82
 1005.56        2975.00           1556          75.00       305.58
 1005.59        2975.25           1559          67.00       270.71
 1005.62        2975.50           1563          55.00       218.40
 1005.65        2975.75           1566          53.00       209.68
 1005.68        2976.00           1569          47.00       183.52
 1005.71        2976.25           1573          54.00       214.04
 1005.74        2976.50           1576          53.00       209.68
 1005.78        2976.75           1579          46.00       179.16
 1005.81        2977.00           1583          51.00       200.96
 1005.84        2977.25           1586          49.00       192.24
 1005.87        2977.50           1590          48.00       187.88
 1005.90        2977.75           1593          55.00       218.40
 1005.93        2978.00           1596          47.00       183.52
 1005.96        2978.25           1600          59.00       235.83
 1005.99        2978.50           1603          52.00       205.32
 1006.02        2978.75           1606          51.00       200.96
 1006.05        2979.00           1610          49.00       192.24
 1006.08        2979.25           1613          51.00       200.96
 1006.12        2979.50           1616          53.00       209.68
 1006.15        2979.75           1620          50.00       196.60
 1006.18        2980.00           1623          47.00       183.52
 1006.21        2980.25           1626          52.00       205.32
 1006.24        2980.50           1630          46.00       179.16
 1006.27        2980.75           1633          51.00       200.96
 1006.30        2981.00           1637          49.00       192.24
 1006.33        2981.25           1640          60.00       240.19
 1006.36        2981.50           1643          51.00       200.96
 1006.39        2981.75           1647          51.00       200.96
 1006.43        2982.00           1650          48.00       187.88
 1006.46        2982.25           1653          44.00       170.45
 1006.49        2982.50           1657          41.00       157.37
 1006.52        2982.75           1660          49.00       192.24
 1006.55        2983.00           1663          51.00       200.96
 1006.58        2983.25           1667          51.00       200.96
 1006.61        2983.50           1670          48.00       187.88
 1006.64        2983.75           1673          47.00       183.52
 1006.67        2984.00           1677          49.00       192.24
HS scan finished at 16:46:53
end
