************************************************************
  HS Scan of (1) Internal mercury lamp
************************************************************
Integration time is 0.2294 seconds per sample
dh211218Manchester 53.47 2.23 2.804185pr1000
************************************************************
Dead Time -------------------------  3E-08 
Number of Cycles Used -------------  4 
Starting Wavelength (Angstroms) ---  2950 
Final Wavelength (Angstoms) -------  2984 
Wavelength Increment (Angstroms) --  .25 
Filter Wheel #1 Position ---------- (1) Ground quartz diffuser (ND=2.32)
Filter Wheel #2 Position ---------- (1) Neutral Density 0.494



************************************************************
HS scan start time = 05:23:01
Dark Count =  6.3 


Time (GMT)  Wavelength (Ang)  Step Number  Raw Counts  Counts/Second

  323.39        2950.00           1222          50.00       190.50
  323.46        2950.25           1226          54.00       207.94
  323.49        2950.50           1229          46.00       173.06
  323.52        2950.75           1232          55.00       212.29
  323.55        2951.00           1236          59.00       229.73
  323.58        2951.25           1239          54.00       207.94
  323.61        2951.50           1242          56.00       216.65
  323.64        2951.75           1246          77.00       308.20
  323.67        2952.00           1249          56.00       216.65
  323.70        2952.25           1252          49.00       186.14
  323.73        2952.50           1256          58.00       225.37
  323.77        2952.75           1259          55.00       212.29
  323.80        2953.00           1262          52.00       199.22
  323.83        2953.25           1266          51.00       194.86
  323.86        2953.50           1269          48.00       181.78
  323.89        2953.75           1272          57.00       221.01
  323.92        2954.00           1276          64.00       251.53
  323.95        2954.25           1279          51.00       194.86
  323.98        2954.50           1282          65.00       255.89
  324.01        2954.75           1286          55.00       212.29
  324.04        2955.00           1289          50.00       190.50
  324.07        2955.25           1292          56.00       216.65
  324.10        2955.50           1296          58.00       225.37
  324.14        2955.75           1299          63.00       247.17
  324.17        2956.00           1302          55.00       212.29
  324.20        2956.25           1306          50.00       190.50
  324.23        2956.50           1309          54.00       207.94
  324.26        2956.75           1312          58.00       225.37
  324.29        2957.00           1316          58.00       225.37
  324.32        2957.25           1319          52.00       199.22
  324.35        2957.50           1322          56.00       216.65
  324.38        2957.75           1326          58.00       225.37
  324.41        2958.00           1329          53.00       203.58
  324.44        2958.25           1332          52.00       199.22
  324.47        2958.50           1336          57.00       221.01
  324.50        2958.75           1339          49.00       186.14
  324.54        2959.00           1342          61.00       238.45
  324.57        2959.25           1346          62.00       242.81
  324.60        2959.50           1349          54.00       207.94
  324.63        2959.75           1352          62.00       242.81
  324.66        2960.00           1356          88.00       356.15
  324.69        2960.25           1359         109.00       447.70
  324.72        2960.50           1362         132.00       547.96
  324.75        2960.75           1366         168.00       704.90
  324.78        2961.00           1369         212.00       896.71
  324.82        2961.25           1372         244.00      1036.21
  324.85        2961.50           1376         289.00      1232.39
  324.88        2961.75           1379         323.00      1380.62
  324.91        2962.00           1382         509.00      2191.51
  324.94        2962.25           1386        1507.00      6543.13
  324.97        2962.50           1389        2663.00     11585.11
  325.00        2962.75           1392        3824.00     16650.42
  325.03        2963.00           1396        5362.00     23362.93
  325.06        2963.25           1399        6549.00     28545.36
  325.09        2963.50           1402        7650.00     33353.76
  325.12        2963.75           1406        9252.00     40352.66
  325.16        2964.00           1409       10496.00     45789.54
  325.19        2964.25           1412       11694.00     51027.05
  325.22        2964.50           1416       13336.00     58208.36
  325.25        2964.75           1419       14667.00     64031.78
  325.28        2965.00           1422       15842.00     69174.35
  325.31        2965.25           1426       17633.00     77016.01
  325.34        2965.50           1429       18839.00     82298.41
  325.37        2965.75           1432       19952.00     87174.94
  325.40        2966.00           1436       21409.00     93560.84
  325.44        2966.25           1439       22847.00     99865.88
  325.47        2966.50           1442       23726.00    103721.10
  325.50        2966.75           1446       25084.00    109679.00
  325.53        2967.00           1449       25788.00    112768.40
  325.56        2967.25           1452       25645.00    112140.80
  325.59        2967.50           1456       25660.00    112206.60
  325.62        2967.75           1459       25695.00    112360.20
  325.65        2968.00           1462       25604.00    111960.90
  325.68        2968.25           1466       25264.00    110468.80
  325.71        2968.50           1469       24383.00    106603.30
  325.75        2968.75           1472       23341.00    102032.40
  325.78        2969.00           1476       21627.00     94516.53
  325.81        2969.25           1479       20589.00     89966.55
  325.84        2969.50           1482       19326.00     84431.99
  325.87        2969.75           1486       17634.00     77020.40
  325.90        2970.00           1489       16527.00     72173.10
  325.93        2970.25           1492       15351.00     67025.22
  325.96        2970.50           1496       13916.00     60745.74
  325.99        2970.75           1499       12850.00     56082.52
  326.02        2971.00           1502       11568.00     50476.12
  326.06        2971.25           1506        9996.00     43604.09
  326.09        2971.50           1509        8653.00     37735.38
  326.12        2971.75           1513        7157.00     31200.51
  326.15        2972.00           1516        5871.00     25585.02
  326.18        2972.25           1519        4675.00     20364.23
  326.21        2972.50           1523        3348.00     14573.50
  326.24        2972.75           1526        2269.00      9866.48
  326.27        2973.00           1529        1235.00      5357.01
  326.30        2973.25           1533         429.00      1842.74
  326.34        2973.50           1536         297.00      1267.27
  326.37        2973.75           1539         225.00       953.38
  326.40        2974.00           1543         195.00       822.60
  326.43        2974.25           1546         145.00       604.63
  326.46        2974.50           1549         116.00       478.21
  326.49        2974.75           1553          84.00       338.71
  326.52        2975.00           1556          67.00       264.61
  326.55        2975.25           1559          61.00       238.45
  326.58        2975.50           1563          48.00       181.78
  326.61        2975.75           1566          47.00       177.42
  326.64        2976.00           1569          46.00       173.06
  326.68        2976.25           1573          47.00       177.42
  326.71        2976.50           1576          51.00       194.86
  326.74        2976.75           1579          54.00       207.94
  326.77        2977.00           1583          57.00       221.01
  326.80        2977.25           1586          53.00       203.58
  326.83        2977.50           1590          51.00       194.86
  326.86        2977.75           1593          56.00       216.65
  326.89        2978.00           1596          47.00       177.42
  326.92        2978.25           1600          45.00       168.70
  326.95        2978.50           1603          49.00       186.14
  326.98        2978.75           1606          48.00       181.78
  327.02        2979.00           1610          54.00       207.94
  327.05        2979.25           1613          48.00       181.78
  327.08        2979.50           1616          54.00       207.94
  327.11        2979.75           1620          53.00       203.58
  327.14        2980.00           1623          45.00       168.70
  327.17        2980.25           1626          47.00       177.42
  327.20        2980.50           1630          48.00       181.78
  327.23        2980.75           1633          52.00       199.22
  327.26        2981.00           1637          47.00       177.42
  327.29        2981.25           1640          46.00       173.06
  327.33        2981.50           1643          43.00       159.98
  327.36        2981.75           1647          57.00       221.01
  327.39        2982.00           1650          39.00       142.55
  327.42        2982.25           1653          49.00       186.14
  327.45        2982.50           1657          49.00       186.14
  327.48        2982.75           1660          50.00       190.50
  327.51        2983.00           1663          48.00       181.78
  327.54        2983.25           1667          57.00       221.01
  327.57        2983.50           1670          48.00       181.78
  327.61        2983.75           1673          50.00       190.50
  327.64        2984.00           1677          45.00       168.70
HS scan finished at 05:27:51
end
************************************************************
  HS Scan of (1) Internal mercury lamp
************************************************************
Integration time is 0.2294 seconds per sample
dh211218Manchester 53.47 2.23 2.804185pr1000
************************************************************
Dead Time -------------------------  3E-08 
Number of Cycles Used -------------  4 
Starting Wavelength (Angstroms) ---  2950 
Final Wavelength (Angstoms) -------  2984 
Wavelength Increment (Angstroms) --  .25 
Filter Wheel #1 Position ---------- (1) Ground quartz diffuser (ND=2.32)
Filter Wheel #2 Position ---------- (1) Neutral Density 0.494



************************************************************
HS scan start time = 16:42:03
Dark Count =  8.399999 


Time (GMT)  Wavelength (Ang)  Step Number  Raw Counts  Counts/Second

 1002.42        2950.00           1222          59.00       220.58
 1002.48        2950.25           1226          63.00       238.01
 1002.51        2950.50           1229          60.00       224.94
 1002.54        2950.75           1232          52.00       190.06
 1002.58        2951.00           1236          55.00       203.14
 1002.61        2951.25           1239          54.00       198.78
 1002.64        2951.50           1242          62.00       233.65
 1002.67        2951.75           1246          58.00       216.22
 1002.70        2952.00           1249          58.00       216.22
 1002.73        2952.25           1252          54.00       198.78
 1002.76        2952.50           1256          55.00       203.14
 1002.79        2952.75           1259          75.00       290.33
 1002.82        2953.00           1262          55.00       203.14
 1002.85        2953.25           1266          52.00       190.06
 1002.88        2953.50           1269          58.00       216.22
 1002.91        2953.75           1272          53.00       194.42
 1002.95        2954.00           1276          51.00       185.70
 1002.98        2954.25           1279          51.00       185.70
 1003.01        2954.50           1282          61.00       229.30
 1003.04        2954.75           1286          62.00       233.65
 1003.07        2955.00           1289          51.00       185.70
 1003.10        2955.25           1292          55.00       203.14
 1003.13        2955.50           1296          59.00       220.58
 1003.16        2955.75           1299          51.00       185.70
 1003.19        2956.00           1302          62.00       233.65
 1003.22        2956.25           1306          58.00       216.22
 1003.25        2956.50           1309          48.00       172.63
 1003.28        2956.75           1312          52.00       190.06
 1003.32        2957.00           1316          56.00       207.50
 1003.35        2957.25           1319          53.00       194.42
 1003.38        2957.50           1322          56.00       207.50
 1003.41        2957.75           1326          53.00       194.42
 1003.44        2958.00           1329          54.00       198.78
 1003.47        2958.25           1332          45.00       159.55
 1003.50        2958.50           1336          45.00       159.55
 1003.53        2958.75           1339          50.00       181.34
 1003.56        2959.00           1342          54.00       198.78
 1003.59        2959.25           1346          56.00       207.50
 1003.62        2959.50           1349          65.00       246.73
 1003.65        2959.75           1352          80.00       312.12
 1003.69        2960.00           1356          93.00       368.79
 1003.72        2960.25           1359         145.00       595.48
 1003.75        2960.50           1362         147.00       604.20
 1003.78        2960.75           1366         200.00       835.24
 1003.81        2961.00           1369         230.00       966.03
 1003.84        2961.25           1372         255.00      1075.01
 1003.87        2961.50           1376         313.00      1327.86
 1003.90        2961.75           1379         471.00      2016.69
 1003.93        2962.00           1382        1005.00      4344.94
 1003.97        2962.25           1386        2366.00     10280.42
 1004.00        2962.50           1389        3567.00     15519.87
 1004.03        2962.75           1392        4746.00     20664.94
 1004.06        2963.00           1396        6232.00     27152.01
 1004.09        2963.25           1399        7364.00     32095.41
 1004.12        2963.50           1402        8644.00     37686.88
 1004.15        2963.75           1406       10146.00     44250.51
 1004.18        2964.00           1409       11430.00     49863.55
 1004.21        2964.25           1412       12601.00     54984.26
 1004.24        2964.50           1416       14129.00     61668.48
 1004.27        2964.75           1419       15363.00     67068.55
 1004.30        2965.00           1422       16471.00     71918.74
 1004.33        2965.25           1426       18115.00     79117.81
 1004.37        2965.50           1429       19450.00     84966.09
 1004.40        2965.75           1432       20702.00     90452.62
 1004.43        2966.00           1436       22063.00     96418.87
 1004.46        2966.25           1439       23341.00    102023.20
 1004.49        2966.50           1442       24192.00    105756.10
 1004.52        2966.75           1446       25304.00    110635.10
 1004.55        2967.00           1449       25399.00    111052.00
 1004.58        2967.25           1452       25250.00    110398.20
 1004.61        2967.50           1456       25287.00    110560.50
 1004.65        2967.75           1459       25476.00    111389.90
 1004.68        2968.00           1462       25158.00    109994.50
 1004.71        2968.25           1466       24405.00    106690.60
 1004.74        2968.50           1469       23396.00    102264.40
 1004.77        2968.75           1472       22139.00     96752.09
 1004.80        2969.00           1476       20682.00     90364.96
 1004.83        2969.25           1479       19431.00     84882.84
 1004.86        2969.50           1482       18331.00     80063.93
 1004.89        2969.75           1486       16799.00     73354.80
 1004.93        2970.00           1489       15621.00     68197.80
 1004.96        2970.25           1492       14702.00     64175.75
 1004.99        2970.50           1496       13084.00     57096.85
 1005.02        2970.75           1499       11896.00     51901.15
 1005.05        2971.00           1502       10668.00     46532.22
 1005.08        2971.25           1506        9058.00     39495.77
 1005.11        2971.50           1509        7862.00     34270.61
 1005.14        2971.75           1513        6343.00     27636.68
 1005.17        2972.00           1516        5100.00     22210.09
 1005.20        2972.25           1519        3913.00     17029.63
 1005.24        2972.50           1523        2475.00     10755.87
 1005.27        2972.75           1526        1393.00      6036.84
 1005.30        2973.00           1529         588.00      2526.78
 1005.33        2973.25           1533         309.00      1310.43
 1005.36        2973.50           1536         249.00      1048.86
 1005.39        2973.75           1539         213.00       891.92
 1005.42        2974.00           1543         172.00       713.18
 1005.45        2974.25           1546         135.00       551.88
 1005.48        2974.50           1549         103.00       412.39
 1005.51        2974.75           1553          68.00       259.81
 1005.55        2975.00           1556          63.00       238.01
 1005.58        2975.25           1559          52.00       190.06
 1005.61        2975.50           1563          49.00       176.98
 1005.64        2975.75           1566          52.00       190.06
 1005.67        2976.00           1569          54.00       198.78
 1005.70        2976.25           1573          45.00       159.55
 1005.73        2976.50           1576          45.00       159.55
 1005.76        2976.75           1579          54.00       198.78
 1005.79        2977.00           1583          49.00       176.98
 1005.82        2977.25           1586          49.00       176.98
 1005.85        2977.50           1590          46.00       163.91
 1005.88        2977.75           1593          50.00       181.34
 1005.91        2978.00           1596          41.00       142.11
 1005.95        2978.25           1600          55.00       203.14
 1005.98        2978.50           1603          50.00       181.34
 1006.01        2978.75           1606          51.00       185.70
 1006.04        2979.00           1610          53.00       194.42
 1006.07        2979.25           1613          49.00       176.98
 1006.10        2979.50           1616          52.00       190.06
 1006.13        2979.75           1620          49.00       176.98
 1006.16        2980.00           1623          45.00       159.55
 1006.19        2980.25           1626          49.00       176.98
 1006.22        2980.50           1630          51.00       185.70
 1006.25        2980.75           1633          50.00       181.34
 1006.28        2981.00           1637          50.00       181.34
 1006.32        2981.25           1640          47.00       168.27
 1006.35        2981.50           1643          54.00       198.78
 1006.38        2981.75           1647          53.00       194.42
 1006.41        2982.00           1650          54.00       198.78
 1006.44        2982.25           1653          51.00       185.70
 1006.47        2982.50           1657          46.00       163.91
 1006.50        2982.75           1660          57.00       211.86
 1006.53        2983.00           1663          51.00       185.70
 1006.56        2983.25           1667          44.00       155.19
 1006.59        2983.50           1670          53.00       194.42
 1006.62        2983.75           1673          45.00       159.55
 1006.65        2984.00           1677          50.00       181.34
HS scan finished at 16:46:52
end
