************************************************************
  HS Scan of (1) Internal mercury lamp
************************************************************
Integration time is 0.2294 seconds per sample
dh241217Manchester 53.47 2.23 2.804185pr1000
************************************************************
Dead Time -------------------------  3E-08 
Number of Cycles Used -------------  4 
Starting Wavelength (Angstroms) ---  2950 
Final Wavelength (Angstoms) -------  2984 
Wavelength Increment (Angstroms) --  .25 
Filter Wheel #1 Position ---------- (1) Ground quartz diffuser (ND=2.32)
Filter Wheel #2 Position ---------- (1) Neutral Density 0.494



************************************************************
HS scan start time = 05:25:48
Dark Count =  5.8 


Time (GMT)  Wavelength (Ang)  Step Number  Raw Counts  Counts/Second

  326.17        2950.00           1222          63.00       249.35
  326.24        2950.25           1226          59.00       231.91
  326.27        2950.50           1229          56.00       218.83
  326.30        2950.75           1232          67.00       266.79
  326.33        2951.00           1236          63.00       249.35
  326.36        2951.25           1239          58.00       227.55
  326.39        2951.50           1242          65.00       258.07
  326.42        2951.75           1246          65.00       258.07
  326.46        2952.00           1249          54.00       210.11
  326.49        2952.25           1252          65.00       258.07
  326.52        2952.50           1256          65.00       258.07
  326.55        2952.75           1259          70.00       279.86
  326.58        2953.00           1262          55.00       214.47
  326.61        2953.25           1266          61.00       240.63
  326.64        2953.50           1269          65.00       258.07
  326.67        2953.75           1272          63.00       249.35
  326.70        2954.00           1276          69.00       275.50
  326.73        2954.25           1279          64.00       253.71
  326.76        2954.50           1282          63.00       249.35
  326.80        2954.75           1286          63.00       249.35
  326.83        2955.00           1289          66.00       262.43
  326.86        2955.25           1292          62.00       244.99
  326.89        2955.50           1296          56.00       218.83
  326.92        2955.75           1299          66.00       262.43
  326.95        2956.00           1302          64.00       253.71
  326.98        2956.25           1306          63.00       249.35
  327.01        2956.50           1309          70.00       279.86
  327.04        2956.75           1312          63.00       249.35
  327.07        2957.00           1316          63.00       249.35
  327.10        2957.25           1319          63.00       249.35
  327.13        2957.50           1322          63.00       249.35
  327.16        2957.75           1326          62.00       244.99
  327.19        2958.00           1329          66.00       262.43
  327.22        2958.25           1332          58.00       227.55
  327.25        2958.50           1336          62.00       244.99
  327.28        2958.75           1339          69.00       275.50
  327.31        2959.00           1342          57.00       223.19
  327.35        2959.25           1346          71.00       284.22
  327.38        2959.50           1349          65.00       258.07
  327.41        2959.75           1352          83.00       336.53
  327.44        2960.00           1356         111.00       458.59
  327.47        2960.25           1359         154.00       646.05
  327.50        2960.50           1362         174.00       733.23
  327.53        2960.75           1366         230.00       977.36
  327.56        2961.00           1369         260.00      1108.15
  327.59        2961.25           1372         306.00      1308.68
  327.62        2961.50           1376         425.00      1827.48
  327.65        2961.75           1379         710.00      3070.03
  327.69        2962.00           1382        1569.00      6815.69
  327.72        2962.25           1386        3474.00     15125.43
  327.75        2962.50           1389        4890.00     21304.81
  327.78        2962.75           1392        6359.00     27717.90
  327.81        2963.00           1396        8402.00     36640.95
  327.84        2963.25           1399        9871.00     43059.95
  327.87        2963.50           1402       11419.00     49826.83
  327.90        2963.75           1406       13454.00     58726.74
  327.93        2964.00           1409       15095.00     65907.00
  327.97        2964.25           1412       16630.00     72626.25
  328.00        2964.50           1416       18455.00     80618.46
  328.03        2964.75           1419       20262.00     88535.62
  328.06        2965.00           1422       21633.00     94545.02
  328.09        2965.25           1426       23914.00    104548.00
  328.12        2965.50           1429       25374.00    110953.70
  328.15        2965.75           1432       26975.00    117980.90
  328.18        2966.00           1436       29096.00    127295.10
  328.21        2966.25           1439       30438.00    133191.10
  328.24        2966.50           1442       31630.00    138429.80
  328.28        2966.75           1446       32820.00    143661.40
  328.31        2967.00           1449       33003.00    144466.10
  328.34        2967.25           1452       33212.00    145385.10
  328.37        2967.50           1456       33040.00    144628.80
  328.40        2967.75           1459       32977.00    144351.80
  328.43        2968.00           1462       32675.00    143023.90
  328.46        2968.25           1466       31577.00    138196.90
  328.49        2968.50           1469       30129.00    131833.40
  328.52        2968.75           1472       28741.00    125735.80
  328.56        2969.00           1476       26658.00    116589.30
  328.59        2969.25           1479       24990.00    109268.70
  328.62        2969.50           1482       23466.00    102582.90
  328.65        2969.75           1486       21389.00     93475.37
  328.68        2970.00           1489       20091.00     87786.24
  328.71        2970.25           1492       18643.00     81441.99
  328.74        2970.50           1496       16599.00     72490.52
  328.77        2970.75           1499       15063.00     65766.96
  328.80        2971.00           1502       13710.00     59846.67
  328.83        2971.25           1506       11601.00     50622.60
  328.87        2971.50           1509       10117.00     44135.12
  328.90        2971.75           1513        7936.00     34605.22
  328.93        2972.00           1516        6459.00     28154.55
  328.96        2972.25           1519        5002.00     21793.67
  328.99        2972.50           1523        3070.00     13362.81
  329.02        2972.75           1526        1796.00      7805.66
  329.05        2973.00           1529         742.00      3209.55
  329.08        2973.25           1533         397.00      1705.41
  329.12        2973.50           1536         316.00      1352.28
  329.15        2973.75           1539         276.00      1177.90
  329.18        2974.00           1543         226.00       959.92
  329.21        2974.25           1546         167.00       702.72
  329.24        2974.50           1549         127.00       528.34
  329.27        2974.75           1553          91.00       371.41
  329.30        2975.00           1556          66.00       262.43
  329.33        2975.25           1559          60.00       236.27
  329.36        2975.50           1563          65.00       258.07
  329.39        2975.75           1566          65.00       258.07
  329.42        2976.00           1569          58.00       227.55
  329.46        2976.25           1573          64.00       253.71
  329.49        2976.50           1576          53.00       205.76
  329.52        2976.75           1579          55.00       214.47
  329.55        2977.00           1583          58.00       227.55
  329.58        2977.25           1586          66.00       262.43
  329.61        2977.50           1590          55.00       214.47
  329.64        2977.75           1593          57.00       223.19
  329.67        2978.00           1596          55.00       214.47
  329.70        2978.25           1600          65.00       258.07
  329.73        2978.50           1603          54.00       210.11
  329.76        2978.75           1606          55.00       214.47
  329.79        2979.00           1610          54.00       210.11
  329.83        2979.25           1613          61.00       240.63
  329.86        2979.50           1616          57.00       223.19
  329.89        2979.75           1620          58.00       227.55
  329.92        2980.00           1623          56.00       218.83
  329.95        2980.25           1626          60.00       236.27
  329.98        2980.50           1630          63.00       249.35
  330.01        2980.75           1633          53.00       205.76
  330.04        2981.00           1637          58.00       227.55
  330.07        2981.25           1640          63.00       249.35
  330.10        2981.50           1643          56.00       218.83
  330.13        2981.75           1647          57.00       223.19
  330.16        2982.00           1650          50.00       192.68
  330.20        2982.25           1653          56.00       218.83
  330.23        2982.50           1657          51.00       197.04
  330.26        2982.75           1660          55.00       214.47
  330.29        2983.00           1663          60.00       236.27
  330.32        2983.25           1667          57.00       223.19
  330.35        2983.50           1670          54.00       210.11
  330.38        2983.75           1673          55.00       214.47
  330.41        2984.00           1677          61.00       240.63
HS scan finished at 05:30:38
end
************************************************************
  HS Scan of (1) Internal mercury lamp
************************************************************
Integration time is 0.2294 seconds per sample
dh241217Manchester 53.47 2.23 2.804185pr1000
************************************************************
Dead Time -------------------------  3E-08 
Number of Cycles Used -------------  4 
Starting Wavelength (Angstroms) ---  2950 
Final Wavelength (Angstoms) -------  2984 
Wavelength Increment (Angstroms) --  .25 
Filter Wheel #1 Position ---------- (1) Ground quartz diffuser (ND=2.32)
Filter Wheel #2 Position ---------- (1) Neutral Density 0.494



************************************************************
HS scan start time = 16:42:05
Dark Count =  7.2 


Time (GMT)  Wavelength (Ang)  Step Number  Raw Counts  Counts/Second

 1002.45        2950.00           1222          73.00       286.84
 1002.52        2950.25           1226          63.00       243.25
 1002.55        2950.50           1229          58.00       221.45
 1002.58        2950.75           1232          61.00       234.53
 1002.61        2951.00           1236          81.00       321.71
 1002.64        2951.25           1239          64.00       247.60
 1002.67        2951.50           1242          69.00       269.40
 1002.70        2951.75           1246          67.00       260.68
 1002.73        2952.00           1249          68.00       265.04
 1002.76        2952.25           1252          70.00       273.76
 1002.79        2952.50           1256          56.00       212.73
 1002.82        2952.75           1259          79.00       312.99
 1002.86        2953.00           1262          69.00       269.40
 1002.89        2953.25           1266          64.00       247.60
 1002.92        2953.50           1269          57.00       217.09
 1002.95        2953.75           1272          65.00       251.96
 1002.98        2954.00           1276          67.00       260.68
 1003.01        2954.25           1279          59.00       225.81
 1003.04        2954.50           1282          60.00       230.17
 1003.07        2954.75           1286          68.00       265.04
 1003.10        2955.00           1289          62.00       238.89
 1003.13        2955.25           1292          66.00       256.32
 1003.16        2955.50           1296          54.00       204.01
 1003.19        2955.75           1299          59.00       225.81
 1003.22        2956.00           1302          59.00       225.81
 1003.25        2956.25           1306          60.00       230.17
 1003.28        2956.50           1309          67.00       260.68
 1003.31        2956.75           1312          64.00       247.60
 1003.35        2957.00           1316          65.00       251.96
 1003.38        2957.25           1319          62.00       238.89
 1003.41        2957.50           1322          58.00       221.45
 1003.44        2957.75           1326          60.00       230.17
 1003.47        2958.00           1329          57.00       217.09
 1003.50        2958.25           1332          74.00       291.20
 1003.53        2958.50           1336          72.00       282.48
 1003.56        2958.75           1339          58.00       221.45
 1003.59        2959.00           1342          67.00       260.68
 1003.62        2959.25           1346          62.00       238.89
 1003.65        2959.50           1349          77.00       304.27
 1003.68        2959.75           1352          89.00       356.59
 1003.71        2960.00           1356         138.00       570.19
 1003.74        2960.25           1359         169.00       705.33
 1003.78        2960.50           1362         204.00       857.91
 1003.81        2960.75           1366         250.00      1058.45
 1003.84        2961.00           1369         300.00      1276.42
 1003.87        2961.25           1372         342.00      1459.52
 1003.90        2961.50           1376         409.00      1751.62
 1003.93        2961.75           1379         540.00      2322.74
 1003.96        2962.00           1382        1166.00      5052.21
 1003.99        2962.25           1386        2933.00     12759.03
 1004.02        2962.50           1389        4342.00     18906.97
 1004.05        2962.75           1392        5837.00     25432.65
 1004.08        2963.00           1396        7715.00     33633.74
 1004.12        2963.25           1399        9156.00     39929.24
 1004.15        2963.50           1402       10811.00     47162.58
 1004.18        2963.75           1406       12972.00     56612.20
 1004.21        2964.00           1409       14524.00     63402.09
 1004.24        2964.25           1412       16086.00     70238.53
 1004.27        2964.50           1416       18077.00     78956.65
 1004.30        2964.75           1419       19678.00     85970.35
 1004.33        2965.00           1422       21149.00     92417.18
 1004.36        2965.25           1426       23263.00    101686.40
 1004.39        2965.50           1429       24908.00    108902.70
 1004.43        2965.75           1432       26304.00    115029.20
 1004.46        2966.00           1436       28391.00    124192.50
 1004.49        2966.25           1439       29710.00    129986.30
 1004.52        2966.50           1442       30975.00    135544.80
 1004.55        2966.75           1446       32560.00    142512.10
 1004.58        2967.00           1449       33119.00    144970.00
 1004.61        2967.25           1452       33154.00    145123.90
 1004.64        2967.50           1456       33094.00    144860.10
 1004.67        2967.75           1459       33032.00    144587.50
 1004.70        2968.00           1462       33005.00    144468.70
 1004.74        2968.25           1466       32090.00    140445.80
 1004.77        2968.50           1469       30601.00    133901.30
 1004.80        2968.75           1472       29219.00    127829.30
 1004.83        2969.00           1476       27268.00    119261.20
 1004.86        2969.25           1479       25764.00    112659.10
 1004.89        2969.50           1482       24147.00    105564.00
 1004.92        2969.75           1486       22297.00     97450.13
 1004.95        2970.00           1489       20832.00     91027.68
 1004.98        2970.25           1492       19328.00     84436.81
 1005.01        2970.50           1496       17258.00     75369.88
 1005.05        2970.75           1499       15781.00     68903.40
 1005.08        2971.00           1502       14240.00     62159.40
 1005.11        2971.25           1506       12072.00     52676.03
 1005.14        2971.50           1509       10545.00     45999.79
 1005.17        2971.75           1513        8609.00     37539.20
 1005.20        2972.00           1516        6995.00     30489.08
 1005.23        2972.25           1519        5643.00     24585.69
 1005.26        2972.50           1523        3590.00     15625.46
 1005.29        2972.75           1526        2177.00      9461.27
 1005.33        2973.00           1529         988.00      4276.05
 1005.36        2973.25           1533         412.00      1764.70
 1005.39        2973.50           1536         316.00      1346.17
 1005.42        2973.75           1539         256.00      1084.60
 1005.45        2974.00           1543         222.00       936.38
 1005.48        2974.25           1546         156.00       648.66
 1005.51        2974.50           1549         129.00       530.96
 1005.54        2974.75           1553          85.00       339.15
 1005.57        2975.00           1556          72.00       282.48
 1005.60        2975.25           1559          60.00       230.17
 1005.63        2975.50           1563          61.00       234.53
 1005.67        2975.75           1566          58.00       221.45
 1005.70        2976.00           1569          60.00       230.17
 1005.73        2976.25           1573          64.00       247.60
 1005.76        2976.50           1576          61.00       234.53
 1005.79        2976.75           1579          60.00       230.17
 1005.82        2977.00           1583          58.00       221.45
 1005.85        2977.25           1586          66.00       256.32
 1005.88        2977.50           1590          61.00       234.53
 1005.91        2977.75           1593          60.00       230.17
 1005.94        2978.00           1596          65.00       251.96
 1005.97        2978.25           1600          57.00       217.09
 1006.01        2978.50           1603          64.00       247.60
 1006.04        2978.75           1606          63.00       243.25
 1006.07        2979.00           1610          61.00       234.53
 1006.10        2979.25           1613          62.00       238.89
 1006.13        2979.50           1616          56.00       212.73
 1006.16        2979.75           1620          57.00       217.09
 1006.19        2980.00           1623          57.00       217.09
 1006.22        2980.25           1626          55.00       208.37
 1006.25        2980.50           1630          53.00       199.65
 1006.28        2980.75           1633          64.00       247.60
 1006.31        2981.00           1637          59.00       225.81
 1006.34        2981.25           1640          61.00       234.53
 1006.37        2981.50           1643          62.00       238.89
 1006.41        2981.75           1647          61.00       234.53
 1006.44        2982.00           1650          61.00       234.53
 1006.47        2982.25           1653          61.00       234.53
 1006.50        2982.50           1657          54.00       204.01
 1006.53        2982.75           1660          58.00       221.45
 1006.56        2983.00           1663          48.00       177.86
 1006.59        2983.25           1667          56.00       212.73
 1006.62        2983.50           1670          49.00       182.22
 1006.65        2983.75           1673          62.00       238.89
 1006.68        2984.00           1677          53.00       199.65
HS scan finished at 16:46:54
end
