************************************************************
  HS Scan of (1) Internal mercury lamp
************************************************************
Integration time is 0.2294 seconds per sample
dh211217Manchester 53.47 2.23 2.804185pr1000
************************************************************
Dead Time -------------------------  3E-08 
Number of Cycles Used -------------  4 
Starting Wavelength (Angstroms) ---  2950 
Final Wavelength (Angstoms) -------  2984 
Wavelength Increment (Angstroms) --  .25 
Filter Wheel #1 Position ---------- (1) Ground quartz diffuser (ND=2.32)
Filter Wheel #2 Position ---------- (1) Neutral Density 0.494



************************************************************
HS scan start time = 05:23:11
Dark Count =  4.9 


Time (GMT)  Wavelength (Ang)  Step Number  Raw Counts  Counts/Second

  323.55        2950.00           1222          65.00       261.99
  323.62        2950.25           1226          62.00       248.91
  323.65        2950.50           1229          65.00       261.99
  323.68        2950.75           1232          65.00       261.99
  323.71        2951.00           1236          62.00       248.91
  323.74        2951.25           1239          73.00       296.86
  323.77        2951.50           1242          63.00       253.27
  323.80        2951.75           1246          69.00       279.43
  323.83        2952.00           1249          66.00       266.35
  323.86        2952.25           1252          59.00       235.83
  323.89        2952.50           1256          64.00       257.63
  323.92        2952.75           1259          59.00       235.83
  323.95        2953.00           1262          61.00       244.55
  323.98        2953.25           1266          64.00       257.63
  324.02        2953.50           1269          66.00       266.35
  324.05        2953.75           1272          75.00       305.58
  324.08        2954.00           1276          64.00       257.63
  324.11        2954.25           1279          65.00       261.99
  324.14        2954.50           1282          72.00       292.50
  324.17        2954.75           1286          60.00       240.19
  324.20        2955.00           1289          67.00       270.71
  324.23        2955.25           1292          68.00       275.07
  324.26        2955.50           1296          62.00       248.91
  324.29        2955.75           1299          63.00       253.27
  324.32        2956.00           1302          66.00       266.35
  324.36        2956.25           1306          60.00       240.19
  324.39        2956.50           1309          67.00       270.71
  324.42        2956.75           1312          64.00       257.63
  324.45        2957.00           1316          60.00       240.19
  324.48        2957.25           1319          70.00       283.79
  324.51        2957.50           1322          64.00       257.63
  324.54        2957.75           1326          62.00       248.91
  324.57        2958.00           1329          61.00       244.55
  324.60        2958.25           1332          60.00       240.19
  324.63        2958.50           1336          61.00       244.55
  324.67        2958.75           1339          61.00       244.55
  324.70        2959.00           1342          59.00       235.83
  324.73        2959.25           1346          70.00       283.79
  324.76        2959.50           1349          72.00       292.50
  324.79        2959.75           1352          98.00       405.85
  324.82        2960.00           1356         124.00       519.19
  324.85        2960.25           1359         155.00       654.33
  324.88        2960.50           1362         199.00       846.14
  324.91        2960.75           1366         244.00      1042.32
  324.94        2961.00           1369         275.00      1177.46
  324.97        2961.25           1372         344.00      1478.27
  325.00        2961.50           1376         430.00      1853.20
  325.04        2961.75           1379         769.00      3331.20
  325.07        2962.00           1382        1837.00      7988.40
  325.10        2962.25           1386        3747.00     16320.54
  325.13        2962.50           1389        5203.00     22674.97
  325.16        2962.75           1392        6754.00     29446.67
  325.19        2963.00           1396        8722.00     38042.95
  325.22        2963.25           1399        9962.00     43461.60
  325.25        2963.50           1402       11685.00     50993.82
  325.28        2963.75           1406       13742.00     59990.61
  325.31        2964.00           1409       15288.00     66755.61
  325.35        2964.25           1412       16727.00     73054.88
  325.38        2964.50           1416       19017.00     83084.35
  325.41        2964.75           1419       20381.00     89061.09
  325.44        2965.00           1422       21985.00     96092.22
  325.47        2965.25           1426       24188.00    105753.90
  325.50        2965.50           1429       25555.00    111752.00
  325.53        2965.75           1432       27288.00    119359.10
  325.56        2966.00           1436       29190.00    127712.00
  325.59        2966.25           1439       30431.00    133164.30
  325.63        2966.50           1442       31920.00    139708.60
  325.66        2966.75           1446       32873.00    143898.40
  325.69        2967.00           1449       32945.00    144215.00
  325.72        2967.25           1452       32843.00    143766.50
  325.75        2967.50           1456       33166.00    145186.80
  325.78        2967.75           1459       32837.00    143740.10
  325.81        2968.00           1462       32481.00    142174.90
  325.84        2968.25           1466       31052.00    135893.30
  325.87        2968.50           1469       29619.00    129596.60
  325.91        2968.75           1472       28360.00    124066.40
  325.94        2969.00           1476       26074.00    114029.80
  325.97        2969.25           1479       24797.00    108425.80
  326.00        2969.50           1482       23275.00    101749.10
  326.03        2969.75           1486       21326.00     93203.14
  326.06        2970.00           1489       19901.00     86957.59
  326.09        2970.25           1492       18296.00     79925.94
  326.12        2970.50           1496       16500.00     72061.02
  326.15        2970.75           1499       14853.00     64851.85
  326.18        2971.00           1502       13171.00     57492.72
  326.21        2971.25           1506       11143.00     48624.07
  326.25        2971.50           1509        9700.00     42316.55
  326.28        2971.75           1513        7606.00     33167.68
  326.31        2972.00           1516        6058.00     26407.58
  326.34        2972.25           1519        4548.00     19816.05
  326.37        2972.50           1523        2696.00     11735.17
  326.40        2972.75           1526        1377.00      5982.33
  326.43        2973.00           1529         602.00      2603.08
  326.46        2973.25           1533         384.00      1652.65
  326.49        2973.50           1536         323.00      1386.72
  326.52        2973.75           1539         262.00      1120.79
  326.55        2974.00           1543         221.00       942.05
  326.59        2974.25           1546         159.00       671.77
  326.62        2974.50           1549         118.00       493.03
  326.65        2974.75           1553          82.00       336.10
  326.68        2975.00           1556          69.00       279.43
  326.71        2975.25           1559          68.00       275.07
  326.74        2975.50           1563          60.00       240.19
  326.77        2975.75           1566          64.00       257.63
  326.80        2976.00           1569          67.00       270.71
  326.83        2976.25           1573          58.00       231.48
  326.86        2976.50           1576          60.00       240.19
  326.89        2976.75           1579          63.00       253.27
  326.93        2977.00           1583          62.00       248.91
  326.96        2977.25           1586          60.00       240.19
  326.99        2977.50           1590          62.00       248.91
  327.02        2977.75           1593          60.00       240.19
  327.05        2978.00           1596          69.00       279.43
  327.08        2978.25           1600          50.00       196.60
  327.11        2978.50           1603          60.00       240.19
  327.14        2978.75           1606          55.00       218.40
  327.17        2979.00           1610          59.00       235.83
  327.20        2979.25           1613          63.00       253.27
  327.23        2979.50           1616          45.00       174.80
  327.26        2979.75           1620          52.00       205.32
  327.29        2980.00           1623          53.00       209.68
  327.32        2980.25           1626          69.00       279.43
  327.36        2980.50           1630          61.00       244.55
  327.39        2980.75           1633          54.00       214.04
  327.42        2981.00           1637          55.00       218.40
  327.45        2981.25           1640          54.00       214.04
  327.48        2981.50           1643          57.00       227.12
  327.51        2981.75           1647          56.00       222.76
  327.54        2982.00           1650          61.00       244.55
  327.57        2982.25           1653          56.00       222.76
  327.60        2982.50           1657          53.00       209.68
  327.63        2982.75           1660          54.00       214.04
  327.67        2983.00           1663          63.00       253.27
  327.70        2983.25           1667          60.00       240.19
  327.73        2983.50           1670          55.00       218.40
  327.76        2983.75           1673          58.00       231.48
  327.79        2984.00           1677          56.00       222.76
HS scan finished at 05:28:00
end
************************************************************
  HS Scan of (1) Internal mercury lamp
************************************************************
Integration time is 0.2294 seconds per sample
dh211217Manchester 53.47 2.23 2.804185pr1000
************************************************************
Dead Time -------------------------  3E-08 
Number of Cycles Used -------------  4 
Starting Wavelength (Angstroms) ---  2950 
Final Wavelength (Angstoms) -------  2984 
Wavelength Increment (Angstroms) --  .25 
Filter Wheel #1 Position ---------- (1) Ground quartz diffuser (ND=2.32)
Filter Wheel #2 Position ---------- (1) Neutral Density 0.494



************************************************************
HS scan start time = 16:42:02
Dark Count =  8.2 


Time (GMT)  Wavelength (Ang)  Step Number  Raw Counts  Counts/Second

 1002.41        2950.00           1222          64.00       243.25
 1002.47        2950.25           1226          69.00       265.04
 1002.51        2950.50           1229          61.00       230.17
 1002.54        2950.75           1232          67.00       256.32
 1002.57        2951.00           1236          66.00       251.96
 1002.60        2951.25           1239          69.00       265.04
 1002.63        2951.50           1242          63.00       238.89
 1002.66        2951.75           1246          67.00       256.32
 1002.69        2952.00           1249          62.00       234.53
 1002.72        2952.25           1252          60.00       225.81
 1002.75        2952.50           1256          65.00       247.60
 1002.78        2952.75           1259          64.00       243.25
 1002.81        2953.00           1262          62.00       234.53
 1002.85        2953.25           1266          69.00       265.04
 1002.88        2953.50           1269          64.00       243.25
 1002.91        2953.75           1272          63.00       238.89
 1002.94        2954.00           1276          62.00       234.53
 1002.97        2954.25           1279          59.00       221.45
 1003.00        2954.50           1282          63.00       238.89
 1003.03        2954.75           1286          59.00       221.45
 1003.06        2955.00           1289          57.00       212.73
 1003.09        2955.25           1292          53.00       195.29
 1003.12        2955.50           1296          60.00       225.81
 1003.15        2955.75           1299          62.00       234.53
 1003.18        2956.00           1302          58.00       217.09
 1003.21        2956.25           1306          56.00       208.37
 1003.25        2956.50           1309          74.00       286.84
 1003.28        2956.75           1312          62.00       234.53
 1003.31        2957.00           1316          58.00       217.09
 1003.34        2957.25           1319          64.00       243.25
 1003.37        2957.50           1322          58.00       217.09
 1003.40        2957.75           1326          64.00       243.25
 1003.43        2958.00           1329          55.00       204.01
 1003.46        2958.25           1332          63.00       238.89
 1003.49        2958.50           1336          64.00       243.25
 1003.52        2958.75           1339          72.00       278.12
 1003.55        2959.00           1342          62.00       234.53
 1003.58        2959.25           1346          62.00       234.53
 1003.62        2959.50           1349          61.00       230.17
 1003.65        2959.75           1352          88.00       347.87
 1003.68        2960.00           1356         120.00       487.37
 1003.71        2960.25           1359         143.00       587.63
 1003.74        2960.50           1362         182.00       757.65
 1003.77        2960.75           1366         221.00       927.66
 1003.80        2961.00           1369         266.00      1123.84
 1003.83        2961.25           1372         328.00      1394.13
 1003.86        2961.50           1376         387.00      1651.35
 1003.89        2961.75           1379         607.00      2610.49
 1003.92        2962.00           1382        1314.00      5693.21
 1003.95        2962.25           1386        3041.00     13225.82
 1003.98        2962.50           1389        4544.00     19784.19
 1004.01        2962.75           1392        6006.00     26166.13
 1004.05        2963.00           1396        7861.00     34267.12
 1004.08        2963.25           1399        9440.00     41165.89
 1004.11        2963.50           1402       11101.00     48426.02
 1004.14        2963.75           1406       13014.00     56791.53
 1004.17        2964.00           1409       14559.00     63550.86
 1004.20        2964.25           1412       16162.00     70566.85
 1004.23        2964.50           1416       18226.00     79604.88
 1004.26        2964.75           1419       19847.00     86706.51
 1004.29        2965.00           1422       21434.00     93662.11
 1004.32        2965.25           1426       23442.00    102467.10
 1004.36        2965.50           1429       25021.00    109394.20
 1004.39        2965.75           1432       26603.00    116337.30
 1004.42        2966.00           1436       28659.00    125365.10
 1004.45        2966.25           1439       30120.00    131783.30
 1004.48        2966.50           1442       31328.00    137091.90
 1004.51        2966.75           1446       32648.00    142894.60
 1004.54        2967.00           1449       32841.00    143743.20
 1004.57        2967.25           1452       32820.00    143650.90
 1004.60        2967.50           1456       32837.00    143725.60
 1004.64        2967.75           1459       32840.00    143738.80
 1004.67        2968.00           1462       32489.00    142195.60
 1004.70        2968.25           1466       31264.00    136810.60
 1004.73        2968.50           1469       30193.00    132104.00
 1004.76        2968.75           1472       28775.00    125874.60
 1004.79        2969.00           1476       26937.00    117803.60
 1004.82        2969.25           1479       25396.00    111039.70
 1004.85        2969.50           1482       23925.00    104585.70
 1004.88        2969.75           1486       21981.00     96060.22
 1004.91        2970.00           1489       20432.00     89270.15
 1004.94        2970.25           1492       18928.00     82679.99
 1004.98        2970.50           1496       16977.00     74135.06
 1005.01        2970.75           1499       15366.00     67082.56
 1005.04        2971.00           1502       13849.00     60444.30
 1005.07        2971.25           1506       11799.00     51477.87
 1005.10        2971.50           1509       10218.00     44566.08
 1005.13        2971.75           1513        8309.00     36224.18
 1005.16        2972.00           1516        6685.00     29130.94
 1005.19        2972.25           1519        5285.00     23018.51
 1005.22        2972.50           1523        3308.00     14390.69
 1005.25        2972.75           1526        1972.00      8562.79
 1005.28        2973.00           1529         858.00      3704.86
 1005.32        2973.25           1533         369.00      1572.87
 1005.35        2973.50           1536         302.00      1280.78
 1005.38        2973.75           1539         257.00      1084.60
 1005.41        2974.00           1543         189.00       788.16
 1005.44        2974.25           1546         160.00       661.74
 1005.47        2974.50           1549         124.00       504.80
 1005.50        2974.75           1553          88.00       347.87
 1005.53        2975.00           1556          74.00       286.84
 1005.56        2975.25           1559          78.00       304.27
 1005.59        2975.50           1563          63.00       238.89
 1005.62        2975.75           1566          64.00       243.25
 1005.65        2976.00           1569          61.00       230.17
 1005.68        2976.25           1573          66.00       251.96
 1005.71        2976.50           1576          62.00       234.53
 1005.75        2976.75           1579          62.00       234.53
 1005.78        2977.00           1583          59.00       221.45
 1005.81        2977.25           1586          52.00       190.93
 1005.84        2977.50           1590          61.00       230.17
 1005.87        2977.75           1593          59.00       221.45
 1005.90        2978.00           1596          69.00       265.04
 1005.93        2978.25           1600          66.00       251.96
 1005.96        2978.50           1603          54.00       199.65
 1005.99        2978.75           1606          67.00       256.32
 1006.02        2979.00           1610          60.00       225.81
 1006.05        2979.25           1613          54.00       199.65
 1006.08        2979.50           1616          64.00       243.25
 1006.11        2979.75           1620          60.00       225.81
 1006.14        2980.00           1623          51.00       186.57
 1006.18        2980.25           1626          52.00       190.93
 1006.21        2980.50           1630          59.00       221.45
 1006.24        2980.75           1633          57.00       212.73
 1006.27        2981.00           1637          54.00       199.65
 1006.30        2981.25           1640          57.00       212.73
 1006.33        2981.50           1643          62.00       234.53
 1006.36        2981.75           1647          62.00       234.53
 1006.39        2982.00           1650          58.00       217.09
 1006.42        2982.25           1653          57.00       212.73
 1006.45        2982.50           1657          58.00       217.09
 1006.48        2982.75           1660          58.00       217.09
 1006.51        2983.00           1663          59.00       221.45
 1006.54        2983.25           1667          55.00       204.01
 1006.58        2983.50           1670          55.00       204.01
 1006.61        2983.75           1673          58.00       217.09
 1006.64        2984.00           1677          49.00       177.86
HS scan finished at 16:46:51
end
