************************************************************
  HS Scan of (1) Internal mercury lamp
************************************************************
Integration time is 0.2294 seconds per sample
dh181217Manchester 53.47 2.23 2.804185pr1000
************************************************************
Dead Time -------------------------  3E-08 
Number of Cycles Used -------------  4 
Starting Wavelength (Angstroms) ---  2950 
Final Wavelength (Angstoms) -------  2984 
Wavelength Increment (Angstroms) --  .25 
Filter Wheel #1 Position ---------- (1) Ground quartz diffuser (ND=2.32)
Filter Wheel #2 Position ---------- (1) Neutral Density 0.494



************************************************************
HS scan start time = 05:21:28
Dark Count =  5.5 


Time (GMT)  Wavelength (Ang)  Step Number  Raw Counts  Counts/Second

  321.83        2950.00           1222          69.00       276.81
  321.90        2950.25           1226          68.00       272.45
  321.93        2950.50           1229          63.00       250.66
  321.96        2950.75           1232          64.00       255.02
  321.99        2951.00           1236          69.00       276.81
  322.02        2951.25           1239          67.00       268.09
  322.05        2951.50           1242          63.00       250.66
  322.08        2951.75           1246          63.00       250.66
  322.11        2952.00           1249          64.00       255.02
  322.14        2952.25           1252          62.00       246.30
  322.17        2952.50           1256          66.00       263.73
  322.20        2952.75           1259          65.00       259.37
  322.23        2953.00           1262          60.00       237.58
  322.27        2953.25           1266          64.00       255.02
  322.30        2953.50           1269          66.00       263.73
  322.33        2953.75           1272          67.00       268.09
  322.36        2954.00           1276          51.00       198.34
  322.39        2954.25           1279          65.00       259.37
  322.42        2954.50           1282          66.00       263.73
  322.45        2954.75           1286          60.00       237.58
  322.48        2955.00           1289          60.00       237.58
  322.51        2955.25           1292          58.00       228.86
  322.54        2955.50           1296          65.00       259.37
  322.57        2955.75           1299          68.00       272.45
  322.60        2956.00           1302          57.00       224.50
  322.63        2956.25           1306          67.00       268.09
  322.67        2956.50           1309          62.00       246.30
  322.70        2956.75           1312          56.00       220.14
  322.73        2957.00           1316          62.00       246.30
  322.76        2957.25           1319          66.00       263.73
  322.79        2957.50           1322          63.00       250.66
  322.82        2957.75           1326          61.00       241.94
  322.85        2958.00           1329          64.00       255.02
  322.88        2958.25           1332          59.00       233.22
  322.91        2958.50           1336          64.00       255.02
  322.94        2958.75           1339          63.00       250.66
  322.98        2959.00           1342          69.00       276.81
  323.01        2959.25           1346          62.00       246.30
  323.04        2959.50           1349          71.00       285.53
  323.07        2959.75           1352          88.00       359.64
  323.10        2960.00           1356         107.00       442.46
  323.13        2960.25           1359         151.00       634.28
  323.16        2960.50           1362         185.00       782.49
  323.19        2960.75           1366         230.00       978.67
  323.22        2961.00           1369         277.00      1183.56
  323.25        2961.25           1372         299.00      1279.47
  323.29        2961.50           1376         401.00      1724.15
  323.32        2961.75           1379         619.00      2674.58
  323.35        2962.00           1382        1370.00      5949.19
  323.38        2962.25           1386        3134.00     13643.33
  323.41        2962.50           1389        4613.00     20097.12
  323.44        2962.75           1392        6040.00     26326.37
  323.47        2963.00           1396        7986.00     34824.95
  323.50        2963.25           1399        9573.00     41758.92
  323.53        2963.50           1402       11054.00     48232.34
  323.56        2963.75           1406       13058.00     56995.81
  323.59        2964.00           1409       14907.00     65085.55
  323.63        2964.25           1412       16354.00     71419.21
  323.66        2964.50           1416       18272.00     79818.19
  323.69        2964.75           1419       19870.00     86819.12
  323.72        2965.00           1422       21279.00     92994.49
  323.75        2965.25           1426       23469.00    102597.30
  323.78        2965.50           1429       24942.00    109059.40
  323.81        2965.75           1432       26397.00    115444.90
  323.84        2966.00           1436       28441.00    124419.50
  323.87        2966.25           1439       30048.00    131478.80
  323.90        2966.50           1442       31377.00    137319.10
  323.93        2966.75           1446       33004.00    144471.80
  323.97        2967.00           1449       33258.00    145588.70
  324.00        2967.25           1452       33313.00    145830.60
  324.03        2967.50           1456       33305.00    145795.40
  324.06        2967.75           1459       33264.00    145615.10
  324.09        2968.00           1462       32897.00    144001.30
  324.12        2968.25           1466       31985.00    139991.70
  324.15        2968.50           1469       30739.00    134515.10
  324.18        2968.75           1472       29431.00    128768.10
  324.21        2969.00           1476       27140.00    118706.70
  324.24        2969.25           1479       25686.00    112324.30
  324.28        2969.50           1482       24065.00    105211.70
  324.31        2969.75           1486       22191.00     96992.81
  324.34        2970.00           1489       20750.00     90675.71
  324.37        2970.25           1492       19203.00     83896.59
  324.40        2970.50           1496       17166.00     74974.46
  324.43        2970.75           1499       15583.00     68044.16
  324.46        2971.00           1502       14152.00     61781.80
  324.49        2971.25           1506       12112.00     52858.39
  324.52        2971.50           1509       10434.00     45522.03
  324.56        2971.75           1513        8411.00     36681.58
  324.59        2972.00           1516        6894.00     30055.43
  324.62        2972.25           1519        5381.00     23449.36
  324.65        2972.50           1523        3428.00     14926.04
  324.68        2972.75           1526        1943.00      8448.09
  324.71        2973.00           1529         804.00      3481.18
  324.74        2973.25           1533         409.00      1759.03
  324.77        2973.50           1536         319.00      1366.66
  324.80        2973.75           1539         292.00      1248.96
  324.83        2974.00           1543         248.00      1057.14
  324.87        2974.25           1546         186.00       786.85
  324.90        2974.50           1549         145.00       608.12
  324.93        2974.75           1553          92.00       377.07
  324.96        2975.00           1556          83.00       337.84
  324.99        2975.25           1559          62.00       246.30
  325.02        2975.50           1563          64.00       255.02
  325.05        2975.75           1566          62.00       246.30
  325.08        2976.00           1569          59.00       233.22
  325.11        2976.25           1573          62.00       246.30
  325.14        2976.50           1576          60.00       237.58
  325.17        2976.75           1579          61.00       241.94
  325.20        2977.00           1583          57.00       224.50
  325.24        2977.25           1586          58.00       228.86
  325.27        2977.50           1590          63.00       250.66
  325.30        2977.75           1593          58.00       228.86
  325.33        2978.00           1596          59.00       233.22
  325.36        2978.25           1600          57.00       224.50
  325.39        2978.50           1603          62.00       246.30
  325.42        2978.75           1606          57.00       224.50
  325.45        2979.00           1610          54.00       211.42
  325.48        2979.25           1613          60.00       237.58
  325.51        2979.50           1616          55.00       215.78
  325.54        2979.75           1620          54.00       211.42
  325.57        2980.00           1623          58.00       228.86
  325.60        2980.25           1626          54.00       211.42
  325.64        2980.50           1630          59.00       233.22
  325.67        2980.75           1633          55.00       215.78
  325.70        2981.00           1637          61.00       241.94
  325.73        2981.25           1640          57.00       224.50
  325.76        2981.50           1643          58.00       228.86
  325.79        2981.75           1647          58.00       228.86
  325.82        2982.00           1650          55.00       215.78
  325.85        2982.25           1653          57.00       224.50
  325.88        2982.50           1657          59.00       233.22
  325.91        2982.75           1660          62.00       246.30
  325.94        2983.00           1663          62.00       246.30
  325.97        2983.25           1667          62.00       246.30
  326.00        2983.50           1670          55.00       215.78
  326.03        2983.75           1673          54.00       211.42
  326.06        2984.00           1677          64.00       255.02
HS scan finished at 05:26:17
end
************************************************************
  HS Scan of (1) Internal mercury lamp
************************************************************
Integration time is 0.2294 seconds per sample
dh181217Manchester 53.47 2.23 2.804185pr1000
************************************************************
Dead Time -------------------------  3E-08 
Number of Cycles Used -------------  4 
Starting Wavelength (Angstroms) ---  2950 
Final Wavelength (Angstoms) -------  2984 
Wavelength Increment (Angstroms) --  .25 
Filter Wheel #1 Position ---------- (1) Ground quartz diffuser (ND=2.32)
Filter Wheel #2 Position ---------- (1) Neutral Density 0.494



************************************************************
HS scan start time = 16:42:01
Dark Count =  6 


Time (GMT)  Wavelength (Ang)  Step Number  Raw Counts  Counts/Second

 1002.38        2950.00           1222          66.00       261.55
 1002.45        2950.25           1226          63.00       248.48
 1002.48        2950.50           1229          65.00       257.19
 1002.51        2950.75           1232          64.00       252.84
 1002.54        2951.00           1236          65.00       257.19
 1002.57        2951.25           1239          58.00       226.68
 1002.60        2951.50           1242          70.00       278.99
 1002.63        2951.75           1246          69.00       274.63
 1002.66        2952.00           1249          69.00       274.63
 1002.69        2952.25           1252          59.00       231.04
 1002.72        2952.50           1256          60.00       235.40
 1002.75        2952.75           1259          74.00       296.43
 1002.78        2953.00           1262          63.00       248.48
 1002.82        2953.25           1266          60.00       235.40
 1002.85        2953.50           1269          63.00       248.48
 1002.88        2953.75           1272          61.00       239.76
 1002.91        2954.00           1276          66.00       261.55
 1002.94        2954.25           1279          67.00       265.91
 1002.97        2954.50           1282          62.00       244.12
 1003.00        2954.75           1286          66.00       261.55
 1003.03        2955.00           1289          59.00       231.04
 1003.06        2955.25           1292          72.00       287.71
 1003.09        2955.50           1296          66.00       261.55
 1003.13        2955.75           1299          63.00       248.48
 1003.16        2956.00           1302          58.00       226.68
 1003.19        2956.25           1306          61.00       239.76
 1003.22        2956.50           1309          64.00       252.84
 1003.25        2956.75           1312          65.00       257.19
 1003.28        2957.00           1316          61.00       239.76
 1003.31        2957.25           1319          71.00       283.35
 1003.34        2957.50           1322          57.00       222.32
 1003.37        2957.75           1326          71.00       283.35
 1003.40        2958.00           1329          63.00       248.48
 1003.43        2958.25           1332          60.00       235.40
 1003.46        2958.50           1336          53.00       204.88
 1003.50        2958.75           1339          61.00       239.76
 1003.53        2959.00           1342          85.00       344.38
 1003.56        2959.25           1346          66.00       261.55
 1003.59        2959.50           1349          79.00       318.22
 1003.62        2959.75           1352          90.00       366.18
 1003.65        2960.00           1356         127.00       527.47
 1003.68        2960.25           1359         163.00       684.41
 1003.71        2960.50           1362         207.00       876.22
 1003.74        2960.75           1366         243.00      1033.16
 1003.77        2961.00           1369         288.00      1229.34
 1003.80        2961.25           1372         331.00      1416.80
 1003.84        2961.50           1376         425.00      1826.60
 1003.87        2961.75           1379         614.00      2650.60
 1003.90        2962.00           1382        1388.00      6025.50
 1003.93        2962.25           1386        3098.00     13484.09
 1003.96        2962.50           1389        4545.00     19798.16
 1003.99        2962.75           1392        6117.00     26660.37
 1004.02        2963.00           1396        8043.00     35071.76
 1004.05        2963.25           1399        9479.00     41345.94
 1004.09        2963.50           1402       11005.00     48015.94
 1004.12        2963.75           1406       13048.00     56949.88
 1004.15        2964.00           1409       14630.00     63871.18
 1004.18        2964.25           1412       16229.00     70869.78
 1004.21        2964.50           1416       18161.00     79329.81
 1004.24        2964.75           1419       19799.00     86505.81
 1004.27        2965.00           1422       21379.00     93430.66
 1004.30        2965.25           1426       23690.00    103564.50
 1004.33        2965.50           1429       25241.00    110369.20
 1004.36        2965.75           1432       26724.00    116878.20
 1004.40        2966.00           1436       28636.00    125273.80
 1004.43        2966.25           1439       30017.00    131340.40
 1004.46        2966.50           1442       31286.00    136917.00
 1004.49        2966.75           1446       32528.00    142376.70
 1004.52        2967.00           1449       33002.00    144460.80
 1004.55        2967.25           1452       32889.00    143963.90
 1004.58        2967.50           1456       32904.00    144029.90
 1004.61        2967.75           1459       32851.00    143796.90
 1004.64        2968.00           1462       32574.00    142578.90
 1004.68        2968.25           1466       31344.00    137171.90
 1004.71        2968.50           1469       29996.00    131248.10
 1004.74        2968.75           1472       28587.00    125058.60
 1004.77        2969.00           1476       26559.00    116153.80
 1004.80        2969.25           1479       25170.00    110057.60
 1004.83        2969.50           1482       23887.00    104428.70
 1004.86        2969.75           1486       21889.00     95666.50
 1004.89        2970.00           1489       20297.00     88688.14
 1004.92        2970.25           1492       18971.00     82878.00
 1004.96        2970.50           1496       16813.00     73426.61
 1004.99        2970.75           1499       15339.00     66974.02
 1005.02        2971.00           1502       13636.00     59522.07
 1005.05        2971.25           1506       11807.00     51522.47
 1005.08        2971.50           1509       10127.00     44177.96
 1005.11        2971.75           1513        8203.00     35770.72
 1005.14        2972.00           1516        6626.00     28882.91
 1005.17        2972.25           1519        5147.00     22425.72
 1005.20        2972.50           1523        3194.00     13902.92
 1005.24        2972.75           1526        1839.00      7992.33
 1005.27        2973.00           1529         796.00      3444.12
 1005.30        2973.25           1533         399.00      1713.25
 1005.33        2973.50           1536         310.00      1325.25
 1005.36        2973.75           1539         252.00      1072.40
 1005.39        2974.00           1543         215.00       911.10
 1005.42        2974.25           1546         152.00       636.46
 1005.45        2974.50           1549         129.00       536.19
 1005.48        2974.75           1553          96.00       392.33
 1005.51        2975.00           1556          74.00       296.43
 1005.55        2975.25           1559          70.00       278.99
 1005.58        2975.50           1563          70.00       278.99
 1005.61        2975.75           1566          61.00       239.76
 1005.64        2976.00           1569          64.00       252.84
 1005.67        2976.25           1573          61.00       239.76
 1005.70        2976.50           1576          59.00       231.04
 1005.73        2976.75           1579          64.00       252.84
 1005.76        2977.00           1583          55.00       213.60
 1005.79        2977.25           1586          68.00       270.27
 1005.82        2977.50           1590          58.00       226.68
 1005.85        2977.75           1593          61.00       239.76
 1005.88        2978.00           1596          53.00       204.88
 1005.91        2978.25           1600          58.00       226.68
 1005.95        2978.50           1603          62.00       244.12
 1005.98        2978.75           1606          59.00       231.04
 1006.01        2979.00           1610          58.00       226.68
 1006.04        2979.25           1613          59.00       231.04
 1006.07        2979.50           1616          61.00       239.76
 1006.10        2979.75           1620          58.00       226.68
 1006.13        2980.00           1623          64.00       252.84
 1006.16        2980.25           1626          59.00       231.04
 1006.19        2980.50           1630          56.00       217.96
 1006.22        2980.75           1633          57.00       222.32
 1006.26        2981.00           1637          55.00       213.60
 1006.29        2981.25           1640          47.00       178.73
 1006.32        2981.50           1643          60.00       235.40
 1006.35        2981.75           1647          60.00       235.40
 1006.38        2982.00           1650          54.00       209.24
 1006.41        2982.25           1653          50.00       191.81
 1006.44        2982.50           1657          52.00       200.52
 1006.47        2982.75           1660          63.00       248.48
 1006.50        2983.00           1663          58.00       226.68
 1006.53        2983.25           1667          57.00       222.32
 1006.56        2983.50           1670          57.00       222.32
 1006.59        2983.75           1673          57.00       222.32
 1006.62        2984.00           1677          64.00       252.84
HS scan finished at 16:46:50
end
