************************************************************
  HS Scan of (1) Internal mercury lamp
************************************************************
Integration time is 0.2294 seconds per sample
dh231218Manchester 53.47 2.23 2.804185pr1000
************************************************************
Dead Time -------------------------  3E-08 
Number of Cycles Used -------------  4 
Starting Wavelength (Angstroms) ---  2950 
Final Wavelength (Angstoms) -------  2984 
Wavelength Increment (Angstroms) --  .25 
Filter Wheel #1 Position ---------- (1) Ground quartz diffuser (ND=2.32)
Filter Wheel #2 Position ---------- (1) Neutral Density 0.494



************************************************************
HS scan start time = 05:24:03
Dark Count =  6.4 


Time (GMT)  Wavelength (Ang)  Step Number  Raw Counts  Counts/Second

  324.42        2950.00           1222          50.00       190.06
  324.49        2950.25           1226          55.00       211.86
  324.52        2950.50           1229          46.00       172.63
  324.55        2950.75           1232          54.00       207.50
  324.58        2951.00           1236          54.00       207.50
  324.61        2951.25           1239          48.00       181.34
  324.64        2951.50           1242          50.00       190.06
  324.68        2951.75           1246          60.00       233.65
  324.71        2952.00           1249          56.00       216.22
  324.74        2952.25           1252          49.00       185.70
  324.77        2952.50           1256          56.00       216.22
  324.80        2952.75           1259          53.00       203.14
  324.83        2953.00           1262          54.00       207.50
  324.86        2953.25           1266          61.00       238.01
  324.89        2953.50           1269          57.00       220.58
  324.92        2953.75           1272          59.00       229.30
  324.95        2954.00           1276          49.00       185.70
  324.98        2954.25           1279          57.00       220.58
  325.02        2954.50           1282          47.00       176.98
  325.05        2954.75           1286          56.00       216.22
  325.08        2955.00           1289          53.00       203.14
  325.11        2955.25           1292          49.00       185.70
  325.14        2955.50           1296          49.00       185.70
  325.17        2955.75           1299          54.00       207.50
  325.20        2956.00           1302          50.00       190.06
  325.23        2956.25           1306          59.00       229.30
  325.26        2956.50           1309          57.00       220.58
  325.29        2956.75           1312          54.00       207.50
  325.32        2957.00           1316          48.00       181.34
  325.35        2957.25           1319          50.00       190.06
  325.38        2957.50           1322          50.00       190.06
  325.42        2957.75           1326          53.00       203.14
  325.45        2958.00           1329          61.00       238.01
  325.48        2958.25           1332          52.00       198.78
  325.51        2958.50           1336          54.00       207.50
  325.54        2958.75           1339          58.00       224.94
  325.57        2959.00           1342          55.00       211.86
  325.60        2959.25           1346          56.00       216.22
  325.63        2959.50           1349          58.00       224.94
  325.66        2959.75           1352          76.00       303.40
  325.69        2960.00           1356          88.00       355.71
  325.72        2960.25           1359         112.00       460.34
  325.75        2960.50           1362         144.00       599.84
  325.78        2960.75           1366         188.00       791.65
  325.81        2961.00           1369         221.00       935.51
  325.85        2961.25           1372         252.00      1070.65
  325.88        2961.50           1376         288.00      1227.60
  325.91        2961.75           1379         395.00      1694.07
  325.94        2962.00           1382         765.00      3307.22
  325.97        2962.25           1386        2038.00      8858.50
  326.00        2962.50           1389        3168.00     13787.74
  326.03        2962.75           1392        4322.00     18823.18
  326.06        2963.00           1396        5850.00     25492.90
  326.09        2963.25           1399        7156.00     31195.70
  326.12        2963.50           1402        8181.00     35672.86
  326.15        2963.75           1406        9843.00     42934.96
  326.18        2964.00           1409       10891.00     47515.81
  326.21        2964.25           1412       12173.00     53121.21
  326.25        2964.50           1416       13750.00     60019.05
  326.28        2964.75           1419       14789.00     64565.22
  326.31        2965.00           1422       16099.00     70298.93
  326.34        2965.25           1426       17570.00     76739.68
  326.37        2965.50           1429       18937.00     82727.30
  326.40        2965.75           1432       20069.00     87687.21
  326.43        2966.00           1436       21761.00     95103.56
  326.46        2966.25           1439       22775.00     99549.69
  326.49        2966.50           1442       23875.00    104374.30
  326.53        2966.75           1446       25124.00    109854.00
  326.56        2967.00           1449       25533.00    111648.80
  326.59        2967.25           1452       25628.00    112065.80
  326.62        2967.50           1456       25682.00    112302.80
  326.65        2967.75           1459       25609.00    111982.40
  326.68        2968.00           1462       25615.00    112008.70
  326.71        2968.25           1466       24867.00    108726.40
  326.74        2968.50           1469       24074.00    105247.20
  326.77        2968.75           1472       22916.00    100168.00
  326.80        2969.00           1476       21250.00     92863.40
  326.84        2969.25           1479       20139.00     87993.98
  326.87        2969.50           1482       18876.00     82460.06
  326.90        2969.75           1486       17491.00     76393.71
  326.93        2970.00           1489       16453.00     71848.69
  326.96        2970.25           1492       15214.00     66425.18
  326.99        2970.50           1496       13680.00     59712.81
  327.02        2970.75           1499       12343.00     53864.65
  327.05        2971.00           1502       11330.00     49435.08
  327.08        2971.25           1506        9566.00     41724.38
  327.11        2971.50           1509        8434.00     36778.13
  327.14        2971.75           1513        6977.00     30413.96
  327.18        2972.00           1516        5782.00     25196.02
  327.21        2972.25           1519        4549.00     19813.87
  327.24        2972.50           1523        2937.00     12779.97
  327.27        2972.75           1526        1787.00      7763.80
  327.30        2973.00           1529         863.00      3734.51
  327.33        2973.25           1533         357.00      1528.41
  327.36        2973.50           1536         264.00      1122.97
  327.39        2973.75           1539         228.00       966.03
  327.42        2974.00           1543         193.00       813.45
  327.45        2974.25           1546         160.00       669.59
  327.48        2974.50           1549         121.00       499.57
  327.51        2974.75           1553          84.00       338.28
  327.54        2975.00           1556          64.00       251.09
  327.58        2975.25           1559          62.00       242.37
  327.61        2975.50           1563          56.00       216.22
  327.64        2975.75           1566          46.00       172.63
  327.67        2976.00           1569          58.00       224.94
  327.70        2976.25           1573          59.00       229.30
  327.73        2976.50           1576          51.00       194.42
  327.76        2976.75           1579          51.00       194.42
  327.79        2977.00           1583          63.00       246.73
  327.82        2977.25           1586          52.00       198.78
  327.85        2977.50           1590          51.00       194.42
  327.89        2977.75           1593          52.00       198.78
  327.92        2978.00           1596          48.00       181.34
  327.95        2978.25           1600          48.00       181.34
  327.98        2978.50           1603          53.00       203.14
  328.01        2978.75           1606          52.00       198.78
  328.04        2979.00           1610          47.00       176.98
  328.07        2979.25           1613          45.00       168.27
  328.10        2979.50           1616          46.00       172.63
  328.13        2979.75           1620          47.00       176.98
  328.17        2980.00           1623          52.00       198.78
  328.20        2980.25           1626          52.00       198.78
  328.23        2980.50           1630          53.00       203.14
  328.26        2980.75           1633          56.00       216.22
  328.29        2981.00           1637          44.00       163.91
  328.32        2981.25           1640          54.00       207.50
  328.35        2981.50           1643          48.00       181.34
  328.38        2981.75           1647          41.00       150.83
  328.41        2982.00           1650          39.00       142.11
  328.44        2982.25           1653          49.00       185.70
  328.48        2982.50           1657          51.00       194.42
  328.51        2982.75           1660          59.00       229.30
  328.54        2983.00           1663          53.00       203.14
  328.57        2983.25           1667          47.00       176.98
  328.60        2983.50           1670          52.00       198.78
  328.63        2983.75           1673          46.00       172.63
  328.66        2984.00           1677          49.00       185.70
HS scan finished at 05:28:53
end
************************************************************
  HS Scan of (1) Internal mercury lamp
************************************************************
Integration time is 0.2294 seconds per sample
dh231218Manchester 53.47 2.23 2.804185pr1000
************************************************************
Dead Time -------------------------  3E-08 
Number of Cycles Used -------------  4 
Starting Wavelength (Angstroms) ---  2950 
Final Wavelength (Angstoms) -------  2984 
Wavelength Increment (Angstroms) --  .25 
Filter Wheel #1 Position ---------- (1) Ground quartz diffuser (ND=2.32)
Filter Wheel #2 Position ---------- (1) Neutral Density 0.494



************************************************************
HS scan start time = 16:42:02
Dark Count =  4.9 


Time (GMT)  Wavelength (Ang)  Step Number  Raw Counts  Counts/Second

 1002.40        2950.00           1222          59.00       235.83
 1002.46        2950.25           1226          53.00       209.68
 1002.49        2950.50           1229          61.00       244.55
 1002.52        2950.75           1232          54.00       214.04
 1002.56        2951.00           1236          56.00       222.76
 1002.59        2951.25           1239          48.00       187.88
 1002.62        2951.50           1242          66.00       266.35
 1002.65        2951.75           1246          51.00       200.96
 1002.68        2952.00           1249          48.00       187.88
 1002.71        2952.25           1252          55.00       218.40
 1002.74        2952.50           1256          50.00       196.60
 1002.77        2952.75           1259          51.00       200.96
 1002.80        2953.00           1262          57.00       227.12
 1002.83        2953.25           1266          58.00       231.48
 1002.86        2953.50           1269          55.00       218.40
 1002.89        2953.75           1272          54.00       214.04
 1002.92        2954.00           1276          54.00       214.04
 1002.95        2954.25           1279          49.00       192.24
 1002.98        2954.50           1282          61.00       244.55
 1003.02        2954.75           1286          57.00       227.12
 1003.05        2955.00           1289          52.00       205.32
 1003.08        2955.25           1292          55.00       218.40
 1003.11        2955.50           1296          53.00       209.68
 1003.14        2955.75           1299          58.00       231.48
 1003.17        2956.00           1302          55.00       218.40
 1003.20        2956.25           1306          55.00       218.40
 1003.23        2956.50           1309          47.00       183.52
 1003.26        2956.75           1312          54.00       214.04
 1003.29        2957.00           1316          57.00       227.12
 1003.32        2957.25           1319          58.00       231.48
 1003.36        2957.50           1322          58.00       231.48
 1003.39        2957.75           1326          55.00       218.40
 1003.42        2958.00           1329          60.00       240.19
 1003.45        2958.25           1332          62.00       248.91
 1003.48        2958.50           1336          56.00       222.76
 1003.51        2958.75           1339          56.00       222.76
 1003.54        2959.00           1342          53.00       209.68
 1003.57        2959.25           1346          61.00       244.55
 1003.60        2959.50           1349          58.00       231.48
 1003.63        2959.75           1352          73.00       296.86
 1003.66        2960.00           1356          90.00       370.97
 1003.69        2960.25           1359         110.00       458.16
 1003.72        2960.50           1362         158.00       667.41
 1003.75        2960.75           1366         182.00       772.03
 1003.79        2961.00           1369         224.00       955.13
 1003.82        2961.25           1372         248.00      1059.75
 1003.85        2961.50           1376         286.00      1225.42
 1003.88        2961.75           1379         419.00      1805.24
 1003.91        2962.00           1382         855.00      3706.17
 1003.94        2962.25           1386        2107.00      9165.99
 1003.97        2962.50           1389        3184.00     13864.09
 1004.00        2962.75           1392        4432.00     19309.79
 1004.03        2963.00           1396        5978.00     26058.29
 1004.07        2963.25           1399        7048.00     30730.59
 1004.10        2963.50           1402        8226.00     35875.99
 1004.13        2963.75           1406        9841.00     42932.77
 1004.16        2964.00           1409       11034.00     48147.52
 1004.19        2964.25           1412       12152.00     53035.94
 1004.22        2964.50           1416       13614.00     59430.63
 1004.25        2964.75           1419       14781.00     64536.78
 1004.28        2965.00           1422       15952.00     69662.00
 1004.31        2965.25           1426       17489.00     76391.53
 1004.34        2965.50           1429       18698.00     81686.85
 1004.37        2965.75           1432       19933.00     87097.82
 1004.40        2966.00           1436       21542.00     94150.03
 1004.44        2966.25           1439       22728.00     99350.18
 1004.47        2966.50           1442       23703.00    103626.40
 1004.50        2966.75           1446       24989.00    109268.20
 1004.53        2967.00           1449       25287.00    110575.90
 1004.56        2967.25           1452       25107.00    109786.00
 1004.59        2967.50           1456       25250.00    110413.50
 1004.62        2967.75           1459       25222.00    110290.70
 1004.65        2968.00           1462       25279.00    110540.80
 1004.68        2968.25           1466       24666.00    107851.00
 1004.71        2968.50           1469       23665.00    103459.70
 1004.74        2968.75           1472       22577.00     98687.99
 1004.77        2969.00           1476       21060.00     92037.12
 1004.81        2969.25           1479       19851.00     86738.49
 1004.84        2969.50           1482       18586.00     81196.25
 1004.87        2969.75           1486       17197.00     75112.83
 1004.90        2970.00           1489       16015.00     69937.78
 1004.93        2970.25           1492       14901.00     65061.91
 1004.96        2970.50           1496       13448.00     58704.43
 1004.99        2970.75           1499       12294.00     53656.92
 1005.02        2971.00           1502       11098.00     48427.33
 1005.05        2971.25           1506        9582.00     41800.86
 1005.08        2971.50           1509        8273.00     36081.32
 1005.12        2971.75           1513        6678.00     29114.78
 1005.15        2972.00           1516        5667.00     24700.51
 1005.18        2972.25           1519        4422.00     19266.15
 1005.21        2972.50           1523        2865.00     12472.41
 1005.24        2972.75           1526        1763.00      7665.67
 1005.27        2973.00           1529         805.00      3488.16
 1005.30        2973.25           1533         347.00      1491.35
 1005.33        2973.50           1536         274.00      1173.10
 1005.36        2973.75           1539         238.00      1016.16
 1005.39        2974.00           1543         191.00       811.27
 1005.42        2974.25           1546         164.00       693.56
 1005.45        2974.50           1549         116.00       484.31
 1005.48        2974.75           1553          89.00       366.61
 1005.51        2975.00           1556          71.00       288.15
 1005.55        2975.25           1559          54.00       214.04
 1005.58        2975.50           1563          48.00       187.88
 1005.61        2975.75           1566          52.00       205.32
 1005.64        2976.00           1569          47.00       183.52
 1005.67        2976.25           1573          48.00       187.88
 1005.70        2976.50           1576          51.00       200.96
 1005.73        2976.75           1579          50.00       196.60
 1005.76        2977.00           1583          60.00       240.19
 1005.79        2977.25           1586          48.00       187.88
 1005.82        2977.50           1590          48.00       187.88
 1005.85        2977.75           1593          46.00       179.16
 1005.88        2978.00           1596          54.00       214.04
 1005.91        2978.25           1600          54.00       214.04
 1005.94        2978.50           1603          45.00       174.80
 1005.98        2978.75           1606          51.00       200.96
 1006.01        2979.00           1610          54.00       214.04
 1006.04        2979.25           1613          51.00       200.96
 1006.07        2979.50           1616          51.00       200.96
 1006.10        2979.75           1620          50.00       196.60
 1006.13        2980.00           1623          56.00       222.76
 1006.16        2980.25           1626          48.00       187.88
 1006.21        2980.50           1630          43.00       166.09
 1006.24        2980.75           1633          49.00       192.24
 1006.27        2981.00           1637          60.00       240.19
 1006.30        2981.25           1640          53.00       209.68
 1006.34        2981.50           1643          56.00       222.76
 1006.37        2981.75           1647          40.00       153.01
 1006.40        2982.00           1650          45.00       174.80
 1006.43        2982.25           1653          52.00       205.32
 1006.46        2982.50           1657          48.00       187.88
 1006.49        2982.75           1660          49.00       192.24
 1006.52        2983.00           1663          52.00       205.32
 1006.55        2983.25           1667          45.00       174.80
 1006.58        2983.50           1670          48.00       187.88
 1006.61        2983.75           1673          52.00       205.32
 1006.64        2984.00           1677          50.00       196.60
HS scan finished at 16:46:52
end
