************************************************************
  HS Scan of (1) Internal mercury lamp
************************************************************
Integration time is 0.2294 seconds per sample
dh221218Manchester 53.47 2.23 2.804185pr1000
************************************************************
Dead Time -------------------------  3E-08 
Number of Cycles Used -------------  4 
Starting Wavelength (Angstroms) ---  2950 
Final Wavelength (Angstoms) -------  2984 
Wavelength Increment (Angstroms) --  .25 
Filter Wheel #1 Position ---------- (1) Ground quartz diffuser (ND=2.32)
Filter Wheel #2 Position ---------- (1) Neutral Density 0.494



************************************************************
HS scan start time = 05:23:35
Dark Count =  5.1 


Time (GMT)  Wavelength (Ang)  Step Number  Raw Counts  Counts/Second

  323.95        2950.00           1222          58.00       230.60
  324.02        2950.25           1226          51.00       200.09
  324.05        2950.50           1229          60.00       239.32
  324.08        2950.75           1232          55.00       217.53
  324.11        2951.00           1236          52.00       204.45
  324.14        2951.25           1239          52.00       204.45
  324.17        2951.50           1242          55.00       217.53
  324.20        2951.75           1246          52.00       204.45
  324.23        2952.00           1249          58.00       230.60
  324.26        2952.25           1252          66.00       265.48
  324.29        2952.50           1256          57.00       226.24
  324.32        2952.75           1259          50.00       195.73
  324.35        2953.00           1262          58.00       230.60
  324.39        2953.25           1266          62.00       248.04
  324.42        2953.50           1269          55.00       217.53
  324.45        2953.75           1272          51.00       200.09
  324.48        2954.00           1276          60.00       239.32
  324.51        2954.25           1279          54.00       213.17
  324.54        2954.50           1282          62.00       248.04
  324.57        2954.75           1286          54.00       213.17
  324.60        2955.00           1289          57.00       226.24
  324.63        2955.25           1292          52.00       204.45
  324.66        2955.50           1296          58.00       230.60
  324.69        2955.75           1299          63.00       252.40
  324.73        2956.00           1302          62.00       248.04
  324.76        2956.25           1306          57.00       226.24
  324.79        2956.50           1309          58.00       230.60
  324.82        2956.75           1312          53.00       208.81
  324.85        2957.00           1316          52.00       204.45
  324.88        2957.25           1319          53.00       208.81
  324.91        2957.50           1322          58.00       230.60
  324.94        2957.75           1326          53.00       208.81
  324.97        2958.00           1329          55.00       217.53
  325.00        2958.25           1332          55.00       217.53
  325.03        2958.50           1336          55.00       217.53
  325.06        2958.75           1339          57.00       226.24
  325.10        2959.00           1342          53.00       208.81
  325.13        2959.25           1346          57.00       226.24
  325.16        2959.50           1349          59.00       234.96
  325.19        2959.75           1352          75.00       304.71
  325.22        2960.00           1356          85.00       348.30
  325.25        2960.25           1359         116.00       483.44
  325.28        2960.50           1362         150.00       631.66
  325.31        2960.75           1366         177.00       749.36
  325.34        2961.00           1369         188.00       797.32
  325.38        2961.25           1372         263.00      1124.28
  325.41        2961.50           1376         277.00      1185.31
  325.44        2961.75           1379         381.00      1638.70
  325.47        2962.00           1382         739.00      3199.52
  325.50        2962.25           1386        1966.00      8550.14
  325.53        2962.50           1389        2984.00     12990.68
  325.56        2962.75           1392        4187.00     18239.71
  325.59        2963.00           1396        5810.00     25323.94
  325.62        2963.25           1399        7017.00     30594.33
  325.66        2963.50           1402        8079.00     35232.95
  325.69        2963.75           1406        9761.00     42582.27
  325.72        2964.00           1409       10802.00     47132.43
  325.75        2964.25           1412       12074.00     52693.96
  325.78        2964.50           1416       13687.00     59749.12
  325.81        2964.75           1419       14886.00     64995.41
  325.84        2965.00           1422       16195.00     70724.88
  325.87        2965.25           1426       17656.00     77122.00
  325.90        2965.50           1429       18696.00     81677.23
  325.93        2965.75           1432       20110.00     87872.59
  325.97        2966.00           1436       21527.00     94083.40
  326.00        2966.25           1439       22506.00     98375.79
  326.03        2966.50           1442       23813.00    104108.00
  326.06        2966.75           1446       25073.00    109636.00
  326.09        2967.00           1449       25564.00    111790.60
  326.12        2967.25           1452       25522.00    111606.30
  326.15        2967.50           1456       25733.00    112532.30
  326.18        2967.75           1459       25703.00    112400.60
  326.21        2968.00           1462       25544.00    111702.80
  326.24        2968.25           1466       25025.00    109425.30
  326.28        2968.50           1469       24084.00    105296.80
  326.31        2968.75           1472       22946.00    100305.30
  326.34        2969.00           1476       21574.00     94289.44
  326.37        2969.25           1479       20157.00     88078.56
  326.40        2969.50           1482       19050.00     83228.04
  326.43        2969.75           1486       17540.00     76614.00
  326.46        2970.00           1489       16580.00     72410.40
  326.49        2970.25           1492       15299.00     66802.88
  326.52        2970.50           1496       13671.00     59679.12
  326.55        2970.75           1499       12474.00     54443.26
  326.58        2971.00           1502       11246.00     49073.51
  326.62        2971.25           1506        9534.00     41590.22
  326.65        2971.50           1509        8468.00     36932.35
  326.68        2971.75           1513        6977.00     30419.64
  326.71        2972.00           1516        5696.00     24826.24
  326.74        2972.25           1519        4638.00     20207.98
  326.77        2972.50           1523        3129.00     13623.27
  326.80        2972.75           1526        1976.00      8593.76
  326.83        2973.00           1529         907.00      3932.03
  326.86        2973.25           1533         362.00      1555.87
  326.89        2973.50           1536         265.00      1132.99
  326.92        2973.75           1539         222.00       945.54
  326.95        2974.00           1543         179.00       758.08
  326.98        2974.25           1546         141.00       592.43
  327.01        2974.50           1549         106.00       439.85
  327.05        2974.75           1553          97.00       400.62
  327.08        2975.00           1556          69.00       278.56
  327.11        2975.25           1559          53.00       208.81
  327.14        2975.50           1563          51.00       200.09
  327.17        2975.75           1566          52.00       204.45
  327.20        2976.00           1569          53.00       208.81
  327.23        2976.25           1573          52.00       204.45
  327.26        2976.50           1576          55.00       217.53
  327.29        2976.75           1579          56.00       221.88
  327.32        2977.00           1583          49.00       191.37
  327.35        2977.25           1586          52.00       204.45
  327.39        2977.50           1590          51.00       200.09
  327.42        2977.75           1593          51.00       200.09
  327.45        2978.00           1596          53.00       208.81
  327.48        2978.25           1600          56.00       221.88
  327.51        2978.50           1603          55.00       217.53
  327.54        2978.75           1606          52.00       204.45
  327.57        2979.00           1610          52.00       204.45
  327.60        2979.25           1613          51.00       200.09
  327.63        2979.50           1616          55.00       217.53
  327.66        2979.75           1620          55.00       217.53
  327.69        2980.00           1623          48.00       187.01
  327.72        2980.25           1626          57.00       226.24
  327.75        2980.50           1630          51.00       200.09
  327.78        2980.75           1633          48.00       187.01
  327.81        2981.00           1637          56.00       221.88
  327.85        2981.25           1640          52.00       204.45
  327.88        2981.50           1643          47.00       182.65
  327.91        2981.75           1647          45.00       173.93
  327.94        2982.00           1650          46.00       178.29
  327.97        2982.25           1653          54.00       213.17
  328.00        2982.50           1657          48.00       187.01
  328.03        2982.75           1660          54.00       213.17
  328.06        2983.00           1663          46.00       178.29
  328.09        2983.25           1667          50.00       195.73
  328.13        2983.50           1670          51.00       200.09
  328.16        2983.75           1673          49.00       191.37
  328.19        2984.00           1677          45.00       173.93
HS scan finished at 05:28:24
end
************************************************************
  HS Scan of (1) Internal mercury lamp
************************************************************
Integration time is 0.2294 seconds per sample
dh221218Manchester 53.47 2.23 2.804185pr1000
************************************************************
Dead Time -------------------------  3E-08 
Number of Cycles Used -------------  4 
Starting Wavelength (Angstroms) ---  2950 
Final Wavelength (Angstoms) -------  2984 
Wavelength Increment (Angstroms) --  .25 
Filter Wheel #1 Position ---------- (1) Ground quartz diffuser (ND=2.32)
Filter Wheel #2 Position ---------- (1) Neutral Density 0.494



************************************************************
HS scan start time = 16:42:03
Dark Count =  5.6 


Time (GMT)  Wavelength (Ang)  Step Number  Raw Counts  Counts/Second

 1002.42        2950.00           1222          51.00       197.91
 1002.48        2950.25           1226          52.00       202.27
 1002.51        2950.50           1229          48.00       184.83
 1002.55        2950.75           1232          58.00       228.42
 1002.58        2951.00           1236          55.00       215.35
 1002.61        2951.25           1239          57.00       224.06
 1002.64        2951.50           1242          54.00       210.99
 1002.67        2951.75           1246          54.00       210.99
 1002.70        2952.00           1249          68.00       272.02
 1002.73        2952.25           1252          58.00       228.42
 1002.76        2952.50           1256          53.00       206.63
 1002.79        2952.75           1259          61.00       241.50
 1002.82        2953.00           1262          49.00       189.19
 1002.85        2953.25           1266          55.00       215.35
 1002.89        2953.50           1269          63.00       250.22
 1002.92        2953.75           1272          52.00       202.27
 1002.95        2954.00           1276          53.00       206.63
 1002.98        2954.25           1279          56.00       219.71
 1003.01        2954.50           1282          53.00       206.63
 1003.04        2954.75           1286          55.00       215.35
 1003.07        2955.00           1289          55.00       215.35
 1003.10        2955.25           1292          52.00       202.27
 1003.13        2955.50           1296          54.00       210.99
 1003.16        2955.75           1299          51.00       197.91
 1003.19        2956.00           1302          51.00       197.91
 1003.23        2956.25           1306          53.00       206.63
 1003.26        2956.50           1309          56.00       219.71
 1003.29        2956.75           1312          44.00       167.39
 1003.32        2957.00           1316          58.00       228.42
 1003.35        2957.25           1319          56.00       219.71
 1003.38        2957.50           1322          59.00       232.78
 1003.41        2957.75           1326          56.00       219.71
 1003.44        2958.00           1329          57.00       224.06
 1003.47        2958.25           1332          60.00       237.14
 1003.50        2958.50           1336          54.00       210.99
 1003.53        2958.75           1339          56.00       219.71
 1003.57        2959.00           1342          54.00       210.99
 1003.60        2959.25           1346          54.00       210.99
 1003.63        2959.50           1349          62.00       245.86
 1003.66        2959.75           1352          69.00       276.38
 1003.69        2960.00           1356          89.00       363.56
 1003.72        2960.25           1359         106.00       437.67
 1003.75        2960.50           1362         136.00       568.45
 1003.78        2960.75           1366         158.00       664.36
 1003.81        2961.00           1369         210.00       891.04
 1003.84        2961.25           1372         232.00       986.95
 1003.87        2961.50           1376         306.00      1309.55
 1003.91        2961.75           1379         464.00      1998.38
 1003.94        2962.00           1382        1076.00      4666.74
 1003.97        2962.25           1386        2360.00     10266.46
 1004.00        2962.50           1389        3486.00     15178.66
 1004.03        2962.75           1392        4608.00     20074.86
 1004.06        2963.00           1396        6119.00     26670.85
 1004.09        2963.25           1399        7239.00     31561.69
 1004.12        2963.50           1402        8376.00     36528.24
 1004.15        2963.75           1406       10015.00     43690.19
 1004.18        2964.00           1409       11222.00     48966.39
 1004.22        2964.25           1412       12361.00     53946.87
 1004.25        2964.50           1416       14118.00     61632.60
 1004.28        2964.75           1419       15377.00     67142.09
 1004.31        2965.00           1422       16486.00     71996.66
 1004.34        2965.25           1426       18126.00     79178.28
 1004.37        2965.50           1429       19338.00     84487.63
 1004.40        2965.75           1432       20508.00     89614.62
 1004.43        2966.00           1436       21929.00     95843.63
 1004.46        2966.25           1439       23024.00    100645.20
 1004.50        2966.50           1442       23974.00    104812.10
 1004.53        2966.75           1446       25004.00    109331.00
 1004.56        2967.00           1449       25342.00    110814.20
 1004.59        2967.25           1452       25241.00    110371.00
 1004.62        2967.50           1456       25290.00    110586.00
 1004.65        2967.75           1459       25449.00    111283.70
 1004.68        2968.00           1462       25220.00    110278.80
 1004.71        2968.25           1466       24181.00    105720.10
 1004.74        2968.50           1469       23065.00    100825.00
 1004.77        2968.75           1472       22100.00     96593.38
 1004.80        2969.00           1476       20706.00     90482.42
 1004.84        2969.25           1479       19618.00     85714.47
 1004.87        2969.50           1482       18491.00     80777.03
 1004.90        2969.75           1486       17009.00     74286.56
 1004.93        2970.00           1489       15707.00     68586.50
 1004.96        2970.25           1492       14672.00     64056.73
 1004.99        2970.50           1496       13054.00     56977.87
 1005.02        2970.75           1499       11921.00     52022.72
 1005.05        2971.00           1502       10658.00     46500.74
 1005.08        2971.25           1506        9026.00     39368.18
 1005.12        2971.50           1509        7819.00     34095.02
 1005.15        2971.75           1513        6433.00     28041.89
 1005.18        2972.00           1516        5203.00     22671.91
 1005.21        2972.25           1519        4064.00     17700.77
 1005.24        2972.50           1523        2637.00     11474.74
 1005.27        2972.75           1526        1600.00      6951.76
 1005.30        2973.00           1529         732.00      3166.82
 1005.33        2973.25           1533         332.00      1422.90
 1005.36        2973.50           1536         250.00      1065.42
 1005.39        2973.75           1539         236.00      1004.39
 1005.43        2974.00           1543         204.00       864.89
 1005.46        2974.25           1546         139.00       581.53
 1005.49        2974.50           1549         111.00       459.47
 1005.52        2974.75           1553          88.00       359.20
 1005.55        2975.00           1556          66.00       263.30
 1005.58        2975.25           1559          65.00       258.94
 1005.61        2975.50           1563          54.00       210.99
 1005.64        2975.75           1566          60.00       237.14
 1005.67        2976.00           1569          63.00       250.22
 1005.70        2976.25           1573          48.00       184.83
 1005.73        2976.50           1576          47.00       180.47
 1005.76        2976.75           1579          46.00       176.11
 1005.79        2977.00           1583          47.00       180.47
 1005.82        2977.25           1586          54.00       210.99
 1005.86        2977.50           1590          47.00       180.47
 1005.89        2977.75           1593          56.00       219.71
 1005.92        2978.00           1596          59.00       232.78
 1005.95        2978.25           1600          65.00       258.94
 1005.98        2978.50           1603          55.00       215.35
 1006.01        2978.75           1606          51.00       197.91
 1006.04        2979.00           1610          49.00       189.19
 1006.07        2979.25           1613          49.00       189.19
 1006.10        2979.50           1616          51.00       197.91
 1006.13        2979.75           1620          44.00       167.39
 1006.16        2980.00           1623          55.00       215.35
 1006.19        2980.25           1626          51.00       197.91
 1006.22        2980.50           1630          45.00       171.75
 1006.26        2980.75           1633          50.00       193.55
 1006.29        2981.00           1637          52.00       202.27
 1006.32        2981.25           1640          55.00       215.35
 1006.35        2981.50           1643          48.00       184.83
 1006.38        2981.75           1647          52.00       202.27
 1006.41        2982.00           1650          50.00       193.55
 1006.44        2982.25           1653          51.00       197.91
 1006.47        2982.50           1657          47.00       180.47
 1006.50        2982.75           1660          53.00       206.63
 1006.53        2983.00           1663          49.00       189.19
 1006.56        2983.25           1667          51.00       197.91
 1006.59        2983.50           1670          53.00       206.63
 1006.63        2983.75           1673          54.00       210.99
 1006.66        2984.00           1677          62.00       245.86
HS scan finished at 16:46:52
end
