************************************************************
  HS Scan of (1) Internal mercury lamp
************************************************************
Integration time is 0.2294 seconds per sample
dh191218Manchester 53.47 2.23 2.804185pr1000
************************************************************
Dead Time -------------------------  3E-08 
Number of Cycles Used -------------  4 
Starting Wavelength (Angstroms) ---  2950 
Final Wavelength (Angstoms) -------  2984 
Wavelength Increment (Angstroms) --  .25 
Filter Wheel #1 Position ---------- (1) Ground quartz diffuser (ND=2.32)
Filter Wheel #2 Position ---------- (1) Neutral Density 0.494



************************************************************
HS scan start time = 05:21:57
Dark Count =  6.5 


Time (GMT)  Wavelength (Ang)  Step Number  Raw Counts  Counts/Second

  322.32        2950.00           1222          52.00       198.34
  322.39        2950.25           1226          58.00       224.50
  322.42        2950.50           1229          61.00       237.58
  322.45        2950.75           1232          58.00       224.50
  322.48        2951.00           1236          54.00       207.06
  322.51        2951.25           1239          49.00       185.27
  322.54        2951.50           1242          55.00       211.42
  322.58        2951.75           1246          52.00       198.34
  322.61        2952.00           1249          55.00       211.42
  322.64        2952.25           1252          54.00       207.06
  322.67        2952.50           1256          48.00       180.91
  322.70        2952.75           1259          52.00       198.34
  322.73        2953.00           1262          55.00       211.42
  322.76        2953.25           1266          59.00       228.86
  322.79        2953.50           1269          58.00       224.50
  322.82        2953.75           1272          56.00       215.78
  322.85        2954.00           1276          57.00       220.14
  322.89        2954.25           1279          56.00       215.78
  322.92        2954.50           1282          55.00       211.42
  322.95        2954.75           1286          63.00       246.30
  322.98        2955.00           1289          54.00       207.06
  323.01        2955.25           1292          51.00       193.99
  323.04        2955.50           1296          54.00       207.06
  323.07        2955.75           1299          61.00       237.58
  323.10        2956.00           1302          54.00       207.06
  323.13        2956.25           1306          61.00       237.58
  323.16        2956.50           1309          50.00       189.63
  323.19        2956.75           1312          58.00       224.50
  323.23        2957.00           1316          50.00       189.63
  323.26        2957.25           1319          56.00       215.78
  323.29        2957.50           1322          66.00       259.37
  323.32        2957.75           1326          57.00       220.14
  323.35        2958.00           1329          55.00       211.42
  323.38        2958.25           1332          59.00       228.86
  323.41        2958.50           1336          47.00       176.55
  323.44        2958.75           1339          53.00       202.70
  323.47        2959.00           1342          49.00       185.27
  323.50        2959.25           1346          52.00       198.34
  323.53        2959.50           1349          62.00       241.94
  323.56        2959.75           1352          57.00       220.14
  323.59        2960.00           1356          97.00       394.51
  323.62        2960.25           1359         111.00       455.54
  323.66        2960.50           1362         144.00       599.40
  323.69        2960.75           1366         187.00       786.85
  323.72        2961.00           1369         205.00       865.32
  323.75        2961.25           1372         229.00       969.95
  323.78        2961.50           1376         298.00      1270.75
  323.81        2961.75           1379         383.00      1641.32
  323.84        2962.00           1382         662.00      2857.70
  323.87        2962.25           1386        1877.00      8155.88
  323.90        2962.50           1389        3012.00     13106.72
  323.93        2962.75           1392        4172.00     18168.14
  323.96        2963.00           1396        5806.00     25300.36
  324.00        2963.25           1399        6925.00     30186.44
  324.03        2963.50           1402        8099.00     35314.20
  324.06        2963.75           1406        9666.00     42160.97
  324.09        2964.00           1409       10799.00     47113.19
  324.12        2964.25           1412       12142.00     52985.21
  324.15        2964.50           1416       13759.00     60057.99
  324.18        2964.75           1419       14971.00     65361.26
  324.21        2965.00           1422       16215.00     70806.31
  324.24        2965.25           1426       17760.00     77571.33
  324.28        2965.50           1429       18929.00     82691.81
  324.31        2965.75           1432       20221.00     88352.88
  324.34        2966.00           1436       21629.00     94524.43
  324.37        2966.25           1439       22815.00     99724.68
  324.40        2966.50           1442       23780.00    103957.10
  324.43        2966.75           1446       25369.00    110928.70
  324.46        2967.00           1449       25828.00    112943.10
  324.49        2967.25           1452       25922.00    113355.60
  324.52        2967.50           1456       26010.00    113741.90
  324.56        2967.75           1459       25706.00    112407.60
  324.59        2968.00           1462       25788.00    112767.50
  324.62        2968.25           1466       25414.00    111126.20
  324.65        2968.50           1469       24327.00    106356.70
  324.68        2968.75           1472       23169.00    101277.20
  324.71        2969.00           1476       21801.00     95278.49
  324.74        2969.25           1479       20572.00     89891.16
  324.77        2969.50           1482       19287.00     84260.24
  324.80        2969.75           1486       18070.00     78929.05
  324.83        2970.00           1489       16876.00     73700.27
  324.87        2970.25           1492       15628.00     68236.76
  324.90        2970.50           1496       13974.00     60998.62
  324.93        2970.75           1499       12688.00     55373.08
  324.96        2971.00           1502       11404.00     49758.18
  324.99        2971.25           1506        9839.00     42917.04
  325.02        2971.50           1509        8557.00     37315.08
  325.05        2971.75           1513        7200.00     31387.43
  325.08        2972.00           1516        5954.00     25946.52
  325.11        2972.25           1519        4771.00     20782.35
  325.14        2972.50           1523        3293.00     14332.67
  325.17        2972.75           1526        2159.00      9385.82
  325.20        2973.00           1529        1105.00      4789.27
  325.23        2973.25           1533         380.00      1628.24
  325.27        2973.50           1536         266.00      1131.25
  325.30        2973.75           1539         225.00       952.51
  325.33        2974.00           1543         196.00       826.09
  325.36        2974.25           1546         145.00       603.76
  325.39        2974.50           1549         113.00       464.26
  325.42        2974.75           1553          78.00       311.69
  325.45        2975.00           1556          81.00       324.76
  325.48        2975.25           1559          52.00       198.34
  325.51        2975.50           1563          52.00       198.34
  325.54        2975.75           1566          49.00       185.27
  325.57        2976.00           1569          55.00       211.42
  325.60        2976.25           1573          53.00       202.70
  325.63        2976.50           1576          51.00       193.99
  325.66        2976.75           1579          58.00       224.50
  325.70        2977.00           1583          61.00       237.58
  325.73        2977.25           1586          52.00       198.34
  325.76        2977.50           1590          57.00       220.14
  325.79        2977.75           1593          52.00       198.34
  325.82        2978.00           1596          58.00       224.50
  325.85        2978.25           1600          49.00       185.27
  325.88        2978.50           1603          54.00       207.06
  325.91        2978.75           1606          51.00       193.99
  325.94        2979.00           1610          45.00       167.83
  325.98        2979.25           1613          54.00       207.06
  326.01        2979.50           1616          52.00       198.34
  326.04        2979.75           1620          49.00       185.27
  326.07        2980.00           1623          39.00       141.67
  326.10        2980.25           1626          51.00       193.99
  326.13        2980.50           1630          43.00       159.11
  326.16        2980.75           1633          48.00       180.91
  326.19        2981.00           1637          40.00       146.03
  326.22        2981.25           1640          58.00       224.50
  326.25        2981.50           1643          53.00       202.70
  326.29        2981.75           1647          49.00       185.27
  326.32        2982.00           1650          47.00       176.55
  326.35        2982.25           1653          55.00       211.42
  326.38        2982.50           1657          45.00       167.83
  326.41        2982.75           1660          50.00       189.63
  326.44        2983.00           1663          47.00       176.55
  326.47        2983.25           1667          47.00       176.55
  326.50        2983.50           1670          49.00       185.27
  326.53        2983.75           1673          41.00       150.39
  326.56        2984.00           1677          47.00       176.55
HS scan finished at 05:26:47
end
************************************************************
  HS Scan of (1) Internal mercury lamp
************************************************************
Integration time is 0.2294 seconds per sample
dh191218Manchester 53.47 2.23 2.804185pr1000
************************************************************
Dead Time -------------------------  3E-08 
Number of Cycles Used -------------  4 
Starting Wavelength (Angstroms) ---  2950 
Final Wavelength (Angstoms) -------  2984 
Wavelength Increment (Angstroms) --  .25 
Filter Wheel #1 Position ---------- (1) Ground quartz diffuser (ND=2.32)
Filter Wheel #2 Position ---------- (1) Neutral Density 0.494



************************************************************
HS scan start time = 16:42:05
Dark Count =  5.3 


Time (GMT)  Wavelength (Ang)  Step Number  Raw Counts  Counts/Second

 1002.46        2950.00           1222          49.00       190.50
 1002.53        2950.25           1226          54.00       212.29
 1002.56        2950.50           1229          57.00       225.37
 1002.59        2950.75           1232          51.00       199.22
 1002.62        2951.00           1236          57.00       225.37
 1002.65        2951.25           1239          60.00       238.45
 1002.68        2951.50           1242          50.00       194.86
 1002.71        2951.75           1246          54.00       212.29
 1002.74        2952.00           1249          55.00       216.65
 1002.77        2952.25           1252          57.00       225.37
 1002.80        2952.50           1256          60.00       238.45
 1002.84        2952.75           1259          55.00       216.65
 1002.87        2953.00           1262          53.00       207.94
 1002.90        2953.25           1266          48.00       186.14
 1002.93        2953.50           1269          53.00       207.94
 1002.96        2953.75           1272          52.00       203.58
 1002.99        2954.00           1276          52.00       203.58
 1003.02        2954.25           1279          54.00       212.29
 1003.05        2954.50           1282          54.00       212.29
 1003.08        2954.75           1286          55.00       216.65
 1003.11        2955.00           1289          51.00       199.22
 1003.14        2955.25           1292          52.00       203.58
 1003.17        2955.50           1296          55.00       216.65
 1003.21        2955.75           1299          60.00       238.45
 1003.24        2956.00           1302          55.00       216.65
 1003.27        2956.25           1306          54.00       212.29
 1003.30        2956.50           1309          58.00       229.73
 1003.33        2956.75           1312          46.00       177.42
 1003.36        2957.00           1316          58.00       229.73
 1003.39        2957.25           1319          52.00       203.58
 1003.42        2957.50           1322          54.00       212.29
 1003.45        2957.75           1326          53.00       207.94
 1003.48        2958.00           1329          55.00       216.65
 1003.51        2958.25           1332          61.00       242.81
 1003.54        2958.50           1336          54.00       212.29
 1003.57        2958.75           1339          49.00       190.50
 1003.60        2959.00           1342          57.00       225.37
 1003.64        2959.25           1346          52.00       203.58
 1003.67        2959.50           1349          65.00       260.25
 1003.70        2959.75           1352          72.00       290.76
 1003.73        2960.00           1356         103.00       425.90
 1003.76        2960.25           1359         114.00       473.85
 1003.79        2960.50           1362         148.00       622.07
 1003.82        2960.75           1366         182.00       770.29
 1003.85        2961.00           1369         224.00       953.38
 1003.88        2961.25           1372         244.00      1040.57
 1003.91        2961.50           1376         310.00      1328.30
 1003.94        2961.75           1379         423.00      1820.94
 1003.97        2962.00           1382         903.00      3913.71
 1004.01        2962.25           1386        2096.00      9116.27
 1004.04        2962.50           1389        3228.00     14054.31
 1004.07        2962.75           1392        4311.00     18779.98
 1004.10        2963.00           1396        5821.00     25371.09
 1004.13        2963.25           1399        7060.00     30781.25
 1004.16        2963.50           1402        8231.00     35896.09
 1004.19        2963.75           1406        9794.00     42725.61
 1004.22        2964.00           1409       11102.00     48443.07
 1004.25        2964.25           1412       12457.00     54368.03
 1004.28        2964.50           1416       14053.00     61349.52
 1004.32        2964.75           1419       15100.00     65931.07
 1004.35        2965.00           1422       16502.00     72068.02
 1004.38        2965.25           1426       18093.00     79035.03
 1004.41        2965.50           1429       19327.00     84440.74
 1004.44        2965.75           1432       20538.00     89747.41
 1004.47        2966.00           1436       21938.00     95884.40
 1004.50        2966.25           1439       23188.00    101365.80
 1004.53        2966.50           1442       24062.00    105199.40
 1004.56        2966.75           1446       25313.00    110688.20
 1004.59        2967.00           1449       25662.00    112219.80
 1004.62        2967.25           1452       25724.00    112491.90
 1004.66        2967.50           1456       25540.00    111684.40
 1004.69        2967.75           1459       25441.00    111249.90
 1004.72        2968.00           1462       25418.00    111149.00
 1004.75        2968.25           1466       24785.00    108371.40
 1004.78        2968.50           1469       23738.00    103778.10
 1004.81        2968.75           1472       22773.00     99545.74
 1004.84        2969.00           1476       21167.00     92504.40
 1004.87        2969.25           1479       20070.00     87696.42
 1004.90        2969.50           1482       18825.00     82241.46
 1004.94        2969.75           1486       17359.00     75820.49
 1004.97        2970.00           1489       16065.00     70154.91
 1005.00        2970.25           1492       15040.00     65668.48
 1005.03        2970.50           1496       13403.00     58505.82
 1005.06        2970.75           1499       12366.00     53970.05
 1005.09        2971.00           1502       11035.00     48150.15
 1005.12        2971.25           1506        9527.00     41558.76
 1005.15        2971.50           1509        8264.00     36040.26
 1005.18        2971.75           1513        6723.00     29309.55
 1005.21        2972.00           1516        5695.00     24821.01
 1005.24        2972.25           1519        4465.00     19452.07
 1005.28        2972.50           1523        3008.00     13094.51
 1005.31        2972.75           1526        1892.00      8226.53
 1005.34        2973.00           1529         876.00      3795.99
 1005.37        2973.25           1533         348.00      1493.96
 1005.40        2973.50           1536         252.00      1075.45
 1005.43        2973.75           1539         197.00       835.68
 1005.46        2974.00           1543         177.00       748.49
 1005.49        2974.25           1546         130.00       543.60
 1005.52        2974.50           1549          96.00       395.38
 1005.55        2974.75           1553          69.00       277.68
 1005.58        2975.00           1556          60.00       238.45
 1005.61        2975.25           1559          64.00       255.89
 1005.65        2975.50           1563          54.00       212.29
 1005.68        2975.75           1566          53.00       207.94
 1005.71        2976.00           1569          56.00       221.01
 1005.74        2976.25           1573          50.00       194.86
 1005.77        2976.50           1576          56.00       221.01
 1005.80        2976.75           1579          52.00       203.58
 1005.83        2977.00           1583          52.00       203.58
 1005.86        2977.25           1586          54.00       212.29
 1005.89        2977.50           1590          54.00       212.29
 1005.92        2977.75           1593          45.00       173.06
 1005.95        2978.00           1596          47.00       181.78
 1005.98        2978.25           1600          55.00       216.65
 1006.01        2978.50           1603          49.00       190.50
 1006.05        2978.75           1606          50.00       194.86
 1006.08        2979.00           1610          56.00       221.01
 1006.11        2979.25           1613          52.00       203.58
 1006.14        2979.50           1616          51.00       199.22
 1006.17        2979.75           1620          56.00       221.01
 1006.20        2980.00           1623          49.00       190.50
 1006.23        2980.25           1626          42.00       159.98
 1006.26        2980.50           1630          42.00       159.98
 1006.29        2980.75           1633          58.00       229.73
 1006.32        2981.00           1637          43.00       164.34
 1006.35        2981.25           1640          55.00       216.65
 1006.38        2981.50           1643          48.00       186.14
 1006.41        2981.75           1647          58.00       229.73
 1006.44        2982.00           1650          50.00       194.86
 1006.47        2982.25           1653          59.00       234.09
 1006.51        2982.50           1657          51.00       199.22
 1006.54        2982.75           1660          51.00       199.22
 1006.57        2983.00           1663          49.00       190.50
 1006.60        2983.25           1667          50.00       194.86
 1006.63        2983.50           1670          49.00       190.50
 1006.66        2983.75           1673          46.00       177.42
 1006.69        2984.00           1677          46.00       177.42
HS scan finished at 16:46:54
end
