************************************************************
  HS Scan of (1) Internal mercury lamp
************************************************************
Integration time is 0.2294 seconds per sample
dh231217Manchester 53.47 2.23 2.804185pr1000
************************************************************
Dead Time -------------------------  3E-08 
Number of Cycles Used -------------  4 
Starting Wavelength (Angstroms) ---  2950 
Final Wavelength (Angstoms) -------  2984 
Wavelength Increment (Angstroms) --  .25 
Filter Wheel #1 Position ---------- (1) Ground quartz diffuser (ND=2.32)
Filter Wheel #2 Position ---------- (1) Neutral Density 0.494



************************************************************
HS scan start time = 05:24:09
Dark Count =  5.5 


Time (GMT)  Wavelength (Ang)  Step Number  Raw Counts  Counts/Second

  324.51        2950.00           1222          69.00       276.81
  324.58        2950.25           1226          65.00       259.37
  324.61        2950.50           1229          62.00       246.30
  324.64        2950.75           1232          61.00       241.94
  324.67        2951.00           1236          52.00       202.70
  324.70        2951.25           1239          65.00       259.37
  324.73        2951.50           1242          60.00       237.58
  324.76        2951.75           1246          67.00       268.09
  324.79        2952.00           1249          71.00       285.53
  324.82        2952.25           1252          68.00       272.45
  324.86        2952.50           1256          62.00       246.30
  324.89        2952.75           1259          82.00       333.48
  324.92        2953.00           1262          67.00       268.09
  324.95        2953.25           1266          59.00       233.22
  324.98        2953.50           1269          62.00       246.30
  325.01        2953.75           1272          75.00       302.97
  325.04        2954.00           1276          65.00       259.37
  325.07        2954.25           1279          64.00       255.02
  325.10        2954.50           1282          64.00       255.02
  325.13        2954.75           1286          61.00       241.94
  325.16        2955.00           1289          69.00       276.81
  325.19        2955.25           1292          67.00       268.09
  325.22        2955.50           1296          62.00       246.30
  325.25        2955.75           1299          67.00       268.09
  325.29        2956.00           1302          58.00       228.86
  325.32        2956.25           1306          69.00       276.81
  325.35        2956.50           1309          60.00       237.58
  325.38        2956.75           1312          67.00       268.09
  325.41        2957.00           1316          62.00       246.30
  325.44        2957.25           1319          60.00       237.58
  325.47        2957.50           1322          60.00       237.58
  325.50        2957.75           1326          57.00       224.50
  325.53        2958.00           1329          69.00       276.81
  325.56        2958.25           1332          68.00       272.45
  325.59        2958.50           1336          59.00       233.22
  325.62        2958.75           1339          65.00       259.37
  325.65        2959.00           1342          66.00       263.73
  325.68        2959.25           1346          64.00       255.02
  325.72        2959.50           1349          80.00       324.76
  325.75        2959.75           1352          91.00       372.72
  325.78        2960.00           1356         131.00       547.09
  325.81        2960.25           1359         147.00       616.84
  325.84        2960.50           1362         191.00       808.65
  325.87        2960.75           1366         241.00      1026.62
  325.90        2961.00           1369         283.00      1209.72
  325.93        2961.25           1372         316.00      1353.59
  325.96        2961.50           1376         381.00      1636.96
  325.99        2961.75           1379         493.00      2125.24
  326.02        2962.00           1382         899.00      3895.40
  326.05        2962.25           1386        2509.00     10916.83
  326.08        2962.50           1389        3886.00     16924.46
  326.11        2962.75           1392        5311.00     23143.79
  326.15        2963.00           1396        7299.00     31824.18
  326.18        2963.25           1399        8613.00     37564.11
  326.21        2963.50           1402       10212.00     44551.66
  326.24        2963.75           1406       12139.00     52976.46
  326.27        2964.00           1409       13678.00     59707.99
  326.30        2964.25           1412       15293.00     66774.88
  326.33        2964.50           1416       17438.00     76165.56
  326.36        2964.75           1419       18749.00     81907.65
  326.39        2965.00           1422       20414.00     89203.09
  326.43        2965.25           1426       22511.00     98395.96
  326.46        2965.50           1429       24101.00    105369.60
  326.49        2965.75           1432       25589.00    111898.60
  326.52        2966.00           1436       27631.00    120862.50
  326.55        2966.25           1439       29280.00    128104.70
  326.58        2966.50           1442       30668.00    134203.10
  326.61        2966.75           1446       32311.00    141424.80
  326.64        2967.00           1449       32806.00    143601.20
  326.67        2967.25           1452       32864.00    143856.20
  326.70        2967.50           1456       33060.00    144718.10
  326.73        2967.75           1459       32887.00    143957.30
  326.77        2968.00           1462       33016.00    144524.60
  326.80        2968.25           1466       32106.00    140523.60
  326.83        2968.50           1469       31026.00    135776.40
  326.86        2968.75           1472       29715.00    130015.70
  326.89        2969.00           1476       27857.00    121854.90
  326.92        2969.25           1479       26283.00    114944.50
  326.95        2969.50           1482       24690.00    107953.70
  326.98        2969.75           1486       22708.00     99259.84
  327.01        2970.00           1489       21261.00     92915.57
  327.05        2970.25           1492       19975.00     87279.24
  327.08        2970.50           1496       18088.00     79012.27
  327.11        2970.75           1499       16381.00     71537.41
  327.14        2971.00           1502       14738.00     64345.98
  327.17        2971.25           1506       12718.00     55508.67
  327.20        2971.50           1509       11109.00     48472.79
  327.23        2971.75           1513        9226.00     40242.54
  327.26        2972.00           1516        7434.00     32413.81
  327.29        2972.25           1519        6036.00     26308.90
  327.33        2972.50           1523        4093.00     17827.76
  327.36        2972.75           1526        2710.00     11793.62
  327.39        2973.00           1529        1375.00      5970.99
  327.42        2973.25           1533         501.00      2160.12
  327.45        2973.50           1536         325.00      1392.82
  327.48        2973.75           1539         255.00      1087.66
  327.51        2974.00           1543         223.00       948.15
  327.54        2974.25           1546         156.00       656.07
  327.57        2974.50           1549         120.00       499.14
  327.60        2974.75           1553          89.00       364.00
  327.63        2975.00           1556          77.00       311.69
  327.67        2975.25           1559          72.00       289.89
  327.70        2975.50           1563          56.00       220.14
  327.73        2975.75           1566          58.00       228.86
  327.76        2976.00           1569          61.00       241.94
  327.79        2976.25           1573          54.00       211.42
  327.82        2976.50           1576          64.00       255.02
  327.85        2976.75           1579          72.00       289.89
  327.88        2977.00           1583          66.00       263.73
  327.91        2977.25           1586          59.00       233.22
  327.94        2977.50           1590          62.00       246.30
  327.97        2977.75           1593          65.00       259.37
  328.00        2978.00           1596          57.00       224.50
  328.04        2978.25           1600          55.00       215.78
  328.07        2978.50           1603          55.00       215.78
  328.10        2978.75           1606          60.00       237.58
  328.13        2979.00           1610          55.00       215.78
  328.16        2979.25           1613          61.00       241.94
  328.19        2979.50           1616          56.00       220.14
  328.22        2979.75           1620          63.00       250.66
  328.25        2980.00           1623          55.00       215.78
  328.28        2980.25           1626          56.00       220.14
  328.31        2980.50           1630          53.00       207.06
  328.35        2980.75           1633          60.00       237.58
  328.38        2981.00           1637          51.00       198.34
  328.41        2981.25           1640          56.00       220.14
  328.44        2981.50           1643          63.00       250.66
  328.47        2981.75           1647          61.00       241.94
  328.50        2982.00           1650          58.00       228.86
  328.53        2982.25           1653          59.00       233.22
  328.56        2982.50           1657          63.00       250.66
  328.59        2982.75           1660          61.00       241.94
  328.63        2983.00           1663          54.00       211.42
  328.66        2983.25           1667          61.00       241.94
  328.69        2983.50           1670          61.00       241.94
  328.72        2983.75           1673          54.00       211.42
  328.75        2984.00           1677          59.00       233.22
HS scan finished at 05:28:58
end
************************************************************
  HS Scan of (1) Internal mercury lamp
************************************************************
Integration time is 0.2294 seconds per sample
dh231217Manchester 53.47 2.23 2.804185pr1000
************************************************************
Dead Time -------------------------  3E-08 
Number of Cycles Used -------------  4 
Starting Wavelength (Angstroms) ---  2950 
Final Wavelength (Angstoms) -------  2984 
Wavelength Increment (Angstroms) --  .25 
Filter Wheel #1 Position ---------- (1) Ground quartz diffuser (ND=2.32)
Filter Wheel #2 Position ---------- (1) Neutral Density 0.494



************************************************************
HS scan start time = 16:42:04
Dark Count =  6.1 


Time (GMT)  Wavelength (Ang)  Step Number  Raw Counts  Counts/Second

 1002.44        2950.00           1222          60.00       234.96
 1002.50        2950.25           1226          65.00       256.76
 1002.53        2950.50           1229          57.00       221.88
 1002.56        2950.75           1232          61.00       239.32
 1002.60        2951.00           1236          57.00       221.88
 1002.63        2951.25           1239          65.00       256.76
 1002.66        2951.50           1242          59.00       230.60
 1002.69        2951.75           1246          58.00       226.24
 1002.72        2952.00           1249          67.00       265.48
 1002.75        2952.25           1252          63.00       248.04
 1002.78        2952.50           1256          62.00       243.68
 1002.81        2952.75           1259          63.00       248.04
 1002.84        2953.00           1262          63.00       248.04
 1002.87        2953.25           1266          70.00       278.56
 1002.90        2953.50           1269          58.00       226.24
 1002.94        2953.75           1272          63.00       248.04
 1002.97        2954.00           1276          58.00       226.24
 1003.00        2954.25           1279          59.00       230.60
 1003.03        2954.50           1282          58.00       226.24
 1003.06        2954.75           1286          71.00       282.91
 1003.09        2955.00           1289          63.00       248.04
 1003.12        2955.25           1292          72.00       287.27
 1003.15        2955.50           1296          58.00       226.24
 1003.18        2955.75           1299          61.00       239.32
 1003.21        2956.00           1302          63.00       248.04
 1003.24        2956.25           1306          63.00       248.04
 1003.27        2956.50           1309          62.00       243.68
 1003.30        2956.75           1312          57.00       221.88
 1003.33        2957.00           1316          66.00       261.12
 1003.36        2957.25           1319          68.00       269.84
 1003.39        2957.50           1322          58.00       226.24
 1003.43        2957.75           1326          55.00       213.17
 1003.46        2958.00           1329          69.00       274.20
 1003.49        2958.25           1332          55.00       213.17
 1003.52        2958.50           1336          75.00       300.35
 1003.55        2958.75           1339          59.00       230.60
 1003.58        2959.00           1342          60.00       234.96
 1003.61        2959.25           1346          66.00       261.12
 1003.64        2959.50           1349          69.00       274.20
 1003.67        2959.75           1352          83.00       335.23
 1003.70        2960.00           1356         119.00       492.16
 1003.73        2960.25           1359         140.00       583.71
 1003.76        2960.50           1362         192.00       810.39
 1003.79        2960.75           1366         234.00       993.49
 1003.83        2961.00           1369         268.00      1141.71
 1003.86        2961.25           1372         312.00      1333.53
 1003.89        2961.50           1376         389.00      1669.22
 1003.92        2961.75           1379         608.00      2624.01
 1003.95        2962.00           1382        1356.00      5885.52
 1003.98        2962.25           1386        3187.00     13871.95
 1004.01        2962.50           1389        4669.00     20338.91
 1004.04        2962.75           1392        6121.00     26677.40
 1004.07        2963.00           1396        7994.00     34857.27
 1004.10        2963.25           1399        9500.00     41437.27
 1004.14        2963.50           1402       11074.00     48317.15
 1004.17        2963.75           1406       13045.00     56936.32
 1004.20        2964.00           1409       14604.00     63756.97
 1004.23        2964.25           1412       16059.00     70125.15
 1004.26        2964.50           1416       18146.00     79263.68
 1004.29        2964.75           1419       19724.00     86176.74
 1004.32        2965.00           1422       21125.00     92316.78
 1004.35        2965.25           1426       23288.00    101800.80
 1004.38        2965.50           1429       24914.00    108933.90
 1004.42        2965.75           1432       26267.00    114871.70
 1004.45        2966.00           1436       28432.00    124377.40
 1004.48        2966.25           1439       29866.00    130676.50
 1004.51        2966.50           1442       31009.00    135699.10
 1004.54        2966.75           1446       32196.00    140916.60
 1004.57        2967.00           1449       32605.00    142714.80
 1004.60        2967.25           1452       32640.00    142868.70
 1004.63        2967.50           1456       32740.00    143308.40
 1004.66        2967.75           1459       32541.00    142433.40
 1004.70        2968.00           1462       32422.00    141910.20
 1004.73        2968.25           1466       31170.00    136406.70
 1004.76        2968.50           1469       29827.00    130505.20
 1004.79        2968.75           1472       28641.00    125295.30
 1004.82        2969.00           1476       26651.00    116557.30
 1004.85        2969.25           1479       25015.00    109377.10
 1004.88        2969.50           1482       23555.00    102971.90
 1004.91        2969.75           1486       21580.00     94311.37
 1004.94        2970.00           1489       20087.00     87767.41
 1004.98        2970.25           1492       18653.00     81484.48
 1005.01        2970.50           1496       16677.00     72830.71
 1005.04        2970.75           1499       15192.00     66330.21
 1005.07        2971.00           1502       13492.00     58891.67
 1005.10        2971.25           1506       11522.00     50275.87
 1005.13        2971.50           1509        9985.00     43556.89
 1005.16        2971.75           1513        8088.00     35267.90
 1005.19        2972.00           1516        6543.00     28520.03
 1005.22        2972.25           1519        5071.00     22093.54
 1005.25        2972.50           1523        3156.00     13736.70
 1005.28        2972.75           1526        1752.00      7612.46
 1005.32        2973.00           1529         717.00      3099.24
 1005.35        2973.25           1533         392.00      1682.30
 1005.38        2973.50           1536         316.00      1350.97
 1005.41        2973.75           1539         278.00      1185.31
 1005.44        2974.00           1543         241.00      1024.01
 1005.47        2974.25           1546         158.00       662.18
 1005.50        2974.50           1549         130.00       540.11
 1005.53        2974.75           1553          87.00       352.66
 1005.56        2975.00           1556          71.00       282.91
 1005.59        2975.25           1559          60.00       234.96
 1005.62        2975.50           1563          51.00       195.73
 1005.65        2975.75           1566          58.00       226.24
 1005.68        2976.00           1569          53.00       204.45
 1005.71        2976.25           1573          61.00       239.32
 1005.74        2976.50           1576          55.00       213.17
 1005.77        2976.75           1579          55.00       213.17
 1005.81        2977.00           1583          49.00       187.01
 1005.84        2977.25           1586          68.00       269.84
 1005.87        2977.50           1590          68.00       269.84
 1005.90        2977.75           1593          60.00       234.96
 1005.93        2978.00           1596          61.00       239.32
 1005.96        2978.25           1600          62.00       243.68
 1005.99        2978.50           1603          60.00       234.96
 1006.02        2978.75           1606          58.00       226.24
 1006.05        2979.00           1610          65.00       256.76
 1006.08        2979.25           1613          55.00       213.17
 1006.11        2979.50           1616          58.00       226.24
 1006.15        2979.75           1620          57.00       221.88
 1006.18        2980.00           1623          66.00       261.12
 1006.21        2980.25           1626          62.00       243.68
 1006.24        2980.50           1630          56.00       217.53
 1006.27        2980.75           1633          57.00       221.88
 1006.30        2981.00           1637          56.00       217.53
 1006.33        2981.25           1640          60.00       234.96
 1006.36        2981.50           1643          57.00       221.88
 1006.39        2981.75           1647          58.00       226.24
 1006.42        2982.00           1650          54.00       208.81
 1006.45        2982.25           1653          56.00       217.53
 1006.48        2982.50           1657          50.00       191.37
 1006.51        2982.75           1660          48.00       182.65
 1006.54        2983.00           1663          53.00       204.45
 1006.58        2983.25           1667          54.00       208.81
 1006.61        2983.50           1670          63.00       248.04
 1006.64        2983.75           1673          50.00       191.37
 1006.67        2984.00           1677          50.00       191.37
HS scan finished at 16:46:53
end
