************************************************************
  HS Scan of (1) Internal mercury lamp
************************************************************
Integration time is 0.2294 seconds per sample
dh241218Manchester 53.47 2.23 2.804185pr1000
************************************************************
Dead Time -------------------------  3E-08 
Number of Cycles Used -------------  4 
Starting Wavelength (Angstroms) ---  2950 
Final Wavelength (Angstoms) -------  2984 
Wavelength Increment (Angstroms) --  .25 
Filter Wheel #1 Position ---------- (1) Ground quartz diffuser (ND=2.32)
Filter Wheel #2 Position ---------- (1) Neutral Density 0.494



************************************************************
HS scan start time = 05:24:25
Dark Count =  6 


Time (GMT)  Wavelength (Ang)  Step Number  Raw Counts  Counts/Second

  324.78        2950.00           1222          56.00       217.96
  324.85        2950.25           1226          65.00       257.19
  324.88        2950.50           1229          55.00       213.60
  324.91        2950.75           1232          47.00       178.73
  324.94        2951.00           1236          64.00       252.84
  324.97        2951.25           1239          55.00       213.60
  325.00        2951.50           1242          61.00       239.76
  325.03        2951.75           1246          45.00       170.01
  325.06        2952.00           1249          52.00       200.52
  325.09        2952.25           1252          53.00       204.88
  325.12        2952.50           1256          50.00       191.81
  325.15        2952.75           1259          53.00       204.88
  325.18        2953.00           1262          58.00       226.68
  325.21        2953.25           1266          53.00       204.88
  325.24        2953.50           1269          52.00       200.52
  325.28        2953.75           1272          54.00       209.24
  325.31        2954.00           1276          53.00       204.88
  325.34        2954.25           1279          55.00       213.60
  325.37        2954.50           1282          50.00       191.81
  325.40        2954.75           1286          57.00       222.32
  325.43        2955.00           1289          58.00       226.68
  325.46        2955.25           1292          55.00       213.60
  325.49        2955.50           1296          49.00       187.45
  325.52        2955.75           1299          55.00       213.60
  325.55        2956.00           1302          54.00       209.24
  325.58        2956.25           1306          57.00       222.32
  325.61        2956.50           1309          55.00       213.60
  325.65        2956.75           1312          56.00       217.96
  325.68        2957.00           1316          56.00       217.96
  325.71        2957.25           1319          63.00       248.48
  325.74        2957.50           1322          49.00       187.45
  325.77        2957.75           1326          52.00       200.52
  325.80        2958.00           1329          55.00       213.60
  325.83        2958.25           1332          52.00       200.52
  325.86        2958.50           1336          51.00       196.17
  325.89        2958.75           1339          65.00       257.19
  325.93        2959.00           1342          58.00       226.68
  325.96        2959.25           1346          61.00       239.76
  325.99        2959.50           1349          59.00       231.04
  326.02        2959.75           1352          70.00       278.99
  326.05        2960.00           1356          93.00       379.25
  326.08        2960.25           1359         119.00       492.60
  326.11        2960.50           1362         141.00       588.50
  326.14        2960.75           1366         169.00       710.56
  326.17        2961.00           1369         204.00       863.14
  326.20        2961.25           1372         230.00       976.49
  326.24        2961.50           1376         292.00      1246.78
  326.27        2961.75           1379         420.00      1804.81
  326.30        2962.00           1382         866.00      3749.33
  326.33        2962.25           1386        2153.00      9361.83
  326.36        2962.50           1389        3236.00     14086.16
  326.39        2962.75           1392        4455.00     19405.37
  326.42        2963.00           1396        6025.00     26258.69
  326.45        2963.25           1399        7157.00     31201.82
  326.48        2963.50           1402        8300.00     36194.47
  326.52        2963.75           1406        9877.00     43085.30
  326.55        2964.00           1409       11285.00     49240.08
  326.58        2964.25           1412       12468.00     54413.08
  326.61        2964.50           1416       13975.00     61005.19
  326.64        2964.75           1419       15077.00     65827.35
  326.67        2965.00           1422       16185.00     70677.16
  326.70        2965.25           1426       17777.00     77647.98
  326.73        2965.50           1429       19101.00     83447.53
  326.76        2965.75           1432       20335.00     88854.68
  326.79        2966.00           1436       21837.00     95438.51
  326.83        2966.25           1439       22908.00    100134.70
  326.86        2966.50           1442       23926.00    104599.70
  326.89        2966.75           1446       25012.00    109364.40
  326.92        2967.00           1449       25378.00    110970.40
  326.95        2967.25           1452       25133.00    109895.30
  326.98        2967.50           1456       25410.00    111110.80
  327.01        2967.75           1459       25289.00    110579.80
  327.04        2968.00           1462       25145.00    109947.90
  327.07        2968.25           1466       24344.00    106433.50
  327.11        2968.50           1469       23525.00    102840.80
  327.14        2968.75           1472       22140.00     96767.01
  327.17        2969.00           1476       20681.00     90371.09
  327.20        2969.25           1479       19557.00     85445.43
  327.23        2969.50           1482       18282.00     79859.80
  327.26        2969.75           1486       16653.00     72726.07
  327.29        2970.00           1489       15747.00     68759.83
  327.32        2970.25           1492       14487.00     63245.43
  327.35        2970.50           1496       13077.00     57076.73
  327.38        2970.75           1499       11888.00     51876.67
  327.42        2971.00           1502       10751.00     46905.54
  327.45        2971.25           1506        9284.00     40493.81
  327.48        2971.50           1509        8072.00     35198.44
  327.51        2971.75           1513        6474.00     28219.18
  327.54        2972.00           1516        5248.00     22866.60
  327.57        2972.25           1519        4071.00     17729.57
  327.60        2972.50           1523        2591.00     11272.34
  327.63        2972.75           1526        1585.00      6884.60
  327.66        2973.00           1529         713.00      3082.24
  327.70        2973.25           1533         341.00      1460.40
  327.73        2973.50           1536         245.00      1041.88
  327.76        2973.75           1539         219.00       928.54
  327.79        2974.00           1543         184.00       775.96
  327.82        2974.25           1546         128.00       531.83
  327.85        2974.50           1549         117.00       483.88
  327.88        2974.75           1553          77.00       309.51
  327.91        2975.00           1556          73.00       292.07
  327.94        2975.25           1559          58.00       226.68
  327.97        2975.50           1563          54.00       209.24
  328.01        2975.75           1566          55.00       213.60
  328.04        2976.00           1569          54.00       209.24
  328.07        2976.25           1573          52.00       200.52
  328.10        2976.50           1576          53.00       204.88
  328.13        2976.75           1579          49.00       187.45
  328.16        2977.00           1583          45.00       170.01
  328.19        2977.25           1586          50.00       191.81
  328.22        2977.50           1590          48.00       183.09
  328.25        2977.75           1593          55.00       213.60
  328.29        2978.00           1596          53.00       204.88
  328.32        2978.25           1600          52.00       200.52
  328.35        2978.50           1603          46.00       174.37
  328.38        2978.75           1606          60.00       235.40
  328.41        2979.00           1610          50.00       191.81
  328.44        2979.25           1613          54.00       209.24
  328.47        2979.50           1616          42.00       156.93
  328.50        2979.75           1620          51.00       196.17
  328.53        2980.00           1623          49.00       187.45
  328.56        2980.25           1626          59.00       231.04
  328.59        2980.50           1630          48.00       183.09
  328.63        2980.75           1633          47.00       178.73
  328.66        2981.00           1637          54.00       209.24
  328.69        2981.25           1640          55.00       213.60
  328.72        2981.50           1643          44.00       165.65
  328.75        2981.75           1647          49.00       187.45
  328.78        2982.00           1650          45.00       170.01
  328.81        2982.25           1653          49.00       187.45
  328.84        2982.50           1657          50.00       191.81
  328.87        2982.75           1660          51.00       196.17
  328.90        2983.00           1663          47.00       178.73
  328.93        2983.25           1667          49.00       187.45
  328.97        2983.50           1670          50.00       191.81
  329.00        2983.75           1673          55.00       213.60
  329.03        2984.00           1677          53.00       204.88
HS scan finished at 05:29:15
end
************************************************************
  HS Scan of (1) Internal mercury lamp
************************************************************
Integration time is 0.2294 seconds per sample
dh241218Manchester 53.47 2.23 2.804185pr1000
************************************************************
Dead Time -------------------------  3E-08 
Number of Cycles Used -------------  4 
Starting Wavelength (Angstroms) ---  2950 
Final Wavelength (Angstoms) -------  2984 
Wavelength Increment (Angstroms) --  .25 
Filter Wheel #1 Position ---------- (1) Ground quartz diffuser (ND=2.32)
Filter Wheel #2 Position ---------- (1) Neutral Density 0.494



************************************************************
HS scan start time = 16:42:01
Dark Count =  5.7 


Time (GMT)  Wavelength (Ang)  Step Number  Raw Counts  Counts/Second

 1002.39        2950.00           1222          49.00       188.75
 1002.46        2950.25           1226          51.00       197.47
 1002.49        2950.50           1229          61.00       241.07
 1002.52        2950.75           1232          58.00       227.99
 1002.55        2951.00           1236          55.00       214.91
 1002.58        2951.25           1239          57.00       223.63
 1002.61        2951.50           1242          54.00       210.55
 1002.65        2951.75           1246          52.00       201.83
 1002.68        2952.00           1249          54.00       210.55
 1002.71        2952.25           1252          51.00       197.47
 1002.74        2952.50           1256          64.00       254.14
 1002.77        2952.75           1259          53.00       206.19
 1002.80        2953.00           1262          57.00       223.63
 1002.83        2953.25           1266          50.00       193.11
 1002.86        2953.50           1269          57.00       223.63
 1002.89        2953.75           1272          52.00       201.83
 1002.92        2954.00           1276          43.00       162.60
 1002.95        2954.25           1279          51.00       197.47
 1002.99        2954.50           1282          54.00       210.55
 1003.02        2954.75           1286          53.00       206.19
 1003.05        2955.00           1289          54.00       210.55
 1003.08        2955.25           1292          51.00       197.47
 1003.11        2955.50           1296          56.00       219.27
 1003.14        2955.75           1299          57.00       223.63
 1003.17        2956.00           1302          54.00       210.55
 1003.20        2956.25           1306          56.00       219.27
 1003.23        2956.50           1309          61.00       241.07
 1003.26        2956.75           1312          49.00       188.75
 1003.29        2957.00           1316          54.00       210.55
 1003.32        2957.25           1319          45.00       171.32
 1003.35        2957.50           1322          62.00       245.42
 1003.39        2957.75           1326          57.00       223.63
 1003.42        2958.00           1329          60.00       236.71
 1003.45        2958.25           1332          49.00       188.75
 1003.48        2958.50           1336          55.00       214.91
 1003.51        2958.75           1339          57.00       223.63
 1003.54        2959.00           1342          52.00       201.83
 1003.57        2959.25           1346          61.00       241.07
 1003.60        2959.50           1349          58.00       227.99
 1003.63        2959.75           1352          67.00       267.22
 1003.66        2960.00           1356          93.00       380.56
 1003.69        2960.25           1359         128.00       533.14
 1003.72        2960.50           1362         150.00       629.04
 1003.75        2960.75           1366         170.00       716.23
 1003.79        2961.00           1369         212.00       899.33
 1003.82        2961.25           1372         235.00       999.59
 1003.85        2961.50           1376         280.00      1195.77
 1003.88        2961.75           1379         368.00      1579.41
 1003.91        2962.00           1382         731.00      3162.03
 1003.94        2962.25           1386        1933.00      8403.60
 1003.97        2962.50           1389        3091.00     13454.86
 1004.00        2962.75           1392        4157.00     18106.17
 1004.03        2963.00           1396        5650.00     24622.80
 1004.06        2963.25           1399        6755.00     29447.54
 1004.10        2963.50           1402        7857.00     34260.57
 1004.13        2963.75           1406        9522.00     41535.16
 1004.16        2964.00           1409       10704.00     46701.39
 1004.19        2964.25           1412       11881.00     51847.37
 1004.22        2964.50           1416       13521.00     59020.28
 1004.25        2964.75           1419       14564.00     63583.69
 1004.28        2965.00           1422       15916.00     69500.91
 1004.31        2965.25           1426       17436.00     76155.93
 1004.34        2965.50           1429       18544.00     81008.76
 1004.37        2965.75           1432       19617.00     85709.64
 1004.41        2966.00           1436       21303.00     93098.81
 1004.44        2966.25           1439       22272.00     97347.09
 1004.47        2966.50           1442       23303.00    101868.40
 1004.50        2966.75           1446       24517.00    107193.80
 1004.53        2967.00           1449       24957.00    109124.30
 1004.56        2967.25           1452       25110.00    109795.70
 1004.59        2967.50           1456       25031.00    109449.00
 1004.62        2967.75           1459       25085.00    109686.00
 1004.65        2968.00           1462       25073.00    109633.30
 1004.68        2968.25           1466       24388.00    106627.80
 1004.72        2968.50           1469       23363.00    102131.60
 1004.75        2968.75           1472       22490.00     98302.99
 1004.78        2969.00           1476       21067.00     92064.31
 1004.81        2969.25           1479       19820.00     86599.16
 1004.84        2969.50           1482       18839.00     82301.03
 1004.87        2969.75           1486       17207.00     75153.13
 1004.90        2970.00           1489       16158.00     70560.28
 1004.93        2970.25           1492       14736.00     64336.35
 1004.96        2970.50           1496       13299.00     58049.13
 1005.00        2970.75           1499       12092.00     52770.05
 1005.03        2971.00           1502       10973.00     47877.35
 1005.06        2971.25           1506        9533.00     41583.23
 1005.09        2971.50           1509        8303.00     36208.88
 1005.12        2971.75           1513        6844.00     29836.20
 1005.15        2972.00           1516        5595.00     24382.69
 1005.18        2972.25           1519        4540.00     19777.64
 1005.21        2972.50           1523        2984.00     12988.06
 1005.24        2972.75           1526        1827.00      7941.30
 1005.28        2973.00           1529         927.00      4016.61
 1005.31        2973.25           1533         354.00      1518.38
 1005.34        2973.50           1536         261.00      1112.94
 1005.37        2973.75           1539         231.00       982.16
 1005.40        2974.00           1543         180.00       759.83
 1005.43        2974.25           1546         138.00       576.73
 1005.46        2974.50           1549         109.00       450.31
 1005.49        2974.75           1553          78.00       315.17
 1005.52        2975.00           1556          67.00       267.22
 1005.55        2975.25           1559          53.00       206.19
 1005.58        2975.50           1563          52.00       201.83
 1005.61        2975.75           1566          56.00       219.27
 1005.64        2976.00           1569          50.00       193.11
 1005.68        2976.25           1573          51.00       197.47
 1005.71        2976.50           1576          54.00       210.55
 1005.74        2976.75           1579          52.00       201.83
 1005.77        2977.00           1583          52.00       201.83
 1005.80        2977.25           1586          55.00       214.91
 1005.83        2977.50           1590          51.00       197.47
 1005.86        2977.75           1593          50.00       193.11
 1005.89        2978.00           1596          53.00       206.19
 1005.92        2978.25           1600          60.00       236.71
 1005.95        2978.50           1603          47.00       180.04
 1005.98        2978.75           1606          54.00       210.55
 1006.01        2979.00           1610          47.00       180.04
 1006.05        2979.25           1613          59.00       232.35
 1006.08        2979.50           1616          51.00       197.47
 1006.11        2979.75           1620          48.00       184.40
 1006.14        2980.00           1623          45.00       171.32
 1006.17        2980.25           1626          56.00       219.27
 1006.20        2980.50           1630          52.00       201.83
 1006.23        2980.75           1633          49.00       188.75
 1006.26        2981.00           1637          53.00       206.19
 1006.29        2981.25           1640          49.00       188.75
 1006.32        2981.50           1643          49.00       188.75
 1006.36        2981.75           1647          45.00       171.32
 1006.39        2982.00           1650          60.00       236.71
 1006.42        2982.25           1653          54.00       210.55
 1006.45        2982.50           1657          42.00       158.24
 1006.48        2982.75           1660          46.00       175.68
 1006.51        2983.00           1663          48.00       184.40
 1006.54        2983.25           1667          46.00       175.68
 1006.57        2983.50           1670          44.00       166.96
 1006.60        2983.75           1673          39.00       145.16
 1006.63        2984.00           1677          49.00       188.75
HS scan finished at 16:46:51
end
