************************************************************
  HS Scan of (1) Internal mercury lamp
************************************************************
Integration time is 0.2294 seconds per sample
dh161217Manchester 53.47 2.23 2.750537pr1000
************************************************************
Dead Time -------------------------  3E-08 
Number of Cycles Used -------------  4 
Starting Wavelength (Angstroms) ---  2950 
Final Wavelength (Angstoms) -------  2984 
Wavelength Increment (Angstroms) --  .25 
Filter Wheel #1 Position ---------- (1) Ground quartz diffuser (ND=2.32)
Filter Wheel #2 Position ---------- (1) Neutral Density 0.494



************************************************************
HS scan start time = 05:20:10
Dark Count =  6.2 


Time (GMT)  Wavelength (Ang)  Step Number  Raw Counts  Counts/Second

  320.54        2950.00           1222          69.00       273.76
  320.61        2950.25           1226          64.00       251.96
  320.64        2950.50           1229          67.00       265.04
  320.67        2950.75           1232          65.00       256.32
  320.70        2951.00           1236          70.00       278.12
  320.73        2951.25           1239          61.00       238.89
  320.76        2951.50           1242          60.00       234.53
  320.79        2951.75           1246          65.00       256.32
  320.82        2952.00           1249          67.00       265.04
  320.85        2952.25           1252          68.00       269.40
  320.88        2952.50           1256          58.00       225.81
  320.91        2952.75           1259          63.00       247.60
  320.95        2953.00           1262          65.00       256.32
  320.98        2953.25           1266          70.00       278.12
  321.01        2953.50           1269          73.00       291.20
  321.04        2953.75           1272          56.00       217.09
  321.07        2954.00           1276          57.00       221.45
  321.10        2954.25           1279          67.00       265.04
  321.13        2954.50           1282          68.00       269.40
  321.16        2954.75           1286          67.00       265.04
  321.19        2955.00           1289          59.00       230.17
  321.22        2955.25           1292          56.00       217.09
  321.25        2955.50           1296          58.00       225.81
  321.28        2955.75           1299          70.00       278.12
  321.31        2956.00           1302          62.00       243.25
  321.34        2956.25           1306          64.00       251.96
  321.37        2956.50           1309          66.00       260.68
  321.41        2956.75           1312          64.00       251.96
  321.44        2957.00           1316          65.00       256.32
  321.47        2957.25           1319          57.00       221.45
  321.50        2957.50           1322          64.00       251.96
  321.53        2957.75           1326          64.00       251.96
  321.56        2958.00           1329          54.00       208.37
  321.59        2958.25           1332          61.00       238.89
  321.62        2958.50           1336          60.00       234.53
  321.65        2958.75           1339          64.00       251.96
  321.68        2959.00           1342          65.00       256.32
  321.71        2959.25           1346          68.00       269.40
  321.74        2959.50           1349          62.00       243.25
  321.77        2959.75           1352          76.00       304.27
  321.81        2960.00           1356          94.00       382.74
  321.84        2960.25           1359         121.00       500.44
  321.87        2960.50           1362         162.00       679.18
  321.90        2960.75           1366         213.00       901.51
  321.93        2961.00           1369         267.00      1136.92
  321.96        2961.25           1372         284.00      1211.03
  321.99        2961.50           1376         342.00      1463.88
  322.02        2961.75           1379         408.00      1751.62
  322.05        2962.00           1382         672.00      2902.61
  322.08        2962.25           1386        1881.00      8174.63
  322.11        2962.50           1389        3433.00     14944.80
  322.14        2962.75           1392        4904.00     21364.17
  322.18        2963.00           1396        6942.00     30261.99
  322.21        2963.25           1399        8416.00     36700.37
  322.24        2963.50           1402        9871.00     43058.21
  322.27        2963.75           1406       11949.00     52142.53
  322.30        2964.00           1409       13417.00     58563.14
  322.33        2964.25           1412       15010.00     65533.25
  322.36        2964.50           1416       17152.00     74910.10
  322.39        2964.75           1419       18677.00     81589.18
  322.42        2965.00           1422       20160.00     88086.88
  322.45        2965.25           1426       22449.00     98121.02
  322.48        2965.50           1429       23890.00    104440.90
  322.52        2965.75           1432       25383.00    110991.50
  322.55        2966.00           1436       27505.00    120306.20
  322.58        2966.25           1439       29012.00    126924.40
  322.61        2966.50           1442       30247.00    132350.10
  322.64        2966.75           1446       32002.00    140063.30
  322.67        2967.00           1449       32963.00    144288.40
  322.70        2967.25           1452       33128.00    145014.00
  322.73        2967.50           1456       33377.00    146109.00
  322.76        2967.75           1459       33299.00    145766.00
  322.79        2968.00           1462       33130.00    145022.80
  322.83        2968.25           1466       32565.00    142538.50
  322.86        2968.50           1469       31404.00    137434.70
  322.89        2968.75           1472       30322.00    132679.60
  322.92        2969.00           1476       28254.00    123595.20
  322.95        2969.25           1479       26742.00    116956.30
  322.98        2969.50           1482       25123.00    109850.50
  323.01        2969.75           1486       23083.00    100901.30
  323.04        2970.00           1489       21477.00     93859.39
  323.07        2970.25           1492       20103.00     87837.09
  323.11        2970.50           1496       18302.00     79946.53
  323.14        2970.75           1499       16813.00     73425.74
  323.17        2971.00           1502       15338.00     66968.76
  323.20        2971.25           1506       13242.00     57797.60
  323.23        2971.50           1509       11579.00     50524.65
  323.26        2971.75           1513        9580.00     41786.44
  323.29        2972.00           1516        8079.00     35228.15
  323.32        2972.25           1519        6480.00     28244.50
  323.35        2972.50           1523        4676.00     20369.03
  323.38        2972.75           1526        3141.00     13670.82
  323.42        2973.00           1529        1831.00      7956.56
  323.45        2973.25           1533         622.00      2684.61
  323.48        2973.50           1536         362.00      1551.07
  323.51        2973.75           1539         293.00      1250.26
  323.54        2974.00           1543         247.00      1049.73
  323.57        2974.25           1546         181.00       762.01
  323.60        2974.50           1549         141.00       587.63
  323.63        2974.75           1553         104.00       426.34
  323.66        2975.00           1556          75.00       299.92
  323.69        2975.25           1559          66.00       260.68
  323.73        2975.50           1563          62.00       243.25
  323.76        2975.75           1566          64.00       251.96
  323.79        2976.00           1569          66.00       260.68
  323.82        2976.25           1573          55.00       212.73
  323.85        2976.50           1576          62.00       243.25
  323.88        2976.75           1579          70.00       278.12
  323.91        2977.00           1583          57.00       221.45
  323.94        2977.25           1586          68.00       269.40
  323.97        2977.50           1590          61.00       238.89
  324.00        2977.75           1593          60.00       234.53
  324.04        2978.00           1596          54.00       208.37
  324.07        2978.25           1600          57.00       221.45
  324.10        2978.50           1603          56.00       217.09
  324.13        2978.75           1606          56.00       217.09
  324.16        2979.00           1610          62.00       243.25
  324.19        2979.25           1613          56.00       217.09
  324.22        2979.50           1616          57.00       221.45
  324.25        2979.75           1620          63.00       247.60
  324.28        2980.00           1623          59.00       230.17
  324.31        2980.25           1626          62.00       243.25
  324.34        2980.50           1630          59.00       230.17
  324.37        2980.75           1633          63.00       247.60
  324.40        2981.00           1637          56.00       217.09
  324.44        2981.25           1640          62.00       243.25
  324.47        2981.50           1643          57.00       221.45
  324.50        2981.75           1647          55.00       212.73
  324.53        2982.00           1650          54.00       208.37
  324.56        2982.25           1653          68.00       269.40
  324.59        2982.50           1657          61.00       238.89
  324.62        2982.75           1660          59.00       230.17
  324.65        2983.00           1663          55.00       212.73
  324.68        2983.25           1667          59.00       230.17
  324.71        2983.50           1670          60.00       234.53
  324.74        2983.75           1673          58.00       225.81
  324.77        2984.00           1677          56.00       217.09
HS scan finished at 05:24:59
end
************************************************************
  HS Scan of (1) Internal mercury lamp
************************************************************
Integration time is 0.2294 seconds per sample
dh161217Manchester 53.47 2.23 2.804185pr1000
************************************************************
Dead Time -------------------------  3E-08 
Number of Cycles Used -------------  4 
Starting Wavelength (Angstroms) ---  2950 
Final Wavelength (Angstoms) -------  2984 
Wavelength Increment (Angstroms) --  .25 
Filter Wheel #1 Position ---------- (1) Ground quartz diffuser (ND=2.32)
Filter Wheel #2 Position ---------- (1) Neutral Density 0.494



************************************************************
HS scan start time = 16:42:03
Dark Count =  7.5 


Time (GMT)  Wavelength (Ang)  Step Number  Raw Counts  Counts/Second

 1002.42        2950.00           1222          58.00       220.14
 1002.49        2950.25           1226          64.00       246.30
 1002.52        2950.50           1229          69.00       268.09
 1002.55        2950.75           1232          74.00       289.89
 1002.58        2951.00           1236          66.00       255.02
 1002.61        2951.25           1239          69.00       268.09
 1002.64        2951.50           1242          62.00       237.58
 1002.67        2951.75           1246          72.00       281.17
 1002.70        2952.00           1249          59.00       224.50
 1002.73        2952.25           1252          66.00       255.02
 1002.76        2952.50           1256          66.00       255.02
 1002.79        2952.75           1259          58.00       220.14
 1002.82        2953.00           1262          67.00       259.37
 1002.85        2953.25           1266          61.00       233.22
 1002.89        2953.50           1269          69.00       268.09
 1002.92        2953.75           1272          63.00       241.94
 1002.95        2954.00           1276          64.00       246.30
 1002.98        2954.25           1279          70.00       272.45
 1003.01        2954.50           1282          64.00       246.30
 1003.04        2954.75           1286          68.00       263.73
 1003.07        2955.00           1289          62.00       237.58
 1003.10        2955.25           1292          60.00       228.86
 1003.13        2955.50           1296          67.00       259.37
 1003.17        2955.75           1299          72.00       281.17
 1003.20        2956.00           1302          59.00       224.50
 1003.23        2956.25           1306          63.00       241.94
 1003.26        2956.50           1309          68.00       263.73
 1003.29        2956.75           1312          62.00       237.58
 1003.32        2957.00           1316          76.00       298.61
 1003.35        2957.25           1319          64.00       246.30
 1003.38        2957.50           1322          60.00       228.86
 1003.41        2957.75           1326          63.00       241.94
 1003.44        2958.00           1329          58.00       220.14
 1003.48        2958.25           1332          63.00       241.94
 1003.51        2958.50           1336          67.00       259.37
 1003.54        2958.75           1339          68.00       263.73
 1003.57        2959.00           1342          60.00       228.86
 1003.60        2959.25           1346          58.00       220.14
 1003.63        2959.50           1349          71.00       276.81
 1003.66        2959.75           1352          85.00       337.84
 1003.69        2960.00           1356         127.00       520.93
 1003.72        2960.25           1359         148.00       612.48
 1003.75        2960.50           1362         201.00       843.53
 1003.78        2960.75           1366         238.00      1004.83
 1003.82        2961.00           1369         288.00      1222.80
 1003.85        2961.25           1372         316.00      1344.87
 1003.88        2961.50           1376         437.00      1872.38
 1003.91        2961.75           1379         721.00      3110.58
 1003.94        2962.00           1382        1579.00      6851.89
 1003.97        2962.25           1386        3369.00     14659.89
 1004.00        2962.50           1389        4756.00     20712.52
 1004.03        2962.75           1392        6260.00     27278.20
 1004.06        2963.00           1396        8264.00     36030.64
 1004.09        2963.25           1399        9887.00     43122.45
 1004.12        2963.50           1402       11298.00     49290.35
 1004.16        2963.75           1406       13303.00     58058.76
 1004.19        2964.00           1409       14993.00     65453.16
 1004.22        2964.25           1412       16696.00     72907.77
 1004.25        2964.50           1416       18745.00     81881.36
 1004.28        2964.75           1419       20222.00     88352.88
 1004.31        2965.00           1422       21873.00     95589.78
 1004.34        2965.25           1426       23890.00    104435.20
 1004.37        2965.50           1429       25302.00    110630.30
 1004.41        2965.75           1432       26629.00    116454.50
 1004.44        2966.00           1436       28806.00    126013.90
 1004.47        2966.25           1439       30189.00    132089.50
 1004.50        2966.50           1442       31519.00    137934.50
 1004.53        2966.75           1446       32854.00    143803.40
 1004.56        2967.00           1449       33099.00    144880.80
 1004.59        2967.25           1452       33127.00    145003.90
 1004.62        2967.50           1456       33102.00    144893.90
 1004.66        2967.75           1459       33135.00    145039.10
 1004.69        2968.00           1462       32705.00    143148.30
 1004.72        2968.25           1466       31449.00    137626.80
 1004.75        2968.50           1469       30214.00    132199.40
 1004.78        2968.75           1472       28646.00    125311.10
 1004.81        2969.00           1476       26774.00    117091.10
 1004.84        2969.25           1479       25328.00    110744.40
 1004.87        2969.50           1482       23861.00    104308.00
 1004.90        2969.75           1486       21592.00     94357.84
 1004.93        2970.00           1489       20171.00     88129.38
 1004.96        2970.25           1492       18657.00     81495.87
 1005.00        2970.50           1496       16289.00     71125.90
 1005.03        2970.75           1499       14881.00     64963.01
 1005.06        2971.00           1502       13321.00     58137.50
 1005.09        2971.25           1506       11281.00     49216.03
 1005.12        2971.50           1509        9792.00     42707.26
 1005.15        2971.75           1513        7732.00     33706.69
 1005.18        2972.00           1516        6242.00     27199.61
 1005.21        2972.25           1519        4840.00     21079.15
 1005.24        2972.50           1523        2893.00     12583.22
 1005.27        2972.75           1526        1555.00      6747.22
 1005.31        2973.00           1529         658.00      2835.90
 1005.34        2973.25           1533         371.00      1584.64
 1005.37        2973.50           1536         302.00      1283.83
 1005.40        2973.75           1539         262.00      1109.45
 1005.43        2974.00           1543         226.00       952.51
 1005.46        2974.25           1546         147.00       608.12
 1005.49        2974.50           1549         136.00       560.17
 1005.52        2974.75           1553          92.00       368.36
 1005.55        2975.00           1556          75.00       294.25
 1005.58        2975.25           1559          60.00       228.86
 1005.61        2975.50           1563          61.00       233.22
 1005.64        2975.75           1566          61.00       233.22
 1005.67        2976.00           1569          62.00       237.58
 1005.70        2976.25           1573          62.00       237.58
 1005.74        2976.50           1576          68.00       263.73
 1005.77        2976.75           1579          62.00       237.58
 1005.80        2977.00           1583          62.00       237.58
 1005.83        2977.25           1586          64.00       246.30
 1005.86        2977.50           1590          53.00       198.34
 1005.89        2977.75           1593          60.00       228.86
 1005.92        2978.00           1596          68.00       263.73
 1005.95        2978.25           1600          51.00       189.63
 1005.98        2978.50           1603          67.00       259.37
 1006.01        2978.75           1606          64.00       246.30
 1006.05        2979.00           1610          58.00       220.14
 1006.08        2979.25           1613          63.00       241.94
 1006.11        2979.50           1616          61.00       233.22
 1006.14        2979.75           1620          59.00       224.50
 1006.17        2980.00           1623          56.00       211.42
 1006.20        2980.25           1626          70.00       272.45
 1006.23        2980.50           1630          55.00       207.06
 1006.26        2980.75           1633          54.00       202.70
 1006.29        2981.00           1637          55.00       207.06
 1006.32        2981.25           1640          55.00       207.06
 1006.35        2981.50           1643          54.00       202.70
 1006.39        2981.75           1647          63.00       241.94
 1006.42        2982.00           1650          54.00       202.70
 1006.45        2982.25           1653          61.00       233.22
 1006.48        2982.50           1657          59.00       224.50
 1006.51        2982.75           1660          63.00       241.94
 1006.54        2983.00           1663          56.00       211.42
 1006.57        2983.25           1667          66.00       255.02
 1006.60        2983.50           1670          62.00       237.58
 1006.63        2983.75           1673          56.00       211.42
 1006.66        2984.00           1677          57.00       215.78
HS scan finished at 16:46:53
end
