************************************************************
  HS Scan of (1) Internal mercury lamp
************************************************************
Integration time is 0.2294 seconds per sample
dh311217Manchester 53.47 2.23 2.804185pr1000
************************************************************
Dead Time -------------------------  3E-08 
Number of Cycles Used -------------  4 
Starting Wavelength (Angstroms) ---  2950 
Final Wavelength (Angstoms) -------  2984 
Wavelength Increment (Angstroms) --  .25 
Filter Wheel #1 Position ---------- (1) Ground quartz diffuser (ND=2.32)
Filter Wheel #2 Position ---------- (1) Neutral Density 0.494



************************************************************
HS scan start time = 05:27:32
Dark Count =  6.9 


Time (GMT)  Wavelength (Ang)  Step Number  Raw Counts  Counts/Second

  327.91        2950.00           1222          59.00       227.12
  327.97        2950.25           1226          61.00       235.83
  328.00        2950.50           1229          60.00       231.48
  328.04        2950.75           1232          67.00       261.99
  328.07        2951.00           1236          58.00       222.76
  328.10        2951.25           1239          63.00       244.55
  328.13        2951.50           1242          64.00       248.91
  328.16        2951.75           1246          57.00       218.40
  328.19        2952.00           1249          62.00       240.19
  328.22        2952.25           1252          66.00       257.63
  328.25        2952.50           1256          66.00       257.63
  328.28        2952.75           1259          68.00       266.35
  328.31        2953.00           1262          57.00       218.40
  328.34        2953.25           1266          62.00       240.19
  328.37        2953.50           1269          63.00       244.55
  328.40        2953.75           1272          67.00       261.99
  328.44        2954.00           1276          63.00       244.55
  328.47        2954.25           1279          68.00       266.35
  328.50        2954.50           1282          61.00       235.83
  328.53        2954.75           1286          68.00       266.35
  328.56        2955.00           1289          62.00       240.19
  328.59        2955.25           1292          62.00       240.19
  328.62        2955.50           1296          65.00       253.27
  328.65        2955.75           1299          65.00       253.27
  328.68        2956.00           1302          58.00       222.76
  328.71        2956.25           1306          66.00       257.63
  328.74        2956.50           1309          63.00       244.55
  328.77        2956.75           1312          69.00       270.71
  328.80        2957.00           1316          65.00       253.27
  328.84        2957.25           1319          63.00       244.55
  328.87        2957.50           1322          56.00       214.04
  328.90        2957.75           1326          54.00       205.32
  328.93        2958.00           1329          60.00       231.48
  328.96        2958.25           1332          58.00       222.76
  328.99        2958.50           1336          70.00       275.07
  329.02        2958.75           1339          66.00       257.63
  329.05        2959.00           1342          62.00       240.19
  329.08        2959.25           1346          65.00       253.27
  329.11        2959.50           1349          72.00       283.79
  329.14        2959.75           1352          80.00       318.66
  329.17        2960.00           1356         105.00       427.64
  329.20        2960.25           1359         127.00       523.55
  329.24        2960.50           1362         144.00       597.66
  329.27        2960.75           1366         208.00       876.66
  329.30        2961.00           1369         244.00      1033.60
  329.33        2961.25           1372         266.00      1129.51
  329.36        2961.50           1376         364.00      1556.74
  329.39        2961.75           1379         539.00      2319.69
  329.42        2962.00           1382        1183.00      5127.64
  329.45        2962.25           1386        2943.00     12803.96
  329.48        2962.50           1389        4383.00     19087.22
  329.51        2962.75           1392        6085.00     26516.73
  329.55        2963.00           1396        7946.00     34644.10
  329.58        2963.25           1399        9506.00     41459.99
  329.61        2963.50           1402       11138.00     48593.46
  329.64        2963.75           1406       13119.00     57256.50
  329.67        2964.00           1409       14762.00     64444.88
  329.70        2964.25           1412       16481.00     71969.08
  329.73        2964.50           1416       18387.00     80315.78
  329.76        2964.75           1419       20013.00     87439.62
  329.79        2965.00           1422       21462.00     93790.56
  329.82        2965.25           1426       23636.00    103323.70
  329.86        2965.50           1429       25204.00    110202.90
  329.89        2965.75           1432       26679.00    116676.70
  329.92        2966.00           1436       28971.00    126741.20
  329.95        2966.25           1439       30262.00    132412.90
  329.98        2966.50           1442       31704.00    138750.30
  330.01        2966.75           1446       32904.00    144026.00
  330.04        2967.00           1449       33458.00    146462.10
  330.07        2967.25           1452       33284.00    145696.90
  330.11        2967.50           1456       33131.00    145024.10
  330.14        2967.75           1459       33371.00    146079.50
  330.17        2968.00           1462       32991.00    144408.50
  330.20        2968.25           1466       31955.00    139853.60
  330.23        2968.50           1469       30535.00    133612.50
  330.26        2968.75           1472       29113.00    127365.00
  330.29        2969.00           1476       26801.00    117212.20
  330.32        2969.25           1479       25412.00    111115.70
  330.35        2969.50           1482       23929.00    104608.90
  330.39        2969.75           1486       21862.00     95544.18
  330.42        2970.00           1489       20393.00     89104.92
  330.45        2970.25           1492       18922.00     82659.40
  330.48        2970.50           1496       16866.00     73654.73
  330.51        2970.75           1499       15197.00     66348.58
  330.54        2971.00           1502       13816.00     60305.61
  330.57        2971.25           1506       11780.00     51400.47
  330.60        2971.50           1509       10134.00     44204.62
  330.63        2971.75           1513        8024.00     34984.83
  330.67        2972.00           1516        6426.00     28005.65
  330.70        2972.25           1519        4894.00     21317.47
  330.73        2972.50           1523        3047.00     13257.67
  330.76        2972.75           1526        1692.00      7347.30
  330.79        2973.00           1529         771.00      3331.20
  330.82        2973.25           1533         452.00      1940.39
  330.85        2973.50           1536         329.00      1404.16
  330.88        2973.75           1539         298.00      1269.01
  330.91        2974.00           1543         243.00      1029.24
  330.94        2974.25           1546         192.00       806.91
  330.97        2974.50           1549         145.00       602.02
  331.00        2974.75           1553         109.00       445.08
  331.03        2975.00           1556          86.00       344.82
  331.06        2975.25           1559          68.00       266.35
  331.09        2975.50           1563          68.00       266.35
  331.12        2975.75           1566          58.00       222.76
  331.16        2976.00           1569          58.00       222.76
  331.19        2976.25           1573          59.00       227.12
  331.22        2976.50           1576          65.00       253.27
  331.25        2976.75           1579          64.00       248.91
  331.28        2977.00           1583          55.00       209.68
  331.31        2977.25           1586          65.00       253.27
  331.34        2977.50           1590          58.00       222.76
  331.37        2977.75           1593          61.00       235.83
  331.40        2978.00           1596          62.00       240.19
  331.43        2978.25           1600          57.00       218.40
  331.46        2978.50           1603          59.00       227.12
  331.49        2978.75           1606          63.00       244.55
  331.52        2979.00           1610          59.00       227.12
  331.56        2979.25           1613          57.00       218.40
  331.59        2979.50           1616          55.00       209.68
  331.62        2979.75           1620          60.00       231.48
  331.65        2980.00           1623          52.00       196.60
  331.68        2980.25           1626          61.00       235.83
  331.71        2980.50           1630          59.00       227.12
  331.74        2980.75           1633          57.00       218.40
  331.77        2981.00           1637          64.00       248.91
  331.80        2981.25           1640          58.00       222.76
  331.83        2981.50           1643          61.00       235.83
  331.86        2981.75           1647          52.00       196.60
  331.89        2982.00           1650          53.00       200.96
  331.93        2982.25           1653          58.00       222.76
  331.96        2982.50           1657          63.00       244.55
  331.99        2982.75           1660          55.00       209.68
  332.02        2983.00           1663          56.00       214.04
  332.05        2983.25           1667          57.00       218.40
  332.08        2983.50           1670          52.00       196.60
  332.11        2983.75           1673          51.00       192.24
  332.14        2984.00           1677          53.00       200.96
HS scan finished at 05:32:21
end
************************************************************
  HS Scan of (1) Internal mercury lamp
************************************************************
Integration time is 0.2294 seconds per sample
dh311217Manchester 53.47 2.23 2.804185pr1000
************************************************************
Dead Time -------------------------  3E-08 
Number of Cycles Used -------------  4 
Starting Wavelength (Angstroms) ---  2950 
Final Wavelength (Angstoms) -------  2984 
Wavelength Increment (Angstroms) --  .25 
Filter Wheel #1 Position ---------- (1) Ground quartz diffuser (ND=2.32)
Filter Wheel #2 Position ---------- (1) Neutral Density 0.494



************************************************************
HS scan start time = 17:12:00
Dark Count =  7.1 


Time (GMT)  Wavelength (Ang)  Step Number  Raw Counts  Counts/Second

 1032.37        2950.00           1222          63.00       243.68
 1032.44        2950.25           1226          57.00       217.53
 1032.47        2950.50           1229          58.00       221.88
 1032.50        2950.75           1232          63.00       243.68
 1032.53        2951.00           1236          51.00       191.37
 1032.57        2951.25           1239          61.00       234.96
 1032.60        2951.50           1242          63.00       243.68
 1032.63        2951.75           1246          67.00       261.12
 1032.66        2952.00           1249          60.00       230.60
 1032.69        2952.25           1252          64.00       248.04
 1032.72        2952.50           1256          57.00       217.53
 1032.75        2952.75           1259          68.00       265.48
 1032.78        2953.00           1262          65.00       252.40
 1032.81        2953.25           1266          63.00       243.68
 1032.84        2953.50           1269          61.00       234.96
 1032.87        2953.75           1272          63.00       243.68
 1032.90        2954.00           1276          61.00       234.96
 1032.93        2954.25           1279          59.00       226.24
 1032.97        2954.50           1282          65.00       252.40
 1033.00        2954.75           1286          62.00       239.32
 1033.03        2955.00           1289          66.00       256.76
 1033.06        2955.25           1292          60.00       230.60
 1033.09        2955.50           1296          57.00       217.53
 1033.12        2955.75           1299          59.00       226.24
 1033.15        2956.00           1302          66.00       256.76
 1033.18        2956.25           1306          66.00       256.76
 1033.21        2956.50           1309          62.00       239.32
 1033.24        2956.75           1312          62.00       239.32
 1033.27        2957.00           1316          60.00       230.60
 1033.31        2957.25           1319          65.00       252.40
 1033.34        2957.50           1322          64.00       248.04
 1033.37        2957.75           1326          67.00       261.12
 1033.40        2958.00           1329          61.00       234.96
 1033.43        2958.25           1332          59.00       226.24
 1033.46        2958.50           1336          53.00       200.09
 1033.49        2958.75           1339          59.00       226.24
 1033.52        2959.00           1342          63.00       243.68
 1033.55        2959.25           1346          62.00       239.32
 1033.58        2959.50           1349          68.00       265.48
 1033.61        2959.75           1352          80.00       317.79
 1033.64        2960.00           1356         110.00       448.57
 1033.67        2960.25           1359         146.00       605.50
 1033.71        2960.50           1362         171.00       714.49
 1033.74        2960.75           1366         221.00       932.46
 1033.77        2961.00           1369         263.00      1115.56
 1033.80        2961.25           1372         313.00      1333.53
 1033.83        2961.50           1376         362.00      1547.15
 1033.86        2961.75           1379         523.00      2249.06
 1033.89        2962.00           1382        1179.00      5109.33
 1033.92        2962.25           1386        2945.00     12811.81
 1033.95        2962.50           1389        4418.00     19239.09
 1033.98        2962.75           1392        5902.00     25716.87
 1034.01        2963.00           1396        7814.00     34066.63
 1034.04        2963.25           1399        9257.00     40371.02
 1034.07        2963.50           1402       10848.00     47324.78
 1034.10        2963.75           1406       12898.00     56288.97
 1034.14        2964.00           1409       14583.00     63660.70
 1034.17        2964.25           1412       16096.00     70282.74
 1034.20        2964.50           1416       17997.00     78606.69
 1034.23        2964.75           1419       19781.00     86422.12
 1034.26        2965.00           1422       21273.00     92961.16
 1034.29        2965.25           1426       23362.00    102121.00
 1034.32        2965.50           1429       25000.00    109306.90
 1034.35        2965.75           1432       26372.00    115328.20
 1034.38        2966.00           1436       28660.00    125374.40
 1034.41        2966.25           1439       30029.00    131388.30
 1034.45        2966.50           1442       31248.00    136745.10
 1034.48        2966.75           1446       32591.00    142648.80
 1034.51        2967.00           1449       32905.00    144029.50
 1034.54        2967.25           1452       32860.00    143831.60
 1034.57        2967.50           1456       32836.00    143726.10
 1034.60        2967.75           1459       33112.00    144939.70
 1034.63        2968.00           1462       32635.00    142842.30
 1034.66        2968.25           1466       31470.00    137720.90
 1034.69        2968.50           1469       29971.00    131133.40
 1034.72        2968.75           1472       28690.00    125506.10
 1034.75        2969.00           1476       26615.00    116394.80
 1034.78        2969.25           1479       25039.00    109478.00
 1034.82        2969.50           1482       23717.00    103678.10
 1034.85        2969.75           1486       21555.00     94197.38
 1034.88        2970.00           1489       19979.00     87289.76
 1034.91        2970.25           1492       18690.00     81642.18
 1034.94        2970.50           1496       16598.00     72480.46
 1034.97        2970.75           1499       15012.00     65538.06
 1035.00        2971.00           1502       13363.00     58322.98
 1035.03        2971.25           1506       11336.00     49458.25
 1035.06        2971.50           1509        9742.00     42490.49
 1035.09        2971.75           1513        7776.00     33900.63
 1035.13        2972.00           1516        6300.00     27454.60
 1035.16        2972.25           1519        4821.00     20997.97
 1035.19        2972.50           1523        2946.00     12816.17
 1035.22        2972.75           1526        1626.00      7058.60
 1035.25        2973.00           1529         690.00      2977.16
 1035.28        2973.25           1533         396.00      1695.38
 1035.31        2973.50           1536         331.00      1412.00
 1035.34        2973.75           1539         270.00      1146.07
 1035.37        2974.00           1543         234.00       989.13
 1035.40        2974.25           1546         181.00       758.08
 1035.44        2974.50           1549         144.00       596.78
 1035.47        2974.75           1553          87.00       348.30
 1035.50        2975.00           1556          71.00       278.56
 1035.53        2975.25           1559          66.00       256.76
 1035.56        2975.50           1563          63.00       243.68
 1035.59        2975.75           1566          52.00       195.73
 1035.62        2976.00           1569          58.00       221.88
 1035.65        2976.25           1573          65.00       252.40
 1035.68        2976.50           1576          67.00       261.12
 1035.71        2976.75           1579          57.00       217.53
 1035.74        2977.00           1583          61.00       234.96
 1035.77        2977.25           1586          57.00       217.53
 1035.80        2977.50           1590          64.00       248.04
 1035.83        2977.75           1593          62.00       239.32
 1035.86        2978.00           1596          59.00       226.24
 1035.89        2978.25           1600          62.00       239.32
 1035.93        2978.50           1603          51.00       191.37
 1035.96        2978.75           1606          53.00       200.09
 1035.99        2979.00           1610          47.00       173.93
 1036.02        2979.25           1613          60.00       230.60
 1036.05        2979.50           1616          60.00       230.60
 1036.08        2979.75           1620          53.00       200.09
 1036.11        2980.00           1623          59.00       226.24
 1036.14        2980.25           1626          60.00       230.60
 1036.17        2980.50           1630          56.00       213.17
 1036.20        2980.75           1633          64.00       248.04
 1036.23        2981.00           1637          54.00       204.45
 1036.26        2981.25           1640          51.00       191.37
 1036.30        2981.50           1643          55.00       208.81
 1036.33        2981.75           1647          61.00       234.96
 1036.36        2982.00           1650          54.00       204.45
 1036.39        2982.25           1653          50.00       187.01
 1036.42        2982.50           1657          53.00       200.09
 1036.45        2982.75           1660          60.00       230.60
 1036.48        2983.00           1663          55.00       208.81
 1036.51        2983.25           1667          57.00       217.53
 1036.54        2983.50           1670          61.00       234.96
 1036.57        2983.75           1673          61.00       234.96
 1036.60        2984.00           1677          61.00       234.96
HS scan finished at 17:16:49
end
