************************************************************
  HS Scan of (1) Internal mercury lamp
************************************************************
Integration time is 0.2294 seconds per sample
dh301217Manchester 53.47 2.23 2.804185pr1000
************************************************************
Dead Time -------------------------  3E-08 
Number of Cycles Used -------------  4 
Starting Wavelength (Angstroms) ---  2950 
Final Wavelength (Angstoms) -------  2984 
Wavelength Increment (Angstroms) --  .25 
Filter Wheel #1 Position ---------- (1) Ground quartz diffuser (ND=2.32)
Filter Wheel #2 Position ---------- (1) Neutral Density 0.494



************************************************************
HS scan start time = 05:26:10
Dark Count =  6.4 


Time (GMT)  Wavelength (Ang)  Step Number  Raw Counts  Counts/Second

  326.53        2950.00           1222          60.00       233.65
  326.60        2950.25           1226          59.00       229.30
  326.63        2950.50           1229          66.00       259.81
  326.66        2950.75           1232          60.00       233.65
  326.69        2951.00           1236          66.00       259.81
  326.72        2951.25           1239          67.00       264.17
  326.75        2951.50           1242          56.00       216.22
  326.78        2951.75           1246          59.00       229.30
  326.81        2952.00           1249          61.00       238.01
  326.84        2952.25           1252          63.00       246.73
  326.87        2952.50           1256          53.00       203.14
  326.90        2952.75           1259          61.00       238.01
  326.93        2953.00           1262          65.00       255.45
  326.97        2953.25           1266          66.00       259.81
  327.00        2953.50           1269          68.00       268.53
  327.03        2953.75           1272          59.00       229.30
  327.06        2954.00           1276          60.00       233.65
  327.09        2954.25           1279          64.00       251.09
  327.12        2954.50           1282          63.00       246.73
  327.15        2954.75           1286          61.00       238.01
  327.18        2955.00           1289          69.00       272.89
  327.21        2955.25           1292          65.00       255.45
  327.24        2955.50           1296          67.00       264.17
  327.27        2955.75           1299          59.00       229.30
  327.30        2956.00           1302          58.00       224.94
  327.33        2956.25           1306          64.00       251.09
  327.36        2956.50           1309          66.00       259.81
  327.39        2956.75           1312          71.00       281.61
  327.43        2957.00           1316          65.00       255.45
  327.46        2957.25           1319          64.00       251.09
  327.49        2957.50           1322          65.00       255.45
  327.52        2957.75           1326          67.00       264.17
  327.55        2958.00           1329          61.00       238.01
  327.58        2958.25           1332          60.00       233.65
  327.61        2958.50           1336          63.00       246.73
  327.64        2958.75           1339          62.00       242.37
  327.67        2959.00           1342          63.00       246.73
  327.70        2959.25           1346          68.00       268.53
  327.73        2959.50           1349          68.00       268.53
  327.76        2959.75           1352          84.00       338.28
  327.80        2960.00           1356         120.00       495.21
  327.83        2960.25           1359         152.00       634.71
  327.86        2960.50           1362         191.00       804.73
  327.89        2960.75           1366         231.00       979.10
  327.92        2961.00           1369         273.00      1162.20
  327.95        2961.25           1372         322.00      1375.82
  327.98        2961.50           1376         384.00      1646.11
  328.01        2961.75           1379         572.00      2465.74
  328.04        2962.00           1382        1243.00      5391.46
  328.07        2962.25           1386        2933.00     12762.51
  328.11        2962.50           1389        4422.00     19259.60
  328.14        2962.75           1392        5960.00     25973.15
  328.17        2963.00           1396        7891.00     34406.03
  328.20        2963.25           1399        9386.00     40937.78
  328.23        2963.50           1402       11000.00     47992.33
  328.26        2963.75           1406       12974.00     56624.44
  328.29        2964.00           1409       14712.00     64228.26
  328.32        2964.25           1412       16161.00     70570.35
  328.36        2964.50           1416       18298.00     79928.13
  328.39        2964.75           1419       19931.00     87082.49
  328.42        2965.00           1422       21363.00     93358.75
  328.45        2965.25           1426       23657.00    103418.00
  328.48        2965.50           1429       25000.00    109309.90
  328.51        2965.75           1432       26294.00    114988.90
  328.54        2966.00           1436       28672.00    125430.10
  328.57        2966.25           1439       30100.00    131703.30
  328.60        2966.50           1442       31407.00    137447.00
  328.64        2966.75           1446       32853.00    143803.90
  328.67        2967.00           1449       33254.00    145567.20
  328.70        2967.25           1452       33462.00    146481.90
  328.73        2967.50           1456       33242.00    145514.40
  328.76        2967.75           1459       33304.00    145787.10
  328.79        2968.00           1462       33331.00    145905.80
  328.82        2968.25           1466       32127.00    140612.00
  328.85        2968.50           1469       30860.00    135043.00
  328.88        2968.75           1472       29471.00    128939.80
  328.91        2969.00           1476       27553.00    120516.00
  328.94        2969.25           1479       26174.00    114462.10
  328.98        2969.50           1482       24582.00    107475.90
  329.01        2969.75           1486       22508.00     98378.85
  329.04        2970.00           1489       21062.00     92039.31
  329.07        2970.25           1492       19656.00     85877.46
  329.10        2970.50           1496       17494.00     76406.85
  329.13        2970.75           1499       15986.00     69804.27
  329.16        2971.00           1502       14288.00     62372.92
  329.19        2971.25           1506       12262.00     53510.42
  329.22        2971.50           1509       10551.00     46029.52
  329.26        2971.75           1513        8578.00     37407.26
  329.29        2972.00           1516        7108.00     30986.08
  329.32        2972.25           1519        5563.00     24239.94
  329.35        2972.50           1523        3698.00     16100.19
  329.38        2972.75           1526        2262.00      9835.51
  329.41        2973.00           1529        1026.00      4445.23
  329.44        2973.25           1533         428.00      1837.94
  329.47        2973.50           1536         328.00      1401.98
  329.50        2973.75           1539         267.00      1136.05
  329.53        2974.00           1543         242.00      1027.06
  329.56        2974.25           1546         171.00       717.54
  329.59        2974.50           1549         134.00       556.24
  329.63        2974.75           1553          94.00       381.87
  329.66        2975.00           1556          76.00       303.40
  329.69        2975.25           1559          70.00       277.25
  329.72        2975.50           1563          67.00       264.17
  329.75        2975.75           1566          67.00       264.17
  329.78        2976.00           1569          57.00       220.58
  329.81        2976.25           1573          68.00       268.53
  329.84        2976.50           1576          57.00       220.58
  329.87        2976.75           1579          64.00       251.09
  329.90        2977.00           1583          60.00       233.65
  329.93        2977.25           1586          57.00       220.58
  329.96        2977.50           1590          63.00       246.73
  329.99        2977.75           1593          58.00       224.94
  330.03        2978.00           1596          66.00       259.81
  330.06        2978.25           1600          52.00       198.78
  330.09        2978.50           1603          57.00       220.58
  330.12        2978.75           1606          57.00       220.58
  330.15        2979.00           1610          60.00       233.65
  330.18        2979.25           1613          58.00       224.94
  330.21        2979.50           1616          57.00       220.58
  330.24        2979.75           1620          60.00       233.65
  330.27        2980.00           1623          55.00       211.86
  330.30        2980.25           1626          56.00       216.22
  330.33        2980.50           1630          57.00       220.58
  330.36        2980.75           1633          58.00       224.94
  330.40        2981.00           1637          55.00       211.86
  330.43        2981.25           1640          56.00       216.22
  330.46        2981.50           1643          55.00       211.86
  330.49        2981.75           1647          62.00       242.37
  330.52        2982.00           1650          60.00       233.65
  330.55        2982.25           1653          60.00       233.65
  330.58        2982.50           1657          62.00       242.37
  330.61        2982.75           1660          53.00       203.14
  330.64        2983.00           1663          57.00       220.58
  330.67        2983.25           1667          58.00       224.94
  330.70        2983.50           1670          53.00       203.14
  330.73        2983.75           1673          55.00       211.86
  330.76        2984.00           1677          55.00       211.86
HS scan finished at 05:30:59
end
************************************************************
  HS Scan of (1) Internal mercury lamp
************************************************************
Integration time is 0.2294 seconds per sample
dh301217Manchester 53.47 2.23 2.804185pr1000
************************************************************
Dead Time -------------------------  3E-08 
Number of Cycles Used -------------  4 
Starting Wavelength (Angstroms) ---  2950 
Final Wavelength (Angstoms) -------  2984 
Wavelength Increment (Angstroms) --  .25 
Filter Wheel #1 Position ---------- (1) Ground quartz diffuser (ND=2.32)
Filter Wheel #2 Position ---------- (1) Neutral Density 0.494



************************************************************
HS scan start time = 17:12:04
Dark Count =  5.6 


Time (GMT)  Wavelength (Ang)  Step Number  Raw Counts  Counts/Second

 1032.44        2950.00           1222          64.00       254.58
 1032.51        2950.25           1226          69.00       276.38
 1032.54        2950.50           1229          59.00       232.78
 1032.57        2950.75           1232          70.00       280.73
 1032.60        2951.00           1236          70.00       280.73
 1032.63        2951.25           1239          58.00       228.42
 1032.66        2951.50           1242          68.00       272.02
 1032.69        2951.75           1246          68.00       272.02
 1032.72        2952.00           1249          64.00       254.58
 1032.75        2952.25           1252          54.00       210.99
 1032.78        2952.50           1256          64.00       254.58
 1032.81        2952.75           1259          58.00       228.42
 1032.84        2953.00           1262          64.00       254.58
 1032.87        2953.25           1266          57.00       224.06
 1032.90        2953.50           1269          65.00       258.94
 1032.93        2953.75           1272          63.00       250.22
 1032.97        2954.00           1276          59.00       232.78
 1033.00        2954.25           1279          55.00       215.35
 1033.03        2954.50           1282          67.00       267.66
 1033.06        2954.75           1286          61.00       241.50
 1033.09        2955.00           1289          71.00       285.09
 1033.12        2955.25           1292          62.00       245.86
 1033.15        2955.50           1296          59.00       232.78
 1033.18        2955.75           1299          63.00       250.22
 1033.21        2956.00           1302          67.00       267.66
 1033.25        2956.25           1306          61.00       241.50
 1033.28        2956.50           1309          54.00       210.99
 1033.31        2956.75           1312          66.00       263.30
 1033.34        2957.00           1316          59.00       232.78
 1033.37        2957.25           1319          59.00       232.78
 1033.40        2957.50           1322          64.00       254.58
 1033.43        2957.75           1326          58.00       228.42
 1033.46        2958.00           1329          60.00       237.14
 1033.49        2958.25           1332          65.00       258.94
 1033.52        2958.50           1336          56.00       219.71
 1033.55        2958.75           1339          63.00       250.22
 1033.58        2959.00           1342          60.00       237.14
 1033.61        2959.25           1346          67.00       267.66
 1033.64        2959.50           1349          87.00       354.84
 1033.68        2959.75           1352         103.00       424.59
 1033.71        2960.00           1356         138.00       577.17
 1033.74        2960.25           1359         156.00       655.64
 1033.77        2960.50           1362         207.00       877.97
 1033.80        2960.75           1366         260.00      1109.02
 1033.83        2961.00           1369         297.00      1270.32
 1033.86        2961.25           1372         339.00      1453.42
 1033.89        2961.50           1376         420.00      1806.55
 1033.92        2961.75           1379         642.00      2774.42
 1033.95        2962.00           1382        1375.00      5970.56
 1033.99        2962.25           1386        3038.00     13224.08
 1034.02        2962.50           1389        4504.00     19620.96
 1034.05        2962.75           1392        5952.00     25941.72
 1034.08        2963.00           1396        7864.00     34291.58
 1034.11        2963.25           1399        9384.00     40932.54
 1034.14        2963.50           1402       10813.00     47178.33
 1034.17        2963.75           1406       12711.00     55477.61
 1034.20        2964.00           1409       14455.00     63107.16
 1034.23        2964.25           1412       16024.00     69974.12
 1034.26        2964.50           1416       17995.00     78604.50
 1034.30        2964.75           1419       19747.00     86279.71
 1034.33        2965.00           1422       21214.00     92709.10
 1034.36        2965.25           1426       23349.00    102070.60
 1034.39        2965.50           1429       24917.00    108949.20
 1034.42        2965.75           1432       26157.00    114391.00
 1034.45        2966.00           1436       28149.00    123136.70
 1034.48        2966.25           1439       29524.00    129176.20
 1034.51        2966.50           1442       31024.00    135767.20
 1034.54        2966.75           1446       32460.00    142079.50
 1034.57        2967.00           1449       32888.00    143961.30
 1034.61        2967.25           1452       32798.00    143565.60
 1034.64        2967.50           1456       33084.00    144823.10
 1034.67        2967.75           1459       32889.00    143965.70
 1034.70        2968.00           1462       32968.00    144313.10
 1034.73        2968.25           1466       31775.00    139068.10
 1034.76        2968.50           1469       30496.00    133446.90
 1034.79        2968.75           1472       29175.00    127643.10
 1034.82        2969.00           1476       27264.00    119250.60
 1034.85        2969.25           1479       25816.00    112894.40
 1034.88        2969.50           1482       24378.00    106584.40
 1034.92        2969.75           1486       22421.00     98000.88
 1034.95        2970.00           1489       20660.00     90280.81
 1034.98        2970.25           1492       19261.00     84150.28
 1035.01        2970.50           1496       17253.00     75355.00
 1035.04        2970.75           1499       15632.00     68258.21
 1035.07        2971.00           1502       14226.00     62105.15
 1035.10        2971.25           1506       12032.00     52508.12
 1035.13        2971.50           1509       10531.00     45945.60
 1035.16        2971.75           1513        8537.00     37231.63
 1035.20        2972.00           1516        7132.00     31094.38
 1035.23        2972.25           1519        5601.00     24409.33
 1035.26        2972.50           1523        3581.00     15593.17
 1035.29        2972.75           1526        2190.00      9524.95
 1035.32        2973.00           1529        1004.00      4352.79
 1035.35        2973.25           1533         420.00      1806.55
 1035.38        2973.50           1536         322.00      1379.31
 1035.41        2973.75           1539         260.00      1109.02
 1035.44        2974.00           1543         224.00       952.08
 1035.47        2974.25           1546         163.00       686.15
 1035.50        2974.50           1549         115.00       476.90
 1035.54        2974.75           1553         100.00       411.51
 1035.57        2975.00           1556          71.00       285.09
 1035.60        2975.25           1559          62.00       245.86
 1035.63        2975.50           1563          58.00       228.42
 1035.66        2975.75           1566          58.00       228.42
 1035.69        2976.00           1569          61.00       241.50
 1035.72        2976.25           1573          57.00       224.06
 1035.75        2976.50           1576          63.00       250.22
 1035.78        2976.75           1579          54.00       210.99
 1035.81        2977.00           1583          60.00       237.14
 1035.84        2977.25           1586          54.00       210.99
 1035.88        2977.50           1590          66.00       263.30
 1035.91        2977.75           1593          62.00       245.86
 1035.94        2978.00           1596          64.00       254.58
 1035.97        2978.25           1600          61.00       241.50
 1036.00        2978.50           1603          62.00       245.86
 1036.03        2978.75           1606          61.00       241.50
 1036.06        2979.00           1610          56.00       219.71
 1036.09        2979.25           1613          57.00       224.06
 1036.12        2979.50           1616          59.00       232.78
 1036.15        2979.75           1620          55.00       215.35
 1036.18        2980.00           1623          52.00       202.27
 1036.22        2980.25           1626          64.00       254.58
 1036.25        2980.50           1630          58.00       228.42
 1036.28        2980.75           1633          57.00       224.06
 1036.31        2981.00           1637          56.00       219.71
 1036.34        2981.25           1640          64.00       254.58
 1036.37        2981.50           1643          49.00       189.19
 1036.40        2981.75           1647          58.00       228.42
 1036.43        2982.00           1650          54.00       210.99
 1036.46        2982.25           1653          52.00       202.27
 1036.49        2982.50           1657          58.00       228.42
 1036.52        2982.75           1660          59.00       232.78
 1036.55        2983.00           1663          53.00       206.63
 1036.59        2983.25           1667          54.00       210.99
 1036.62        2983.50           1670          61.00       241.50
 1036.65        2983.75           1673          55.00       215.35
 1036.68        2984.00           1677          60.00       237.14
HS scan finished at 17:16:54
end
