************************************************************
  HS Scan of (1) Internal mercury lamp
************************************************************
Integration time is 0.2294 seconds per sample
dh271217Manchester 53.47 2.23 2.750537pr1000
************************************************************
Dead Time -------------------------  3E-08 
Number of Cycles Used -------------  4 
Starting Wavelength (Angstroms) ---  2950 
Final Wavelength (Angstoms) -------  2984 
Wavelength Increment (Angstroms) --  .25 
Filter Wheel #1 Position ---------- (1) Ground quartz diffuser (ND=2.32)
Filter Wheel #2 Position ---------- (1) Neutral Density 0.494



************************************************************
HS scan start time = 05:25:35
Dark Count =  6.2 


Time (GMT)  Wavelength (Ang)  Step Number  Raw Counts  Counts/Second

  325.95        2950.00           1222          67.00       265.04
  326.01        2950.25           1226          60.00       234.53
  326.05        2950.50           1229          64.00       251.96
  326.08        2950.75           1232          55.00       212.73
  326.11        2951.00           1236          57.00       221.45
  326.14        2951.25           1239          67.00       265.04
  326.17        2951.50           1242          61.00       238.89
  326.20        2951.75           1246          60.00       234.53
  326.23        2952.00           1249          56.00       217.09
  326.26        2952.25           1252          60.00       234.53
  326.29        2952.50           1256          60.00       234.53
  326.32        2952.75           1259          59.00       230.17
  326.35        2953.00           1262          64.00       251.96
  326.38        2953.25           1266          55.00       212.73
  326.41        2953.50           1269          61.00       238.89
  326.44        2953.75           1272          59.00       230.17
  326.48        2954.00           1276          60.00       234.53
  326.51        2954.25           1279          58.00       225.81
  326.54        2954.50           1282          64.00       251.96
  326.57        2954.75           1286          59.00       230.17
  326.60        2955.00           1289          64.00       251.96
  326.63        2955.25           1292          55.00       212.73
  326.66        2955.50           1296          62.00       243.25
  326.69        2955.75           1299          66.00       260.68
  326.72        2956.00           1302          63.00       247.60
  326.75        2956.25           1306          55.00       212.73
  326.78        2956.50           1309          64.00       251.96
  326.81        2956.75           1312          56.00       217.09
  326.85        2957.00           1316          66.00       260.68
  326.88        2957.25           1319          60.00       234.53
  326.91        2957.50           1322          75.00       299.92
  326.94        2957.75           1326          65.00       256.32
  326.97        2958.00           1329          57.00       221.45
  327.00        2958.25           1332          77.00       308.63
  327.03        2958.50           1336          62.00       243.25
  327.06        2958.75           1339          65.00       256.32
  327.09        2959.00           1342          62.00       243.25
  327.12        2959.25           1346          71.00       282.48
  327.15        2959.50           1349          80.00       321.71
  327.18        2959.75           1352          93.00       378.38
  327.21        2960.00           1356         136.00       565.83
  327.24        2960.25           1359         180.00       757.65
  327.27        2960.50           1362         214.00       905.87
  327.31        2960.75           1366         256.00      1088.96
  327.34        2961.00           1369         306.00      1306.94
  327.37        2961.25           1372         338.00      1446.44
  327.40        2961.50           1376         407.00      1747.26
  327.43        2961.75           1379         575.00      2479.70
  327.46        2962.00           1382        1166.00      5056.57
  327.49        2962.25           1386        2897.00     12606.34
  327.52        2962.50           1389        4393.00     19133.91
  327.55        2962.75           1392        5867.00     25567.99
  327.59        2963.00           1396        7676.00     33467.76
  327.62        2963.25           1399        9330.00     40693.94
  327.65        2963.50           1402       10945.00     47752.76
  327.68        2963.75           1406       12858.00     56117.94
  327.71        2964.00           1409       14556.00     63546.49
  327.74        2964.25           1412       16045.00     70063.43
  327.77        2964.50           1416       18148.00     79272.00
  327.80        2964.75           1419       20014.00     87447.08
  327.83        2965.00           1422       21423.00     93622.66
  327.86        2965.25           1426       23665.00    103454.00
  327.90        2965.50           1429       25129.00    109876.90
  327.93        2965.75           1432       26679.00    116679.70
  327.96        2966.00           1436       28702.00    125562.80
  327.99        2966.25           1439       30148.00    131915.10
  328.02        2966.50           1442       31310.00    137021.60
  328.05        2966.75           1446       32958.00    144266.50
  328.08        2967.00           1449       33279.00    145678.00
  328.11        2967.25           1452       33503.00    146663.10
  328.14        2967.50           1456       33155.00    145132.70
  328.18        2967.75           1459       33359.00    146029.80
  328.21        2968.00           1462       33152.00    145119.50
  328.24        2968.25           1466       32247.00    141140.40
  328.27        2968.50           1469       30720.00    134428.60
  328.30        2968.75           1472       29410.00    128672.70
  328.33        2969.00           1476       27507.00    120314.90
  328.36        2969.25           1479       26099.00    114133.80
  328.39        2969.50           1482       24556.00    107362.70
  328.42        2969.75           1486       22543.00     98533.21
  328.45        2970.00           1489       21040.00     91943.76
  328.49        2970.25           1492       19575.00     85523.42
  328.52        2970.50           1496       17499.00     76429.63
  328.55        2970.75           1499       15767.00     68846.50
  328.58        2971.00           1502       14181.00     61905.63
  328.61        2971.25           1506       12211.00     53288.26
  328.64        2971.50           1509       10629.00     46371.35
  328.67        2971.75           1513        8624.00     37609.11
  328.70        2972.00           1516        7139.00     31122.33
  328.73        2972.25           1519        5727.00     24956.78
  328.77        2972.50           1523        3762.00     16380.32
  328.80        2972.75           1526        2285.00      9936.70
  328.83        2973.00           1529        1078.00      4672.84
  328.86        2973.25           1533         448.00      1926.01
  328.89        2973.50           1536         315.00      1346.17
  328.92        2973.75           1539         257.00      1093.32
  328.95        2974.00           1543         210.00       888.43
  328.98        2974.25           1546         156.00       653.02
  329.01        2974.50           1549         119.00       491.72
  329.04        2974.75           1553          94.00       382.74
  329.08        2975.00           1556          73.00       291.20
  329.11        2975.25           1559          68.00       269.40
  329.14        2975.50           1563          64.00       251.96
  329.17        2975.75           1566          63.00       247.60
  329.20        2976.00           1569          56.00       217.09
  329.23        2976.25           1573          65.00       256.32
  329.26        2976.50           1576          59.00       230.17
  329.29        2976.75           1579          70.00       278.12
  329.32        2977.00           1583          58.00       225.81
  329.35        2977.25           1586          57.00       221.45
  329.38        2977.50           1590          55.00       212.73
  329.42        2977.75           1593          49.00       186.57
  329.45        2978.00           1596          58.00       225.81
  329.48        2978.25           1600          54.00       208.37
  329.51        2978.50           1603          65.00       256.32
  329.54        2978.75           1606          59.00       230.17
  329.57        2979.00           1610          60.00       234.53
  329.60        2979.25           1613          60.00       234.53
  329.63        2979.50           1616          56.00       217.09
  329.66        2979.75           1620          50.00       190.93
  329.69        2980.00           1623          62.00       243.25
  329.72        2980.25           1626          53.00       204.01
  329.76        2980.50           1630          62.00       243.25
  329.79        2980.75           1633          61.00       238.89
  329.82        2981.00           1637          59.00       230.17
  329.85        2981.25           1640          72.00       286.84
  329.88        2981.50           1643          60.00       234.53
  329.91        2981.75           1647          59.00       230.17
  329.94        2982.00           1650          56.00       217.09
  329.97        2982.25           1653          66.00       260.68
  330.00        2982.50           1657          54.00       208.37
  330.03        2982.75           1660          59.00       230.17
  330.06        2983.00           1663          62.00       243.25
  330.09        2983.25           1667          55.00       212.73
  330.13        2983.50           1670          58.00       225.81
  330.16        2983.75           1673          57.00       221.45
  330.19        2984.00           1677          56.00       217.09
HS scan finished at 05:30:24
end
************************************************************
  HS Scan of (1) Internal mercury lamp
************************************************************
Integration time is 0.2294 seconds per sample
dh271217Manchester 53.47 2.23 2.750537pr1000
************************************************************
Dead Time -------------------------  3E-08 
Number of Cycles Used -------------  4 
Starting Wavelength (Angstroms) ---  2950 
Final Wavelength (Angstoms) -------  2984 
Wavelength Increment (Angstroms) --  .25 
Filter Wheel #1 Position ---------- (1) Ground quartz diffuser (ND=2.32)
Filter Wheel #2 Position ---------- (1) Neutral Density 0.494



************************************************************
HS scan start time = 16:42:02
Dark Count =  6 


Time (GMT)  Wavelength (Ang)  Step Number  Raw Counts  Counts/Second

 1002.41        2950.00           1222          64.00       252.84
 1002.48        2950.25           1226          65.00       257.19
 1002.51        2950.50           1229          69.00       274.63
 1002.54        2950.75           1232          59.00       231.04
 1002.57        2951.00           1236          62.00       244.12
 1002.60        2951.25           1239          67.00       265.91
 1002.63        2951.50           1242          63.00       248.48
 1002.66        2951.75           1246          58.00       226.68
 1002.69        2952.00           1249          71.00       283.35
 1002.72        2952.25           1252          62.00       244.12
 1002.75        2952.50           1256          59.00       231.04
 1002.78        2952.75           1259          62.00       244.12
 1002.81        2953.00           1262          62.00       244.12
 1002.84        2953.25           1266          62.00       244.12
 1002.88        2953.50           1269          61.00       239.76
 1002.91        2953.75           1272          65.00       257.19
 1002.94        2954.00           1276          66.00       261.55
 1002.97        2954.25           1279          65.00       257.19
 1003.00        2954.50           1282          69.00       274.63
 1003.03        2954.75           1286          53.00       204.88
 1003.06        2955.00           1289          60.00       235.40
 1003.09        2955.25           1292          58.00       226.68
 1003.12        2955.50           1296          58.00       226.68
 1003.15        2955.75           1299          55.00       213.60
 1003.18        2956.00           1302          67.00       265.91
 1003.22        2956.25           1306          61.00       239.76
 1003.25        2956.50           1309          60.00       235.40
 1003.28        2956.75           1312          63.00       248.48
 1003.31        2957.00           1316          59.00       231.04
 1003.34        2957.25           1319          61.00       239.76
 1003.37        2957.50           1322          62.00       244.12
 1003.40        2957.75           1326          62.00       244.12
 1003.43        2958.00           1329          62.00       244.12
 1003.46        2958.25           1332          56.00       217.96
 1003.49        2958.50           1336          60.00       235.40
 1003.52        2958.75           1339          65.00       257.19
 1003.55        2959.00           1342          56.00       217.96
 1003.59        2959.25           1346          70.00       278.99
 1003.62        2959.50           1349          70.00       278.99
 1003.65        2959.75           1352          79.00       318.22
 1003.68        2960.00           1356         103.00       422.85
 1003.71        2960.25           1359         135.00       562.35
 1003.74        2960.50           1362         178.00       749.80
 1003.77        2960.75           1366         216.00       915.46
 1003.80        2961.00           1369         262.00      1115.99
 1003.83        2961.25           1372         298.00      1272.93
 1003.86        2961.50           1376         375.00      1608.62
 1003.89        2961.75           1379         480.00      2066.39
 1003.92        2962.00           1382         933.00      4041.47
 1003.96        2962.25           1386        2425.00     10548.24
 1003.99        2962.50           1389        3820.00     16634.28
 1004.02        2962.75           1392        5251.00     22879.69
 1004.05        2963.00           1396        7297.00     31813.26
 1004.08        2963.25           1399        8721.00     38033.78
 1004.11        2963.50           1402       10173.00     44379.01
 1004.14        2963.75           1406       12494.00     54526.79
 1004.17        2964.00           1409       14221.00     62081.52
 1004.20        2964.25           1412       15865.00     69276.35
 1004.24        2964.50           1416       17649.00     77087.40
 1004.27        2964.75           1419       19210.00     83925.08
 1004.30        2965.00           1422       20777.00     90791.86
 1004.33        2965.25           1426       22964.00    100380.30
 1004.36        2965.50           1429       24255.00    106043.00
 1004.39        2965.75           1432       25891.00    113221.80
 1004.42        2966.00           1436       27826.00    121716.50
 1004.45        2966.25           1439       29466.00    128919.60
 1004.48        2966.50           1442       30660.00    134165.80
 1004.51        2966.75           1446       32251.00    141158.90
 1004.55        2967.00           1449       32850.00    143792.50
 1004.58        2967.25           1452       32750.00    143352.80
 1004.61        2967.50           1456       32926.00    144126.60
 1004.64        2967.75           1459       32861.00    143840.80
 1004.67        2968.00           1462       32688.00    143080.20
 1004.70        2968.25           1466       32259.00    141194.00
 1004.73        2968.50           1469       30744.00    134534.90
 1004.76        2968.75           1472       29490.00    129025.10
 1004.79        2969.00           1476       27617.00    120798.80
 1004.82        2969.25           1479       26088.00    114086.40
 1004.86        2969.50           1482       24474.00    107003.80
 1004.89        2969.75           1486       22443.00     98095.59
 1004.92        2970.00           1489       20914.00     91392.34
 1004.95        2970.25           1492       19505.00     85217.58
 1004.98        2970.50           1496       17390.00     75953.16
 1005.01        2970.75           1499       15882.00     69350.77
 1005.04        2971.00           1502       14443.00     63052.90
 1005.07        2971.25           1506       12597.00     54977.27
 1005.10        2971.50           1509       11113.00     48488.10
 1005.13        2971.75           1513        9108.00     39724.74
 1005.16        2972.00           1516        7662.00     33407.49
 1005.20        2972.25           1519        6246.00     27223.62
 1005.23        2972.50           1523        4203.00     18305.61
 1005.26        2972.75           1526        2698.00     11739.10
 1005.29        2973.00           1529        1261.00      5471.69
 1005.32        2973.25           1533         516.00      2223.34
 1005.35        2973.50           1536         337.00      1442.96
 1005.38        2973.75           1539         289.00      1233.70
 1005.41        2974.00           1543         246.00      1046.24
 1005.44        2974.25           1546         180.00       758.52
 1005.47        2974.50           1549         143.00       597.22
 1005.50        2974.75           1553          97.00       396.69
 1005.53        2975.00           1556          76.00       305.15
 1005.57        2975.25           1559          66.00       261.55
 1005.60        2975.50           1563          57.00       222.32
 1005.63        2975.75           1566          69.00       274.63
 1005.66        2976.00           1569          59.00       231.04
 1005.69        2976.25           1573          62.00       244.12
 1005.72        2976.50           1576          62.00       244.12
 1005.75        2976.75           1579          55.00       213.60
 1005.78        2977.00           1583          56.00       217.96
 1005.81        2977.25           1586          60.00       235.40
 1005.84        2977.50           1590          62.00       244.12
 1005.87        2977.75           1593          60.00       235.40
 1005.90        2978.00           1596          58.00       226.68
 1005.93        2978.25           1600          61.00       239.76
 1005.97        2978.50           1603          61.00       239.76
 1006.00        2978.75           1606          58.00       226.68
 1006.03        2979.00           1610          55.00       213.60
 1006.06        2979.25           1613          52.00       200.52
 1006.09        2979.50           1616          52.00       200.52
 1006.12        2979.75           1620          56.00       217.96
 1006.15        2980.00           1623          62.00       244.12
 1006.18        2980.25           1626          55.00       213.60
 1006.21        2980.50           1630          69.00       274.63
 1006.24        2980.75           1633          59.00       231.04
 1006.27        2981.00           1637          58.00       226.68
 1006.30        2981.25           1640          55.00       213.60
 1006.33        2981.50           1643          53.00       204.88
 1006.37        2981.75           1647          54.00       209.24
 1006.40        2982.00           1650          59.00       231.04
 1006.43        2982.25           1653          55.00       213.60
 1006.46        2982.50           1657          56.00       217.96
 1006.49        2982.75           1660          46.00       174.37
 1006.52        2983.00           1663          65.00       257.19
 1006.55        2983.25           1667          52.00       200.52
 1006.58        2983.50           1670          56.00       217.96
 1006.61        2983.75           1673          59.00       231.04
 1006.64        2984.00           1677          58.00       226.68
HS scan finished at 16:46:52
end
