************************************************************
  HS Scan of (1) Internal mercury lamp
************************************************************
Integration time is 0.2294 seconds per sample
dh291218Manchester 53.47 2.23 2.804185pr1000
************************************************************
Dead Time -------------------------  3E-08 
Number of Cycles Used -------------  4 
Starting Wavelength (Angstroms) ---  2950 
Final Wavelength (Angstoms) -------  2984 
Wavelength Increment (Angstroms) --  .25 
Filter Wheel #1 Position ---------- (1) Ground quartz diffuser (ND=2.32)
Filter Wheel #2 Position ---------- (1) Neutral Density 0.494



************************************************************
HS scan start time = 05:25:57
Dark Count =  3.9 


Time (GMT)  Wavelength (Ang)  Step Number  Raw Counts  Counts/Second

  326.32        2950.00           1222          53.00       214.04
  326.38        2950.25           1226          48.00       192.24
  326.42        2950.50           1229          56.00       227.12
  326.45        2950.75           1232          54.00       218.40
  326.48        2951.00           1236          52.00       209.68
  326.51        2951.25           1239          60.00       244.55
  326.54        2951.50           1242          54.00       218.40
  326.57        2951.75           1246          56.00       227.12
  326.60        2952.00           1249          57.00       231.48
  326.63        2952.25           1252          62.00       253.27
  326.66        2952.50           1256          53.00       214.04
  326.69        2952.75           1259          54.00       218.40
  326.72        2953.00           1262          51.00       205.32
  326.76        2953.25           1266          56.00       227.12
  326.79        2953.50           1269          54.00       218.40
  326.82        2953.75           1272          55.00       222.76
  326.85        2954.00           1276          45.00       179.16
  326.88        2954.25           1279          49.00       196.60
  326.91        2954.50           1282          64.00       261.99
  326.94        2954.75           1286          54.00       218.40
  326.97        2955.00           1289          56.00       227.12
  327.00        2955.25           1292          51.00       205.32
  327.03        2955.50           1296          59.00       240.19
  327.07        2955.75           1299          61.00       248.91
  327.10        2956.00           1302          52.00       209.68
  327.13        2956.25           1306          55.00       222.76
  327.16        2956.50           1309          55.00       222.76
  327.19        2956.75           1312          51.00       205.32
  327.22        2957.00           1316          54.00       218.40
  327.25        2957.25           1319          49.00       196.60
  327.28        2957.50           1322          55.00       222.76
  327.31        2957.75           1326          57.00       231.48
  327.34        2958.00           1329          48.00       192.24
  327.37        2958.25           1332          51.00       205.32
  327.41        2958.50           1336          57.00       231.48
  327.44        2958.75           1339          60.00       244.55
  327.47        2959.00           1342          48.00       192.24
  327.50        2959.25           1346          55.00       222.76
  327.53        2959.50           1349          54.00       218.40
  327.56        2959.75           1352          72.00       296.86
  327.59        2960.00           1356          93.00       388.41
  327.62        2960.25           1359         111.00       466.88
  327.65        2960.50           1362         135.00       571.50
  327.68        2960.75           1366         169.00       719.72
  327.72        2961.00           1369         206.00       881.02
  327.75        2961.25           1372         236.00      1011.80
  327.78        2961.50           1376         303.00      1303.89
  327.81        2961.75           1379         432.00      1866.28
  327.84        2962.00           1382         954.00      4142.19
  327.87        2962.25           1386        2253.00      9807.16
  327.90        2962.50           1389        3447.00     15015.92
  327.93        2962.75           1392        4487.00     19554.19
  327.96        2963.00           1396        6044.00     26350.82
  327.99        2963.25           1399        7133.00     31106.18
  328.02        2963.50           1402        8332.00     36343.44
  328.06        2963.75           1406        9899.00     43190.63
  328.09        2964.00           1409       11034.00     48151.90
  328.12        2964.25           1412       12180.00     53162.76
  328.15        2964.50           1416       13866.00     60537.49
  328.18        2964.75           1419       15001.00     65503.93
  328.21        2965.00           1422       16231.00     70887.73
  328.24        2965.25           1426       17778.00     77661.55
  328.27        2965.50           1429       18972.00     82891.58
  328.30        2965.75           1432       20063.00     87671.87
  328.34        2966.00           1436       21815.00     95351.26
  328.37        2966.25           1439       22840.00     99845.71
  328.40        2966.50           1442       23859.00    104315.00
  328.43        2966.75           1446       24984.00    109250.70
  328.46        2967.00           1449       25243.00    110387.20
  328.49        2967.25           1452       25136.00    109917.70
  328.52        2967.50           1456       25241.00    110378.40
  328.55        2967.75           1459       25122.00    109856.20
  328.58        2968.00           1462       25133.00    109904.50
  328.62        2968.25           1466       24293.00    106218.90
  328.65        2968.50           1469       23381.00    102218.40
  328.68        2968.75           1472       22405.00     97938.16
  328.71        2969.00           1476       20818.00     90980.77
  328.74        2969.25           1479       19775.00     86409.85
  328.77        2969.50           1482       18375.00     80276.36
  328.80        2969.75           1486       16850.00     73597.81
  328.83        2970.00           1489       15885.00     69373.09
  328.86        2970.25           1492       14594.00     63722.84
  328.89        2970.50           1496       13103.00     57199.64
  328.93        2970.75           1499       11874.00     51824.62
  328.96        2971.00           1502       10736.00     46849.15
  328.99        2971.25           1506        9203.00     40149.02
  329.02        2971.50           1509        7917.00     34530.52
  329.05        2971.75           1513        6477.00     28241.44
  329.08        2972.00           1516        5352.00     23329.75
  329.11        2972.25           1519        4175.00     18192.58
  329.14        2972.50           1523        2717.00     11831.14
  329.17        2972.75           1526        1686.00      7334.22
  329.21        2973.00           1529         763.00      3309.40
  329.24        2973.25           1533         327.00      1408.52
  329.27        2973.50           1536         265.00      1138.23
  329.30        2973.75           1539         229.00       981.28
  329.33        2974.00           1543         189.00       806.91
  329.36        2974.25           1546         129.00       545.34
  329.39        2974.50           1549         120.00       506.11
  329.42        2974.75           1553          86.00       357.89
  329.45        2975.00           1556          63.00       257.63
  329.48        2975.25           1559          53.00       214.04
  329.51        2975.50           1563          55.00       222.76
  329.54        2975.75           1566          47.00       187.88
  329.58        2976.00           1569          54.00       218.40
  329.61        2976.25           1573          58.00       235.83
  329.64        2976.50           1576          52.00       209.68
  329.67        2976.75           1579          45.00       179.16
  329.70        2977.00           1583          48.00       192.24
  329.73        2977.25           1586          45.00       179.16
  329.76        2977.50           1590          54.00       218.40
  329.79        2977.75           1593          51.00       205.32
  329.82        2978.00           1596          53.00       214.04
  329.85        2978.25           1600          64.00       261.99
  329.88        2978.50           1603          50.00       200.96
  329.91        2978.75           1606          46.00       183.52
  329.95        2979.00           1610          52.00       209.68
  329.98        2979.25           1613          50.00       200.96
  330.01        2979.50           1616          48.00       192.24
  330.04        2979.75           1620          48.00       192.24
  330.07        2980.00           1623          47.00       187.88
  330.10        2980.25           1626          58.00       235.83
  330.13        2980.50           1630          62.00       253.27
  330.16        2980.75           1633          49.00       196.60
  330.19        2981.00           1637          53.00       214.04
  330.22        2981.25           1640          55.00       222.76
  330.25        2981.50           1643          47.00       187.88
  330.28        2981.75           1647          51.00       205.32
  330.31        2982.00           1650          50.00       200.96
  330.34        2982.25           1653          45.00       179.16
  330.37        2982.50           1657          45.00       179.16
  330.41        2982.75           1660          45.00       179.16
  330.44        2983.00           1663          48.00       192.24
  330.47        2983.25           1667          47.00       187.88
  330.50        2983.50           1670          53.00       214.04
  330.53        2983.75           1673          57.00       231.48
  330.56        2984.00           1677          51.00       205.32
HS scan finished at 05:30:47
end
************************************************************
  HS Scan of (1) Internal mercury lamp
************************************************************
Integration time is 0.2294 seconds per sample
dh291218Manchester 53.47 2.23 2.804185pr1000
************************************************************
Dead Time -------------------------  3E-08 
Number of Cycles Used -------------  4 
Starting Wavelength (Angstroms) ---  2950 
Final Wavelength (Angstoms) -------  2984 
Wavelength Increment (Angstroms) --  .25 
Filter Wheel #1 Position ---------- (1) Ground quartz diffuser (ND=2.32)
Filter Wheel #2 Position ---------- (1) Neutral Density 0.494



************************************************************
HS scan start time = 16:42:02
Dark Count =  6.4 


Time (GMT)  Wavelength (Ang)  Step Number  Raw Counts  Counts/Second

 1002.40        2950.00           1222          55.00       211.86
 1002.47        2950.25           1226          54.00       207.50
 1002.50        2950.50           1229          49.00       185.70
 1002.53        2950.75           1232          53.00       203.14
 1002.56        2951.00           1236          56.00       216.22
 1002.59        2951.25           1239          59.00       229.30
 1002.62        2951.50           1242          54.00       207.50
 1002.65        2951.75           1246          55.00       211.86
 1002.68        2952.00           1249          52.00       198.78
 1002.72        2952.25           1252          56.00       216.22
 1002.75        2952.50           1256          57.00       220.58
 1002.78        2952.75           1259          57.00       220.58
 1002.81        2953.00           1262          52.00       198.78
 1002.84        2953.25           1266          53.00       203.14
 1002.87        2953.50           1269          52.00       198.78
 1002.90        2953.75           1272          57.00       220.58
 1002.93        2954.00           1276          54.00       207.50
 1002.96        2954.25           1279          57.00       220.58
 1002.99        2954.50           1282          62.00       242.37
 1003.03        2954.75           1286          60.00       233.65
 1003.06        2955.00           1289          54.00       207.50
 1003.09        2955.25           1292          54.00       207.50
 1003.12        2955.50           1296          52.00       198.78
 1003.15        2955.75           1299          53.00       203.14
 1003.18        2956.00           1302          54.00       207.50
 1003.21        2956.25           1306          60.00       233.65
 1003.24        2956.50           1309          57.00       220.58
 1003.27        2956.75           1312          60.00       233.65
 1003.30        2957.00           1316          48.00       181.34
 1003.33        2957.25           1319          55.00       211.86
 1003.37        2957.50           1322          63.00       246.73
 1003.40        2957.75           1326          51.00       194.42
 1003.43        2958.00           1329          60.00       233.65
 1003.46        2958.25           1332          57.00       220.58
 1003.49        2958.50           1336          50.00       190.06
 1003.52        2958.75           1339          57.00       220.58
 1003.55        2959.00           1342          54.00       207.50
 1003.58        2959.25           1346          69.00       272.89
 1003.61        2959.50           1349          57.00       220.58
 1003.64        2959.75           1352          65.00       255.45
 1003.67        2960.00           1356          89.00       360.07
 1003.70        2960.25           1359         110.00       451.62
 1003.73        2960.50           1362         132.00       547.52
 1003.77        2960.75           1366         167.00       700.10
 1003.80        2961.00           1369         195.00       822.17
 1003.83        2961.25           1372         232.00       983.46
 1003.86        2961.50           1376         300.00      1279.91
 1003.89        2961.75           1379         464.00      1994.89
 1003.92        2962.00           1382        1069.00      4632.73
 1003.95        2962.25           1386        2398.00     10428.72
 1003.98        2962.50           1389        3593.00     15642.04
 1004.01        2962.75           1392        4618.00     20115.01
 1004.04        2963.00           1396        6179.00     26929.34
 1004.07        2963.25           1399        7153.00     31182.60
 1004.11        2963.50           1402        8305.00     36214.56
 1004.14        2963.75           1406        9731.00     42445.48
 1004.17        2964.00           1409       11139.00     48600.02
 1004.20        2964.25           1412       12300.00     53676.60
 1004.23        2964.50           1416       13942.00     60859.06
 1004.26        2964.75           1419       15045.00     65685.55
 1004.29        2965.00           1422       16157.00     70552.84
 1004.32        2965.25           1426       17600.00     76871.06
 1004.35        2965.50           1429       18830.00     82258.55
 1004.39        2965.75           1432       19918.00     87025.52
 1004.42        2966.00           1436       21396.00     93503.42
 1004.45        2966.25           1439       22472.00     98221.00
 1004.48        2966.50           1442       23489.00    102681.10
 1004.51        2966.75           1446       24643.00    107743.50
 1004.54        2967.00           1449       24910.00    108915.00
 1004.57        2967.25           1452       24815.00    108498.20
 1004.60        2967.50           1456       24816.00    108502.60
 1004.63        2967.75           1459       24742.00    108177.90
 1004.66        2968.00           1462       24589.00    107506.60
 1004.70        2968.25           1466       23815.00    104111.10
 1004.73        2968.50           1469       22767.00     99514.61
 1004.76        2968.75           1472       21812.00     95327.16
 1004.79        2969.00           1476       20378.00     89041.37
 1004.82        2969.25           1479       19159.00     83699.88
 1004.85        2969.50           1482       18157.00     79310.53
 1004.88        2969.75           1486       16411.00     71664.81
 1004.91        2970.00           1489       15224.00     66468.94
 1004.94        2970.25           1492       14101.00     61554.72
 1004.97        2970.50           1496       12666.00     55277.30
 1005.01        2970.75           1499       11484.00     50108.40
 1005.04        2971.00           1502       10369.00     45233.97
 1005.07        2971.25           1506        8915.00     38879.67
 1005.10        2971.50           1509        7685.00     33506.20
 1005.13        2971.75           1513        6308.00     27492.59
 1005.16        2972.00           1516        5115.00     22284.29
 1005.19        2972.25           1519        3910.00     17025.26
 1005.22        2972.50           1523        2344.00     10193.18
 1005.25        2972.75           1526        1368.00      5936.54
 1005.29        2973.00           1529         567.00      2443.95
 1005.32        2973.25           1533         311.00      1327.86
 1005.35        2973.50           1536         261.00      1109.89
 1005.38        2973.75           1539         230.00       974.75
 1005.41        2974.00           1543         172.00       721.90
 1005.44        2974.25           1546         146.00       608.56
 1005.47        2974.50           1549         109.00       447.26
 1005.50        2974.75           1553          71.00       281.61
 1005.53        2975.00           1556          68.00       268.53
 1005.56        2975.25           1559          55.00       211.86
 1005.59        2975.50           1563          57.00       220.58
 1005.62        2975.75           1566          54.00       207.50
 1005.65        2976.00           1569          53.00       203.14
 1005.68        2976.25           1573          45.00       168.27
 1005.72        2976.50           1576          53.00       203.14
 1005.75        2976.75           1579          51.00       194.42
 1005.78        2977.00           1583          55.00       211.86
 1005.81        2977.25           1586          49.00       185.70
 1005.84        2977.50           1590          50.00       190.06
 1005.87        2977.75           1593          52.00       198.78
 1005.90        2978.00           1596          57.00       220.58
 1005.93        2978.25           1600          50.00       190.06
 1005.96        2978.50           1603          47.00       176.98
 1005.99        2978.75           1606          51.00       194.42
 1006.02        2979.00           1610          56.00       216.22
 1006.05        2979.25           1613          50.00       190.06
 1006.09        2979.50           1616          55.00       211.86
 1006.12        2979.75           1620          45.00       168.27
 1006.15        2980.00           1623          57.00       220.58
 1006.18        2980.25           1626          47.00       176.98
 1006.21        2980.50           1630          49.00       185.70
 1006.24        2980.75           1633          45.00       168.27
 1006.27        2981.00           1637          43.00       159.55
 1006.30        2981.25           1640          48.00       181.34
 1006.33        2981.50           1643          51.00       194.42
 1006.36        2981.75           1647          67.00       264.17
 1006.39        2982.00           1650          52.00       198.78
 1006.43        2982.25           1653          49.00       185.70
 1006.46        2982.50           1657          51.00       194.42
 1006.49        2982.75           1660          49.00       185.70
 1006.52        2983.00           1663          49.00       185.70
 1006.55        2983.25           1667          54.00       207.50
 1006.58        2983.50           1670          45.00       168.27
 1006.61        2983.75           1673          42.00       155.19
 1006.64        2984.00           1677          51.00       194.42
HS scan finished at 16:46:52
end
