************************************************************
  HS Scan of (1) Internal mercury lamp
************************************************************
Integration time is 0.2294 seconds per sample
dh261217Manchester 53.47 2.23 2.750537pr1000
************************************************************
Dead Time -------------------------  3E-08 
Number of Cycles Used -------------  4 
Starting Wavelength (Angstroms) ---  2950 
Final Wavelength (Angstoms) -------  2984 
Wavelength Increment (Angstroms) --  .25 
Filter Wheel #1 Position ---------- (1) Ground quartz diffuser (ND=2.32)
Filter Wheel #2 Position ---------- (1) Neutral Density 0.494



************************************************************
HS scan start time = 05:25:13
Dark Count =  6.2 


Time (GMT)  Wavelength (Ang)  Step Number  Raw Counts  Counts/Second

  325.59        2950.00           1222          60.00       234.53
  325.66        2950.25           1226          65.00       256.32
  325.69        2950.50           1229          57.00       221.45
  325.72        2950.75           1232          64.00       251.96
  325.75        2951.00           1236          60.00       234.53
  325.78        2951.25           1239          64.00       251.96
  325.81        2951.50           1242          60.00       234.53
  325.84        2951.75           1246          62.00       243.25
  325.87        2952.00           1249          57.00       221.45
  325.90        2952.25           1252          61.00       238.89
  325.93        2952.50           1256          61.00       238.89
  325.96        2952.75           1259          66.00       260.68
  326.00        2953.00           1262          60.00       234.53
  326.03        2953.25           1266          66.00       260.68
  326.06        2953.50           1269          59.00       230.17
  326.09        2953.75           1272          60.00       234.53
  326.12        2954.00           1276          58.00       225.81
  326.15        2954.25           1279          63.00       247.60
  326.18        2954.50           1282          60.00       234.53
  326.21        2954.75           1286          61.00       238.89
  326.24        2955.00           1289          63.00       247.60
  326.27        2955.25           1292          60.00       234.53
  326.30        2955.50           1296          62.00       243.25
  326.33        2955.75           1299          68.00       269.40
  326.36        2956.00           1302          61.00       238.89
  326.40        2956.25           1306          59.00       230.17
  326.43        2956.50           1309          57.00       221.45
  326.46        2956.75           1312          67.00       265.04
  326.49        2957.00           1316          53.00       204.01
  326.52        2957.25           1319          57.00       221.45
  326.55        2957.50           1322          65.00       256.32
  326.58        2957.75           1326          59.00       230.17
  326.61        2958.00           1329          56.00       217.09
  326.64        2958.25           1332          58.00       225.81
  326.67        2958.50           1336          60.00       234.53
  326.70        2958.75           1339          65.00       256.32
  326.73        2959.00           1342          56.00       217.09
  326.77        2959.25           1346          66.00       260.68
  326.80        2959.50           1349          74.00       295.56
  326.83        2959.75           1352          88.00       356.59
  326.86        2960.00           1356         112.00       461.21
  326.89        2960.25           1359         135.00       561.47
  326.92        2960.50           1362         169.00       709.69
  326.95        2960.75           1366         222.00       940.74
  326.98        2961.00           1369         265.00      1128.20
  327.01        2961.25           1372         298.00      1272.06
  327.04        2961.50           1376         350.00      1498.76
  327.07        2961.75           1379         481.00      2069.88
  327.10        2962.00           1382         910.00      3940.31
  327.13        2962.25           1386        2395.00     10416.51
  327.17        2962.50           1389        3834.00     16694.50
  327.20        2962.75           1392        5242.00     22839.53
  327.23        2963.00           1396        7220.00     31476.09
  327.26        2963.25           1399        8726.00     38054.76
  327.29        2963.50           1402       10306.00     44959.47
  327.32        2963.75           1406       12541.00     54731.47
  327.35        2964.00           1409       14059.00     61371.83
  327.38        2964.25           1412       15711.00     68601.38
  327.41        2964.50           1416       17800.00     77747.84
  327.44        2964.75           1419       19210.00     83924.21
  327.47        2965.00           1422       20820.00     90979.46
  327.51        2965.25           1426       22911.00    100147.00
  327.54        2965.50           1429       24482.00    107038.00
  327.57        2965.75           1432       26102.00    114147.00
  327.60        2966.00           1436       28150.00    123138.50
  327.63        2966.25           1439       29497.00    129054.90
  327.66        2966.50           1442       30948.00    135430.60
  327.69        2966.75           1446       32609.00    142731.90
  327.72        2967.00           1449       33326.00    145884.70
  327.75        2967.25           1452       33355.00    146012.20
  327.78        2967.50           1456       33362.00    146043.00
  327.81        2967.75           1459       33428.00    146333.30
  327.85        2968.00           1462       33080.00    144802.90
  327.88        2968.25           1466       32679.00    143039.70
  327.91        2968.50           1469       31493.00    137825.90
  327.94        2968.75           1472       30123.00    131805.30
  327.97        2969.00           1476       28098.00    122910.10
  328.00        2969.25           1479       26411.00    115503.30
  328.03        2969.50           1482       24826.00    108547.30
  328.06        2969.75           1486       22674.00     99107.66
  328.09        2970.00           1489       21218.00     92724.01
  328.12        2970.25           1492       19656.00     85878.34
  328.16        2970.50           1496       17825.00     77857.31
  328.19        2970.75           1499       16243.00     70930.20
  328.22        2971.00           1502       14694.00     64150.37
  328.25        2971.25           1506       12587.00     54932.66
  328.28        2971.50           1509       11098.00     48421.64
  328.31        2971.75           1513        9117.00     39763.19
  328.34        2972.00           1516        7518.00     32777.64
  328.37        2972.25           1519        6028.00     26270.92
  328.40        2972.50           1523        4022.00     17514.87
  328.43        2972.75           1526        2400.00     10438.32
  328.47        2973.00           1529        1182.00      5126.33
  328.50        2973.25           1533         451.00      1939.08
  328.53        2973.50           1536         340.00      1455.16
  328.56        2973.75           1539         298.00      1272.06
  328.59        2974.00           1543         260.00      1106.40
  328.62        2974.25           1546         188.00       792.52
  328.65        2974.50           1549         158.00       661.74
  328.68        2974.75           1553         116.00       478.65
  328.71        2975.00           1556          90.00       365.30
  328.74        2975.25           1559          64.00       251.96
  328.77        2975.50           1563          64.00       251.96
  328.81        2975.75           1566          60.00       234.53
  328.84        2976.00           1569          63.00       247.60
  328.87        2976.25           1573          65.00       256.32
  328.90        2976.50           1576          66.00       260.68
  328.93        2976.75           1579          62.00       243.25
  328.96        2977.00           1583          63.00       247.60
  328.99        2977.25           1586          62.00       243.25
  329.02        2977.50           1590          57.00       221.45
  329.05        2977.75           1593          56.00       217.09
  329.08        2978.00           1596          65.00       256.32
  329.11        2978.25           1600          59.00       230.17
  329.14        2978.50           1603          58.00       225.81
  329.17        2978.75           1606          56.00       217.09
  329.21        2979.00           1610          63.00       247.60
  329.24        2979.25           1613          65.00       256.32
  329.27        2979.50           1616          62.00       243.25
  329.30        2979.75           1620          66.00       260.68
  329.33        2980.00           1623          59.00       230.17
  329.36        2980.25           1626          57.00       221.45
  329.39        2980.50           1630          55.00       212.73
  329.42        2980.75           1633          54.00       208.37
  329.45        2981.00           1637          53.00       204.01
  329.48        2981.25           1640          60.00       234.53
  329.51        2981.50           1643          53.00       204.01
  329.55        2981.75           1647          60.00       234.53
  329.58        2982.00           1650          50.00       190.93
  329.61        2982.25           1653          53.00       204.01
  329.64        2982.50           1657          66.00       260.68
  329.67        2982.75           1660          53.00       204.01
  329.70        2983.00           1663          57.00       221.45
  329.73        2983.25           1667          54.00       208.37
  329.76        2983.50           1670          57.00       221.45
  329.79        2983.75           1673          57.00       221.45
  329.82        2984.00           1677          55.00       212.73
HS scan finished at 05:30:02
end
************************************************************
  HS Scan of (1) Internal mercury lamp
************************************************************
Integration time is 0.2294 seconds per sample
dh261217Manchester 53.47 2.23 2.804185pr1000
************************************************************
Dead Time -------------------------  3E-08 
Number of Cycles Used -------------  4 
Starting Wavelength (Angstroms) ---  2950 
Final Wavelength (Angstoms) -------  2984 
Wavelength Increment (Angstroms) --  .25 
Filter Wheel #1 Position ---------- (1) Ground quartz diffuser (ND=2.32)
Filter Wheel #2 Position ---------- (1) Neutral Density 0.494



************************************************************
HS scan start time = 16:41:59
Dark Count =  4.9 


Time (GMT)  Wavelength (Ang)  Step Number  Raw Counts  Counts/Second

 1002.35        2950.00           1222          59.00       235.83
 1002.41        2950.25           1226          62.00       248.91
 1002.45        2950.50           1229          70.00       283.79
 1002.48        2950.75           1232          65.00       261.99
 1002.51        2951.00           1236          68.00       275.07
 1002.54        2951.25           1239          59.00       235.83
 1002.57        2951.50           1242          55.00       218.40
 1002.60        2951.75           1246          62.00       248.91
 1002.63        2952.00           1249          65.00       261.99
 1002.66        2952.25           1252          62.00       248.91
 1002.69        2952.50           1256          66.00       266.35
 1002.72        2952.75           1259          61.00       244.55
 1002.75        2953.00           1262         100.00       414.56
 1002.78        2953.25           1266          61.00       244.55
 1002.82        2953.50           1269          61.00       244.55
 1002.85        2953.75           1272          59.00       235.83
 1002.88        2954.00           1276          53.00       209.68
 1002.91        2954.25           1279          70.00       283.79
 1002.94        2954.50           1282          66.00       266.35
 1002.97        2954.75           1286          68.00       275.07
 1003.00        2955.00           1289          63.00       253.27
 1003.03        2955.25           1292          61.00       244.55
 1003.06        2955.50           1296          62.00       248.91
 1003.09        2955.75           1299          72.00       292.50
 1003.12        2956.00           1302          65.00       261.99
 1003.16        2956.25           1306          63.00       253.27
 1003.19        2956.50           1309          64.00       257.63
 1003.22        2956.75           1312          60.00       240.19
 1003.25        2957.00           1316          61.00       244.55
 1003.28        2957.25           1319          63.00       253.27
 1003.31        2957.50           1322          63.00       253.27
 1003.34        2957.75           1326          54.00       214.04
 1003.37        2958.00           1329          64.00       257.63
 1003.40        2958.25           1332          61.00       244.55
 1003.43        2958.50           1336          59.00       235.83
 1003.47        2958.75           1339          56.00       222.76
 1003.50        2959.00           1342          63.00       253.27
 1003.53        2959.25           1346          63.00       253.27
 1003.56        2959.50           1349          72.00       292.50
 1003.59        2959.75           1352          84.00       344.82
 1003.62        2960.00           1356         115.00       479.95
 1003.65        2960.25           1359         150.00       632.53
 1003.68        2960.50           1362         183.00       776.39
 1003.71        2960.75           1366         232.00       990.00
 1003.74        2961.00           1369         264.00      1129.51
 1003.77        2961.25           1372         322.00      1382.36
 1003.80        2961.50           1376         411.00      1770.36
 1003.84        2961.75           1379         623.00      2694.64
 1003.87        2962.00           1382        1411.00      6130.60
 1003.90        2962.25           1386        3225.00     14042.97
 1003.93        2962.50           1389        4661.00     20309.24
 1003.96        2962.75           1392        6218.00     27106.17
 1003.99        2963.00           1396        8108.00     35360.51
 1004.02        2963.25           1399        9589.00     41831.45
 1004.05        2963.50           1402       11098.00     48427.33
 1004.08        2963.75           1406       13105.00     57204.01
 1004.11        2964.00           1409       14820.00     64707.44
 1004.15        2964.25           1412       16401.00     71627.60
 1004.18        2964.50           1416       18402.00     80390.25
 1004.21        2964.75           1419       20110.00     87873.46
 1004.24        2965.00           1422       21751.00     95066.29
 1004.27        2965.25           1426       23828.00    104174.70
 1004.30        2965.50           1429       25157.00    110005.40
 1004.33        2965.75           1432       26785.00    117150.80
 1004.36        2966.00           1436       28872.00    126315.20
 1004.39        2966.25           1439       30412.00    133080.80
 1004.42        2966.50           1442       31609.00    138341.50
 1004.45        2966.75           1446       32944.00    144210.60
 1004.49        2967.00           1449       33153.00    145129.70
 1004.52        2967.25           1452       33320.00    145864.00
 1004.55        2967.50           1456       33160.00    145160.40
 1004.58        2967.75           1459       33143.00    145085.70
 1004.61        2968.00           1462       32921.00    144109.50
 1004.64        2968.25           1466       31778.00    139084.40
 1004.67        2968.50           1469       30407.00    133058.90
 1004.70        2968.75           1472       29070.00    127184.90
 1004.73        2969.00           1476       27142.00    118718.10
 1004.76        2969.25           1479       25475.00    111400.90
 1004.79        2969.50           1482       23995.00    104907.20
 1004.83        2969.75           1486       22009.00     96197.44
 1004.86        2970.00           1489       20583.00     89946.39
 1004.89        2970.25           1492       19034.00     83158.82
 1004.92        2970.50           1496       17046.00     74451.63
 1004.95        2970.75           1499       15402.00     67254.56
 1004.98        2971.00           1502       13885.00     60616.23
 1005.01        2971.25           1506       11872.00     51811.51
 1005.04        2971.50           1509       10088.00     44012.30
 1005.07        2971.75           1513        8116.00     35395.45
 1005.10        2972.00           1516        6612.00     28826.58
 1005.14        2972.25           1519        5142.00     22408.70
 1005.17        2972.50           1523        3204.00     13951.35
 1005.20        2972.75           1526        1921.00      8354.75
 1005.23        2973.00           1529         830.00      3597.16
 1005.26        2973.25           1533         412.00      1774.72
 1005.29        2973.50           1536         338.00      1452.11
 1005.32        2973.75           1539         286.00      1225.42
 1005.35        2974.00           1543         224.00       955.13
 1005.38        2974.25           1546         175.00       741.52
 1005.41        2974.50           1549         135.00       567.14
 1005.44        2974.75           1553         104.00       432.00
 1005.48        2975.00           1556          85.00       349.18
 1005.51        2975.25           1559          72.00       292.50
 1005.54        2975.50           1563          69.00       279.43
 1005.57        2975.75           1566          63.00       253.27
 1005.60        2976.00           1569          56.00       222.76
 1005.63        2976.25           1573          61.00       244.55
 1005.66        2976.50           1576          56.00       222.76
 1005.69        2976.75           1579          62.00       248.91
 1005.72        2977.00           1583          58.00       231.48
 1005.75        2977.25           1586          63.00       253.27
 1005.78        2977.50           1590          57.00       227.12
 1005.81        2977.75           1593          66.00       266.35
 1005.84        2978.00           1596          67.00       270.71
 1005.88        2978.25           1600          60.00       240.19
 1005.91        2978.50           1603          54.00       214.04
 1005.94        2978.75           1606          49.00       192.24
 1005.97        2979.00           1610          67.00       270.71
 1006.00        2979.25           1613          52.00       205.32
 1006.03        2979.50           1616          58.00       231.48
 1006.06        2979.75           1620          59.00       235.83
 1006.09        2980.00           1623          63.00       253.27
 1006.12        2980.25           1626          57.00       227.12
 1006.15        2980.50           1630          60.00       240.19
 1006.18        2980.75           1633          57.00       227.12
 1006.21        2981.00           1637          58.00       231.48
 1006.24        2981.25           1640          55.00       218.40
 1006.27        2981.50           1643          57.00       227.12
 1006.30        2981.75           1647          58.00       231.48
 1006.34        2982.00           1650          49.00       192.24
 1006.37        2982.25           1653          61.00       244.55
 1006.40        2982.50           1657          63.00       253.27
 1006.43        2982.75           1660          47.00       183.52
 1006.46        2983.00           1663          59.00       235.83
 1006.49        2983.25           1667          54.00       214.04
 1006.52        2983.50           1670          56.00       222.76
 1006.55        2983.75           1673          58.00       231.48
 1006.58        2984.00           1677          54.00       214.04
HS scan finished at 16:46:48
end
