************************************************************
  HS Scan of (1) Internal mercury lamp
************************************************************
Integration time is 0.2294 seconds per sample
dh301218Manchester 53.47 2.23 2.804185pr1000
************************************************************
Dead Time -------------------------  3E-08 
Number of Cycles Used -------------  4 
Starting Wavelength (Angstroms) ---  2950 
Final Wavelength (Angstoms) -------  2984 
Wavelength Increment (Angstroms) --  .25 
Filter Wheel #1 Position ---------- (1) Ground quartz diffuser (ND=2.32)
Filter Wheel #2 Position ---------- (1) Neutral Density 0.494



************************************************************
HS scan start time = 05:26:09
Dark Count =  6.6 


Time (GMT)  Wavelength (Ang)  Step Number  Raw Counts  Counts/Second

  326.52        2950.00           1222          58.00       224.06
  326.59        2950.25           1226          52.00       197.91
  326.62        2950.50           1229          56.00       215.35
  326.65        2950.75           1232          58.00       224.06
  326.68        2951.00           1236          50.00       189.19
  326.71        2951.25           1239          64.00       250.22
  326.74        2951.50           1242          51.00       193.55
  326.77        2951.75           1246          60.00       232.78
  326.81        2952.00           1249          48.00       180.47
  326.84        2952.25           1252          58.00       224.06
  326.87        2952.50           1256          51.00       193.55
  326.90        2952.75           1259          62.00       241.50
  326.93        2953.00           1262          51.00       193.55
  326.96        2953.25           1266          52.00       197.91
  326.99        2953.50           1269          55.00       210.99
  327.02        2953.75           1272          54.00       206.63
  327.05        2954.00           1276          56.00       215.35
  327.08        2954.25           1279          58.00       224.06
  327.11        2954.50           1282          50.00       189.19
  327.14        2954.75           1286          52.00       197.91
  327.17        2955.00           1289          61.00       237.14
  327.21        2955.25           1292          49.00       184.83
  327.24        2955.50           1296          53.00       202.27
  327.27        2955.75           1299          48.00       180.47
  327.30        2956.00           1302          53.00       202.27
  327.33        2956.25           1306          53.00       202.27
  327.36        2956.50           1309          48.00       180.47
  327.39        2956.75           1312          55.00       210.99
  327.42        2957.00           1316          57.00       219.71
  327.45        2957.25           1319          48.00       180.47
  327.48        2957.50           1322          60.00       232.78
  327.51        2957.75           1326          65.00       254.58
  327.54        2958.00           1329          56.00       215.35
  327.58        2958.25           1332          53.00       202.27
  327.61        2958.50           1336          51.00       193.55
  327.64        2958.75           1339          61.00       237.14
  327.67        2959.00           1342          56.00       215.35
  327.70        2959.25           1346          53.00       202.27
  327.73        2959.50           1349          60.00       232.78
  327.76        2959.75           1352          62.00       241.50
  327.79        2960.00           1356          73.00       289.45
  327.82        2960.25           1359          97.00       394.08
  327.85        2960.50           1362         128.00       529.21
  327.89        2960.75           1366         162.00       677.43
  327.92        2961.00           1369         205.00       864.89
  327.95        2961.25           1372         219.00       925.92
  327.98        2961.50           1376         273.00      1161.33
  328.01        2961.75           1379         308.00      1313.91
  328.04        2962.00           1382         527.00      2268.68
  328.07        2962.25           1386        1641.00      7126.20
  328.10        2962.50           1389        2750.00     11963.32
  328.13        2962.75           1392        3775.00     16435.30
  328.16        2963.00           1396        5377.00     23427.10
  328.20        2963.25           1399        6572.00     28644.49
  328.23        2963.50           1402        7623.00     33234.52
  328.26        2963.75           1406        9224.00     40228.99
  328.29        2964.00           1409       10468.00     45665.84
  328.32        2964.25           1412       11534.00     50326.15
  328.35        2964.50           1416       13214.00     57673.38
  328.38        2964.75           1419       14332.00     62564.58
  328.41        2965.00           1422       15634.00     68262.58
  328.44        2965.25           1426       17152.00     74908.34
  328.48        2965.50           1429       18265.00     79782.71
  328.51        2965.75           1432       19421.00     84846.91
  328.54        2966.00           1436       20822.00     90986.47
  328.57        2966.25           1439       22004.00     96168.07
  328.60        2966.50           1442       22940.00    100272.40
  328.63        2966.75           1446       24431.00    106812.50
  328.66        2967.00           1449       25103.00    109761.00
  328.69        2967.25           1452       25326.00    110739.60
  328.72        2967.50           1456       25056.00    109554.80
  328.75        2967.75           1459       25091.00    109708.40
  328.79        2968.00           1462       25083.00    109673.30
  328.82        2968.25           1466       24634.00    107703.20
  328.85        2968.50           1469       23851.00    104268.10
  328.88        2968.75           1472       22813.00     99715.47
  328.91        2969.00           1476       21121.00     92297.06
  328.94        2969.25           1479       20108.00     87857.24
  328.97        2969.50           1482       19052.00     83230.24
  329.00        2969.75           1486       17611.00     76918.35
  329.03        2970.00           1489       16384.00     71545.73
  329.07        2970.25           1492       15253.00     66595.00
  329.10        2970.50           1496       13706.00     59825.68
  329.13        2970.75           1499       12601.00     54992.14
  329.16        2971.00           1502       11372.00     49617.84
  329.19        2971.25           1506        9757.00     42558.23
  329.22        2971.50           1509        8589.00     37454.45
  329.25        2971.75           1513        7044.00     30705.69
  329.28        2972.00           1516        6013.00     26203.68
  329.31        2972.25           1519        4786.00     20847.39
  329.35        2972.50           1523        3347.00     14567.83
  329.38        2972.75           1526        2242.00      9747.40
  329.41        2973.00           1529        1203.00      5216.16
  329.44        2973.25           1533         414.00      1776.03
  329.47        2973.50           1536         293.00      1248.52
  329.50        2973.75           1539         232.00       982.59
  329.53        2974.00           1543         207.00       873.61
  329.56        2974.25           1546         149.00       620.76
  329.59        2974.50           1549         123.00       507.42
  329.62        2974.75           1553          98.00       398.44
  329.65        2975.00           1556          68.00       267.66
  329.68        2975.25           1559          63.00       245.86
  329.71        2975.50           1563          53.00       202.27
  329.74        2975.75           1566          52.00       197.91
  329.78        2976.00           1569          52.00       197.91
  329.81        2976.25           1573          52.00       197.91
  329.84        2976.50           1576          49.00       184.83
  329.87        2976.75           1579          45.00       167.39
  329.90        2977.00           1583          52.00       197.91
  329.93        2977.25           1586          55.00       210.99
  329.96        2977.50           1590          45.00       167.39
  329.99        2977.75           1593          53.00       202.27
  330.02        2978.00           1596          52.00       197.91
  330.05        2978.25           1600          55.00       210.99
  330.09        2978.50           1603          54.00       206.63
  330.12        2978.75           1606          45.00       167.39
  330.15        2979.00           1610          48.00       180.47
  330.18        2979.25           1613          56.00       215.35
  330.21        2979.50           1616          53.00       202.27
  330.24        2979.75           1620          52.00       197.91
  330.27        2980.00           1623          45.00       167.39
  330.30        2980.25           1626          50.00       189.19
  330.33        2980.50           1630          40.00       145.60
  330.36        2980.75           1633          52.00       197.91
  330.39        2981.00           1637          46.00       171.75
  330.42        2981.25           1640          62.00       241.50
  330.45        2981.50           1643          51.00       193.55
  330.48        2981.75           1647          51.00       193.55
  330.52        2982.00           1650          49.00       184.83
  330.55        2982.25           1653          46.00       171.75
  330.58        2982.50           1657          50.00       189.19
  330.61        2982.75           1660          52.00       197.91
  330.64        2983.00           1663          52.00       197.91
  330.67        2983.25           1667          48.00       180.47
  330.70        2983.50           1670          52.00       197.91
  330.73        2983.75           1673          51.00       193.55
  330.76        2984.00           1677          49.00       184.83
HS scan finished at 05:30:59
end
************************************************************
  HS Scan of (1) Internal mercury lamp
************************************************************
Integration time is 0.2294 seconds per sample
dh301218Manchester 53.47 2.23 2.804185pr1000
************************************************************
Dead Time -------------------------  3E-08 
Number of Cycles Used -------------  4 
Starting Wavelength (Angstroms) ---  2950 
Final Wavelength (Angstoms) -------  2984 
Wavelength Increment (Angstroms) --  .25 
Filter Wheel #1 Position ---------- (1) Ground quartz diffuser (ND=2.32)
Filter Wheel #2 Position ---------- (1) Neutral Density 0.494



************************************************************
HS scan start time = 17:12:04
Dark Count =  5 


Time (GMT)  Wavelength (Ang)  Step Number  Raw Counts  Counts/Second

 1032.44        2950.00           1222          60.00       239.76
 1032.50        2950.25           1226          56.00       222.32
 1032.53        2950.50           1229          55.00       217.96
 1032.56        2950.75           1232          58.00       231.04
 1032.60        2951.00           1236          55.00       217.96
 1032.63        2951.25           1239          54.00       213.60
 1032.66        2951.50           1242          57.00       226.68
 1032.69        2951.75           1246          60.00       239.76
 1032.72        2952.00           1249          52.00       204.88
 1032.75        2952.25           1252          51.00       200.52
 1032.78        2952.50           1256          57.00       226.68
 1032.81        2952.75           1259          56.00       222.32
 1032.84        2953.00           1262          48.00       187.45
 1032.87        2953.25           1266          53.00       209.24
 1032.90        2953.50           1269          52.00       204.88
 1032.93        2953.75           1272          56.00       222.32
 1032.96        2954.00           1276          47.00       183.09
 1032.99        2954.25           1279          52.00       204.88
 1033.02        2954.50           1282          59.00       235.40
 1033.06        2954.75           1286          49.00       191.81
 1033.09        2955.00           1289          49.00       191.81
 1033.12        2955.25           1292          58.00       231.04
 1033.15        2955.50           1296          54.00       213.60
 1033.18        2955.75           1299          46.00       178.73
 1033.21        2956.00           1302          56.00       222.32
 1033.24        2956.25           1306          62.00       248.48
 1033.27        2956.50           1309          54.00       213.60
 1033.30        2956.75           1312          50.00       196.17
 1033.34        2957.00           1316          52.00       204.88
 1033.37        2957.25           1319          53.00       209.24
 1033.40        2957.50           1322          64.00       257.19
 1033.43        2957.75           1326          48.00       187.45
 1033.46        2958.00           1329          53.00       209.24
 1033.49        2958.25           1332          50.00       196.17
 1033.52        2958.50           1336          65.00       261.55
 1033.55        2958.75           1339          56.00       222.32
 1033.58        2959.00           1342          50.00       196.17
 1033.61        2959.25           1346          58.00       231.04
 1033.64        2959.50           1349          67.00       270.27
 1033.67        2959.75           1352          83.00       340.02
 1033.71        2960.00           1356          91.00       374.90
 1033.74        2960.25           1359         120.00       501.32
 1033.77        2960.50           1362         132.00       553.63
 1033.80        2960.75           1366         176.00       745.44
 1033.83        2961.00           1369         205.00       871.86
 1033.86        2961.25           1372         242.00      1033.16
 1033.89        2961.50           1376         280.00      1198.82
 1033.92        2961.75           1379         380.00      1634.78
 1033.95        2962.00           1382         743.00      3217.40
 1033.98        2962.25           1386        1931.00      8397.93
 1034.01        2962.50           1389        3071.00     13370.66
 1034.05        2962.75           1392        4217.00     18371.07
 1034.08        2963.00           1396        5608.00     24442.50
 1034.11        2963.25           1399        6765.00     29494.26
 1034.14        2963.50           1402        7867.00     34307.31
 1034.17        2963.75           1406        9440.00     41179.88
 1034.20        2964.00           1409       10497.00     45799.60
 1034.23        2964.25           1412       11738.00     51225.13
 1034.26        2964.50           1416       13266.00     57907.84
 1034.29        2964.75           1419       14394.00     62842.87
 1034.32        2965.00           1422       15752.00     68786.09
 1034.36        2965.25           1426       17214.00     75186.85
 1034.39        2965.50           1429       18246.00     79706.50
 1034.42        2965.75           1432       19478.00     85103.66
 1034.45        2966.00           1436       20816.00     90967.19
 1034.48        2966.25           1439       21926.00     95833.10
 1034.51        2966.50           1442       22977.00    100441.70
 1034.54        2966.75           1446       24283.00    106170.20
 1034.57        2967.00           1449       24698.00    107991.00
 1034.60        2967.25           1452       24755.00    108241.10
 1034.64        2967.50           1456       24739.00    108170.90
 1034.67        2967.75           1459       24865.00    108723.70
 1034.70        2968.00           1462       24800.00    108438.50
 1034.73        2968.25           1466       24177.00    105705.20
 1034.76        2968.50           1469       23180.00    101332.00
 1034.79        2968.75           1472       22150.00     96815.22
 1034.82        2969.00           1476       20794.00     90870.76
 1034.85        2969.25           1479       19637.00     85800.34
 1034.88        2969.50           1482       18503.00     80832.23
 1034.91        2969.75           1486       17169.00     74989.79
 1034.95        2970.00           1489       15963.00     69709.71
 1034.98        2970.25           1492       14664.00     64024.35
 1035.01        2970.50           1496       13245.00     57815.98
 1035.04        2970.75           1499       12036.00     52528.23
 1035.07        2971.00           1502       10873.00     47443.24
 1035.10        2971.25           1506        9248.00     40340.86
 1035.13        2971.50           1509        8139.00     35495.49
 1035.16        2971.75           1513        6707.00     29240.99
 1035.19        2972.00           1516        5602.00     24416.31
 1035.23        2972.25           1519        4515.00     19671.59
 1035.26        2972.50           1523        3036.00     13217.97
 1035.29        2972.75           1526        1880.00      8175.50
 1035.32        2973.00           1529         876.00      3797.29
 1035.35        2973.25           1533         347.00      1490.91
 1035.38        2973.50           1536         266.00      1137.79
 1035.41        2973.75           1539         232.00       989.57
 1035.44        2974.00           1543         188.00       797.75
 1035.47        2974.25           1546         131.00       549.27
 1035.50        2974.50           1549         102.00       422.85
 1035.54        2974.75           1553          87.00       357.46
 1035.57        2975.00           1556          67.00       270.27
 1035.60        2975.25           1559          60.00       239.76
 1035.63        2975.50           1563          51.00       200.52
 1035.66        2975.75           1566          59.00       235.40
 1035.69        2976.00           1569          53.00       209.24
 1035.72        2976.25           1573          51.00       200.52
 1035.75        2976.50           1576          51.00       200.52
 1035.78        2976.75           1579          51.00       200.52
 1035.81        2977.00           1583          48.00       187.45
 1035.84        2977.25           1586          53.00       209.24
 1035.87        2977.50           1590          49.00       191.81
 1035.91        2977.75           1593          52.00       204.88
 1035.94        2978.00           1596          53.00       209.24
 1035.97        2978.25           1600          44.00       170.01
 1036.00        2978.50           1603          47.00       183.09
 1036.03        2978.75           1606          54.00       213.60
 1036.06        2979.00           1610          45.00       174.37
 1036.09        2979.25           1613          53.00       209.24
 1036.12        2979.50           1616          55.00       217.96
 1036.15        2979.75           1620          44.00       170.01
 1036.18        2980.00           1623          59.00       235.40
 1036.21        2980.25           1626          57.00       226.68
 1036.24        2980.50           1630          58.00       231.04
 1036.28        2980.75           1633          45.00       174.37
 1036.31        2981.00           1637          52.00       204.88
 1036.34        2981.25           1640          49.00       191.81
 1036.37        2981.50           1643          51.00       200.52
 1036.40        2981.75           1647          55.00       217.96
 1036.43        2982.00           1650          51.00       200.52
 1036.46        2982.25           1653          48.00       187.45
 1036.49        2982.50           1657          46.00       178.73
 1036.52        2982.75           1660          52.00       204.88
 1036.55        2983.00           1663          47.00       183.09
 1036.58        2983.25           1667          47.00       183.09
 1036.61        2983.50           1670          52.00       204.88
 1036.64        2983.75           1673          54.00       213.60
 1036.68        2984.00           1677          47.00       183.09
HS scan finished at 17:16:54
end
