************************************************************
  HS Scan of (1) Internal mercury lamp
************************************************************
Integration time is 0.2294 seconds per sample
dh271218Manchester 53.47 2.23 2.804185pr1000
************************************************************
Dead Time -------------------------  3E-08 
Number of Cycles Used -------------  4 
Starting Wavelength (Angstroms) ---  2950 
Final Wavelength (Angstoms) -------  2984 
Wavelength Increment (Angstroms) --  .25 
Filter Wheel #1 Position ---------- (1) Ground quartz diffuser (ND=2.32)
Filter Wheel #2 Position ---------- (1) Neutral Density 0.494



************************************************************
HS scan start time = 05:25:31
Dark Count =  8.7 


Time (GMT)  Wavelength (Ang)  Step Number  Raw Counts  Counts/Second

  325.88        2950.00           1222          53.00       193.11
  325.94        2950.25           1226          52.00       188.75
  325.97        2950.50           1229          58.00       214.91
  326.01        2950.75           1232          53.00       193.11
  326.04        2951.00           1236          57.00       210.55
  326.07        2951.25           1239          56.00       206.19
  326.10        2951.50           1242          47.00       166.96
  326.13        2951.75           1246          56.00       206.19
  326.16        2952.00           1249          52.00       188.75
  326.19        2952.25           1252          48.00       171.32
  326.22        2952.50           1256          54.00       197.47
  326.25        2952.75           1259          52.00       188.75
  326.28        2953.00           1262          50.00       180.04
  326.31        2953.25           1266          58.00       214.91
  326.35        2953.50           1269          49.00       175.68
  326.38        2953.75           1272          53.00       193.11
  326.41        2954.00           1276          46.00       162.60
  326.44        2954.25           1279          52.00       188.75
  326.47        2954.50           1282          59.00       219.27
  326.50        2954.75           1286          57.00       210.55
  326.53        2955.00           1289          60.00       223.63
  326.56        2955.25           1292          58.00       214.91
  326.59        2955.50           1296          50.00       180.04
  326.62        2955.75           1299          56.00       206.19
  326.65        2956.00           1302          61.00       227.99
  326.69        2956.25           1306          49.00       175.68
  326.72        2956.50           1309          56.00       206.19
  326.75        2956.75           1312          61.00       227.99
  326.78        2957.00           1316          47.00       166.96
  326.81        2957.25           1319          54.00       197.47
  326.84        2957.50           1322          52.00       188.75
  326.87        2957.75           1326          52.00       188.75
  326.90        2958.00           1329          54.00       197.47
  326.93        2958.25           1332          58.00       214.91
  326.96        2958.50           1336          57.00       210.55
  326.99        2958.75           1339          52.00       188.75
  327.02        2959.00           1342          59.00       219.27
  327.06        2959.25           1346          72.00       275.94
  327.09        2959.50           1349          64.00       241.07
  327.12        2959.75           1352          65.00       245.42
  327.15        2960.00           1356          83.00       323.89
  327.18        2960.25           1359         105.00       419.80
  327.21        2960.50           1362         133.00       541.86
  327.24        2960.75           1366         170.00       703.15
  327.27        2961.00           1369         222.00       929.84
  327.30        2961.25           1372         232.00       973.44
  327.33        2961.50           1376         288.00      1217.57
  327.36        2961.75           1379         420.00      1793.03
  327.39        2962.00           1382         922.00      3981.73
  327.43        2962.25           1386        2352.00     10218.04
  327.46        2962.50           1389        3485.00     15160.77
  327.49        2962.75           1392        4592.00     19991.50
  327.52        2963.00           1396        6051.00     26360.42
  327.55        2963.25           1399        7110.00     30984.76
  327.58        2963.50           1402        8284.00     36112.77
  327.61        2963.75           1406        9840.00     42911.79
  327.64        2964.00           1409       10979.00     47890.47
  327.67        2964.25           1412       12274.00     53552.84
  327.70        2964.50           1416       13679.00     59698.37
  327.74        2964.75           1419       14958.00     65294.74
  327.77        2965.00           1422       16185.00     70665.35
  327.80        2965.25           1426       17840.00     77912.06
  327.83        2965.50           1429       19036.00     83150.94
  327.86        2965.75           1432       20368.00     88987.47
  327.89        2966.00           1436       21607.00     94418.34
  327.92        2966.25           1439       22851.00     99872.91
  327.95        2966.50           1442       23945.00    104671.30
  327.98        2966.75           1446       25031.00    109435.90
  328.02        2967.00           1449       25326.00    110730.40
  328.05        2967.25           1452       25452.00    111283.30
  328.08        2967.50           1456       25449.00    111270.10
  328.11        2967.75           1459       25356.00    110862.00
  328.14        2968.00           1462       25261.00    110445.10
  328.17        2968.25           1466       24597.00    107531.60
  328.20        2968.50           1469       23574.00    103043.90
  328.23        2968.75           1472       22501.00     98338.07
  328.26        2969.00           1476       20861.00     91148.21
  328.29        2969.25           1479       19769.00     86362.52
  328.32        2969.50           1482       18723.00     81779.74
  328.36        2969.75           1486       17141.00     74850.99
  328.39        2970.00           1489       16011.00     69903.63
  328.42        2970.25           1492       15025.00     65587.96
  328.45        2970.50           1496       13287.00     57983.52
  328.48        2970.75           1499       12226.00     53342.93
  328.51        2971.00           1502       10990.00     47938.56
  328.54        2971.25           1506        9341.00     40731.09
  328.57        2971.50           1509        8151.00     35531.76
  328.61        2971.75           1513        6526.00     28434.45
  328.64        2972.00           1516        5302.00     23090.53
  328.67        2972.25           1519        4283.00     18642.94
  328.70        2972.50           1523        2693.00     11705.51
  328.73        2972.75           1526        1643.00      7125.76
  328.76        2973.00           1529         776.00      3345.15
  328.79        2973.25           1533         360.00      1531.46
  328.82        2973.50           1536         275.00      1160.89
  328.85        2973.75           1539         229.00       960.36
  328.88        2974.00           1543         197.00       820.86
  328.91        2974.25           1546         167.00       690.08
  328.94        2974.50           1549         116.00       467.75
  328.97        2974.75           1553          86.00       336.97
  329.00        2975.00           1556          73.00       280.30
  329.04        2975.25           1559          66.00       249.78
  329.07        2975.50           1563          53.00       193.11
  329.10        2975.75           1566          52.00       188.75
  329.13        2976.00           1569          47.00       166.96
  329.16        2976.25           1573          55.00       201.83
  329.19        2976.50           1576          52.00       188.75
  329.22        2976.75           1579          55.00       201.83
  329.25        2977.00           1583          59.00       219.27
  329.28        2977.25           1586          50.00       180.04
  329.31        2977.50           1590          43.00       149.52
  329.35        2977.75           1593          48.00       171.32
  329.38        2978.00           1596          55.00       201.83
  329.41        2978.25           1600          48.00       171.32
  329.44        2978.50           1603          53.00       193.11
  329.47        2978.75           1606          49.00       175.68
  329.50        2979.00           1610          52.00       188.75
  329.53        2979.25           1613          46.00       162.60
  329.56        2979.50           1616          51.00       184.40
  329.59        2979.75           1620          46.00       162.60
  329.62        2980.00           1623          43.00       149.52
  329.65        2980.25           1626          51.00       184.40
  329.68        2980.50           1630          50.00       180.04
  329.72        2980.75           1633          52.00       188.75
  329.75        2981.00           1637          49.00       175.68
  329.78        2981.25           1640          46.00       162.60
  329.81        2981.50           1643          51.00       184.40
  329.84        2981.75           1647          44.00       153.88
  329.87        2982.00           1650          55.00       201.83
  329.90        2982.25           1653          45.00       158.24
  329.93        2982.50           1657          50.00       180.04
  329.96        2982.75           1660          48.00       171.32
  329.99        2983.00           1663          54.00       197.47
  330.02        2983.25           1667          52.00       188.75
  330.05        2983.50           1670          52.00       188.75
  330.08        2983.75           1673          48.00       171.32
  330.11        2984.00           1677          46.00       162.60
HS scan finished at 05:30:20
end
************************************************************
  HS Scan of (1) Internal mercury lamp
************************************************************
Integration time is 0.2294 seconds per sample
dh271218Manchester 53.47 2.23 2.804185pr1000
************************************************************
Dead Time -------------------------  3E-08 
Number of Cycles Used -------------  4 
Starting Wavelength (Angstroms) ---  2950 
Final Wavelength (Angstoms) -------  2984 
Wavelength Increment (Angstroms) --  .25 
Filter Wheel #1 Position ---------- (1) Ground quartz diffuser (ND=2.32)
Filter Wheel #2 Position ---------- (1) Neutral Density 0.494



************************************************************
HS scan start time = 16:42:04
Dark Count =  6.6 


Time (GMT)  Wavelength (Ang)  Step Number  Raw Counts  Counts/Second

 1002.44        2950.00           1222          51.00       193.55
 1002.51        2950.25           1226          57.00       219.71
 1002.54        2950.50           1229          46.00       171.75
 1002.57        2950.75           1232          56.00       215.35
 1002.60        2951.00           1236          57.00       219.71
 1002.63        2951.25           1239          47.00       176.11
 1002.66        2951.50           1242          61.00       237.14
 1002.69        2951.75           1246          50.00       189.19
 1002.72        2952.00           1249          53.00       202.27
 1002.75        2952.25           1252          53.00       202.27
 1002.78        2952.50           1256          54.00       206.63
 1002.81        2952.75           1259          58.00       224.06
 1002.84        2953.00           1262          59.00       228.42
 1002.88        2953.25           1266          58.00       224.06
 1002.91        2953.50           1269          56.00       215.35
 1002.94        2953.75           1272          53.00       202.27
 1002.97        2954.00           1276          58.00       224.06
 1003.00        2954.25           1279          54.00       206.63
 1003.03        2954.50           1282          58.00       224.06
 1003.06        2954.75           1286          60.00       232.78
 1003.09        2955.00           1289          49.00       184.83
 1003.12        2955.25           1292          53.00       202.27
 1003.15        2955.50           1296          59.00       228.42
 1003.18        2955.75           1299          43.00       158.68
 1003.21        2956.00           1302          47.00       176.11
 1003.24        2956.25           1306          59.00       228.42
 1003.27        2956.50           1309          57.00       219.71
 1003.31        2956.75           1312          63.00       245.86
 1003.34        2957.00           1316          55.00       210.99
 1003.37        2957.25           1319          55.00       210.99
 1003.40        2957.50           1322          60.00       232.78
 1003.43        2957.75           1326          51.00       193.55
 1003.46        2958.00           1329          54.00       206.63
 1003.49        2958.25           1332          53.00       202.27
 1003.52        2958.50           1336          63.00       245.86
 1003.55        2958.75           1339          54.00       206.63
 1003.58        2959.00           1342          56.00       215.35
 1003.61        2959.25           1346          55.00       210.99
 1003.65        2959.50           1349          67.00       263.30
 1003.68        2959.75           1352          64.00       250.22
 1003.71        2960.00           1356          85.00       341.76
 1003.74        2960.25           1359         116.00       476.90
 1003.77        2960.50           1362         130.00       537.93
 1003.80        2960.75           1366         175.00       734.11
 1003.83        2961.00           1369         199.00       838.73
 1003.86        2961.25           1372         224.00       947.72
 1003.89        2961.50           1376         276.00      1174.41
 1003.92        2961.75           1379         428.00      1837.07
 1003.95        2962.00           1382         890.00      3851.36
 1003.99        2962.25           1386        2189.00      9516.23
 1004.02        2962.50           1389        3329.00     14489.30
 1004.05        2962.75           1392        4491.00     19559.86
 1004.08        2963.00           1396        5997.00     26133.82
 1004.11        2963.25           1399        7078.00     30854.18
 1004.14        2963.50           1402        8202.00     35763.73
 1004.17        2963.75           1406        9781.00     42663.12
 1004.20        2964.00           1409       10922.00     47650.46
 1004.23        2964.25           1412       12140.00     52976.02
 1004.26        2964.50           1416       13666.00     59650.68
 1004.29        2964.75           1419       14818.00     64691.26
 1004.33        2965.00           1422       16141.00     70481.93
 1004.36        2965.25           1426       17669.00     77172.36
 1004.39        2965.50           1429       18738.00     81854.65
 1004.42        2965.75           1432       20050.00     87603.08
 1004.45        2966.00           1436       21398.00     93511.31
 1004.48        2966.25           1439       22760.00     99483.04
 1004.51        2966.50           1442       23669.00    103469.80
 1004.54        2966.75           1446       24603.00    107567.10
 1004.57        2967.00           1449       25076.00    109642.50
 1004.60        2967.25           1452       25011.00    109357.30
 1004.64        2967.50           1456       25085.00    109682.00
 1004.67        2967.75           1459       25075.00    109638.20
 1004.70        2968.00           1462       24973.00    109190.60
 1004.73        2968.25           1466       24200.00    105799.10
 1004.76        2968.50           1469       23282.00    101772.30
 1004.79        2968.75           1472       22150.00     96808.22
 1004.82        2969.00           1476       20829.00     91017.16
 1004.85        2969.25           1479       19676.00     85964.22
 1004.88        2969.50           1482       18551.00     81035.47
 1004.91        2969.75           1486       16919.00     73888.10
 1004.94        2970.00           1489       15820.00     69076.75
 1004.98        2970.25           1492       14657.00     63986.71
 1005.01        2970.50           1496       13128.00     57297.19
 1005.04        2970.75           1499       12150.00     53019.75
 1005.07        2971.00           1502       10804.00     47134.61
 1005.10        2971.25           1506        9283.00     40486.81
 1005.13        2971.50           1509        8005.00     34903.14
 1005.16        2971.75           1513        6457.00     28142.32
 1005.19        2972.00           1516        5301.00     23095.34
 1005.22        2972.25           1519        4255.00     18529.92
 1005.26        2972.50           1523        2812.00     12233.78
 1005.29        2972.75           1526        1682.00      7305.00
 1005.32        2973.00           1529         818.00      3537.43
 1005.35        2973.25           1533         354.00      1514.45
 1005.38        2973.50           1536         280.00      1191.85
 1005.41        2973.75           1539         244.00      1034.91
 1005.44        2974.00           1543         194.00       816.93
 1005.47        2974.25           1546         157.00       655.64
 1005.50        2974.50           1549         116.00       476.90
 1005.53        2974.75           1553          86.00       346.12
 1005.56        2975.00           1556          66.00       258.94
 1005.59        2975.25           1559          57.00       219.71
 1005.62        2975.50           1563          54.00       206.63
 1005.65        2975.75           1566          53.00       202.27
 1005.68        2976.00           1569          61.00       237.14
 1005.71        2976.25           1573          46.00       171.75
 1005.74        2976.50           1576          48.00       180.47
 1005.77        2976.75           1579          55.00       210.99
 1005.81        2977.00           1583          45.00       167.39
 1005.84        2977.25           1586          52.00       197.91
 1005.87        2977.50           1590          49.00       184.83
 1005.90        2977.75           1593          58.00       224.06
 1005.93        2978.00           1596          46.00       171.75
 1005.96        2978.25           1600          60.00       232.78
 1005.99        2978.50           1603          54.00       206.63
 1006.02        2978.75           1606          52.00       197.91
 1006.05        2979.00           1610          49.00       184.83
 1006.08        2979.25           1613          51.00       193.55
 1006.11        2979.50           1616          60.00       232.78
 1006.14        2979.75           1620          48.00       180.47
 1006.18        2980.00           1623          53.00       202.27
 1006.21        2980.25           1626          47.00       176.11
 1006.24        2980.50           1630          56.00       215.35
 1006.27        2980.75           1633          47.00       176.11
 1006.30        2981.00           1637          49.00       184.83
 1006.33        2981.25           1640          50.00       189.19
 1006.36        2981.50           1643          54.00       206.63
 1006.39        2981.75           1647          47.00       176.11
 1006.42        2982.00           1650          47.00       176.11
 1006.45        2982.25           1653          58.00       224.06
 1006.48        2982.50           1657          44.00       163.03
 1006.52        2982.75           1660          36.00       128.16
 1006.55        2983.00           1663          59.00       228.42
 1006.58        2983.25           1667          50.00       189.19
 1006.61        2983.50           1670          45.00       167.39
 1006.64        2983.75           1673          47.00       176.11
 1006.67        2984.00           1677          56.00       215.35
HS scan finished at 16:46:53
end
