************************************************************
  HS Scan of (1) Internal mercury lamp
************************************************************
Integration time is 0.2294 seconds per sample
dh261218Manchester 53.47 2.23 2.804185pr1000
************************************************************
Dead Time -------------------------  3E-08 
Number of Cycles Used -------------  4 
Starting Wavelength (Angstroms) ---  2950 
Final Wavelength (Angstoms) -------  2984 
Wavelength Increment (Angstroms) --  .25 
Filter Wheel #1 Position ---------- (1) Ground quartz diffuser (ND=2.32)
Filter Wheel #2 Position ---------- (1) Neutral Density 0.494



************************************************************
HS scan start time = 05:25:12
Dark Count =  5.3 


Time (GMT)  Wavelength (Ang)  Step Number  Raw Counts  Counts/Second

  325.57        2950.00           1222          49.00       190.50
  325.63        2950.25           1226          51.00       199.22
  325.66        2950.50           1229          59.00       234.09
  325.70        2950.75           1232          57.00       225.37
  325.73        2951.00           1236          50.00       194.86
  325.76        2951.25           1239          53.00       207.94
  325.79        2951.50           1242          64.00       255.89
  325.82        2951.75           1246          45.00       173.06
  325.85        2952.00           1249          59.00       234.09
  325.88        2952.25           1252          48.00       186.14
  325.91        2952.50           1256          55.00       216.65
  325.94        2952.75           1259          57.00       225.37
  325.97        2953.00           1262          48.00       186.14
  326.00        2953.25           1266          49.00       190.50
  326.03        2953.50           1269          53.00       207.94
  326.06        2953.75           1272          53.00       207.94
  326.09        2954.00           1276          55.00       216.65
  326.12        2954.25           1279          46.00       177.42
  326.15        2954.50           1282          61.00       242.81
  326.18        2954.75           1286          51.00       199.22
  326.22        2955.00           1289          57.00       225.37
  326.25        2955.25           1292          55.00       216.65
  326.28        2955.50           1296          57.00       225.37
  326.31        2955.75           1299          50.00       194.86
  326.34        2956.00           1302          52.00       203.58
  326.37        2956.25           1306          58.00       229.73
  326.40        2956.50           1309          51.00       199.22
  326.43        2956.75           1312          49.00       190.50
  326.46        2957.00           1316          60.00       238.45
  326.49        2957.25           1319          56.00       221.01
  326.52        2957.50           1322          52.00       203.58
  326.56        2957.75           1326          59.00       234.09
  326.59        2958.00           1329          49.00       190.50
  326.62        2958.25           1332          56.00       221.01
  326.65        2958.50           1336          61.00       242.81
  326.68        2958.75           1339          58.00       229.73
  326.71        2959.00           1342          61.00       242.81
  326.74        2959.25           1346          63.00       251.53
  326.77        2959.50           1349          60.00       238.45
  326.80        2959.75           1352          77.00       312.56
  326.83        2960.00           1356          87.00       356.15
  326.87        2960.25           1359         124.00       517.44
  326.90        2960.50           1362         137.00       574.12
  326.93        2960.75           1366         191.00       809.52
  326.96        2961.00           1369         218.00       927.23
  326.99        2961.25           1372         252.00      1075.45
  327.02        2961.50           1376         305.00      1306.50
  327.05        2961.75           1379         390.00      1677.07
  327.08        2962.00           1382         654.00      2828.05
  327.11        2962.25           1386        1873.00      8143.66
  327.14        2962.50           1389        3026.00     13173.03
  327.18        2962.75           1392        4284.00     18662.15
  327.21        2963.00           1396        5780.00     25192.10
  327.24        2963.25           1399        6874.00     29968.95
  327.27        2963.50           1402        8096.00     35306.35
  327.30        2963.75           1406        9723.00     42415.32
  327.33        2964.00           1409       10736.00     46843.03
  327.36        2964.25           1412       12075.00     52697.46
  327.39        2964.50           1416       13648.00     59577.62
  327.42        2964.75           1419       14689.00     64132.43
  327.46        2965.00           1422       15948.00     69642.74
  327.49        2965.25           1426       17639.00     77046.68
  327.52        2965.50           1429       18817.00     82206.41
  327.55        2965.75           1432       19991.00     87350.22
  327.58        2966.00           1436       21617.00     94477.08
  327.61        2966.25           1439       22641.00     98966.89
  327.64        2966.50           1442       23784.00    103979.90
  327.67        2966.75           1446       24822.00    108533.70
  327.70        2967.00           1449       25323.00    110732.10
  327.73        2967.25           1452       25453.00    111302.60
  327.77        2967.50           1456       25415.00    111135.80
  327.80        2967.75           1459       25293.00    110600.50
  327.83        2968.00           1462       25054.00    109551.70
  327.86        2968.25           1466       24546.00    107322.80
  327.89        2968.50           1469       23476.00    102628.90
  327.92        2968.75           1472       22421.00     98002.18
  327.95        2969.00           1476       20885.00     91268.30
  327.98        2969.25           1479       19815.00     86578.99
  328.01        2969.50           1482       18659.00     81514.27
  328.05        2969.75           1486       17176.00     75019.12
  328.08        2970.00           1489       16085.00     70242.46
  328.11        2970.25           1492       14793.00     64587.54
  328.14        2970.50           1496       13380.00     58405.21
  328.17        2970.75           1499       12258.00     53497.74
  328.20        2971.00           1502       10997.00     47984.02
  328.23        2971.25           1506        9390.00     40960.07
  328.26        2971.50           1509        8155.00     35564.08
  328.29        2971.75           1513        6669.00     29073.74
  328.32        2972.00           1516        5466.00     23821.29
  328.36        2972.25           1519        4443.00     19356.05
  328.39        2972.50           1523        2987.00     13002.89
  328.42        2972.75           1526        1923.00      8361.73
  328.45        2973.00           1529         907.00      3931.15
  328.48        2973.25           1533         372.00      1598.59
  328.51        2973.50           1536         264.00      1127.76
  328.54        2973.75           1539         231.00       983.90
  328.57        2974.00           1543         194.00       822.60
  328.60        2974.25           1546         146.00       613.35
  328.64        2974.50           1549         120.00       500.01
  328.67        2974.75           1553          75.00       303.84
  328.70        2975.00           1556          72.00       290.76
  328.73        2975.25           1559          53.00       207.94
  328.76        2975.50           1563          50.00       194.86
  328.79        2975.75           1566          54.00       212.29
  328.82        2976.00           1569          54.00       212.29
  328.85        2976.25           1573          51.00       199.22
  328.88        2976.50           1576          57.00       225.37
  328.91        2976.75           1579          53.00       207.94
  328.94        2977.00           1583          48.00       186.14
  328.97        2977.25           1586          49.00       190.50
  329.00        2977.50           1590          54.00       212.29
  329.04        2977.75           1593          48.00       186.14
  329.07        2978.00           1596          53.00       207.94
  329.10        2978.25           1600          45.00       173.06
  329.13        2978.50           1603          48.00       186.14
  329.16        2978.75           1606          55.00       216.65
  329.19        2979.00           1610          53.00       207.94
  329.22        2979.25           1613          56.00       221.01
  329.25        2979.50           1616          49.00       190.50
  329.28        2979.75           1620          49.00       190.50
  329.31        2980.00           1623          48.00       186.14
  329.34        2980.25           1626          53.00       207.94
  329.38        2980.50           1630          56.00       221.01
  329.41        2980.75           1633          49.00       190.50
  329.44        2981.00           1637          56.00       221.01
  329.47        2981.25           1640          54.00       212.29
  329.50        2981.50           1643          59.00       234.09
  329.53        2981.75           1647          50.00       194.86
  329.56        2982.00           1650          50.00       194.86
  329.59        2982.25           1653          54.00       212.29
  329.62        2982.50           1657          49.00       190.50
  329.66        2982.75           1660          49.00       190.50
  329.69        2983.00           1663          49.00       190.50
  329.72        2983.25           1667          49.00       190.50
  329.75        2983.50           1670          48.00       186.14
  329.78        2983.75           1673          48.00       186.14
  329.81        2984.00           1677          52.00       203.58
HS scan finished at 05:30:02
end
************************************************************
  HS Scan of (1) Internal mercury lamp
************************************************************
Integration time is 0.2294 seconds per sample
dh261218Manchester 53.47 2.23 2.804185pr1000
************************************************************
Dead Time -------------------------  3E-08 
Number of Cycles Used -------------  4 
Starting Wavelength (Angstroms) ---  2950 
Final Wavelength (Angstoms) -------  2984 
Wavelength Increment (Angstroms) --  .25 
Filter Wheel #1 Position ---------- (1) Ground quartz diffuser (ND=2.32)
Filter Wheel #2 Position ---------- (1) Neutral Density 0.494



************************************************************
HS scan start time = 16:42:04
Dark Count =  6 


Time (GMT)  Wavelength (Ang)  Step Number  Raw Counts  Counts/Second

 1002.44        2950.00           1222          59.00       231.04
 1002.51        2950.25           1226          61.00       239.76
 1002.54        2950.50           1229          58.00       226.68
 1002.57        2950.75           1232          73.00       292.07
 1002.60        2951.00           1236          56.00       217.96
 1002.63        2951.25           1239          51.00       196.17
 1002.66        2951.50           1242          56.00       217.96
 1002.69        2951.75           1246          48.00       183.09
 1002.73        2952.00           1249          51.00       196.17
 1002.76        2952.25           1252          61.00       239.76
 1002.79        2952.50           1256          53.00       204.88
 1002.82        2952.75           1259          55.00       213.60
 1002.85        2953.00           1262          54.00       209.24
 1002.88        2953.25           1266          50.00       191.81
 1002.91        2953.50           1269          55.00       213.60
 1002.94        2953.75           1272          50.00       191.81
 1002.97        2954.00           1276          56.00       217.96
 1003.00        2954.25           1279          69.00       274.63
 1003.03        2954.50           1282          58.00       226.68
 1003.06        2954.75           1286          56.00       217.96
 1003.09        2955.00           1289          52.00       200.52
 1003.13        2955.25           1292          55.00       213.60
 1003.16        2955.50           1296          52.00       200.52
 1003.19        2955.75           1299          48.00       183.09
 1003.22        2956.00           1302          49.00       187.45
 1003.25        2956.25           1306          55.00       213.60
 1003.28        2956.50           1309          51.00       196.17
 1003.31        2956.75           1312          53.00       204.88
 1003.34        2957.00           1316          54.00       209.24
 1003.37        2957.25           1319          53.00       204.88
 1003.40        2957.50           1322          54.00       209.24
 1003.43        2957.75           1326          52.00       200.52
 1003.46        2958.00           1329          53.00       204.88
 1003.50        2958.25           1332          50.00       191.81
 1003.53        2958.50           1336          58.00       226.68
 1003.56        2958.75           1339          53.00       204.88
 1003.59        2959.00           1342          59.00       231.04
 1003.62        2959.25           1346          55.00       213.60
 1003.65        2959.50           1349          62.00       244.12
 1003.68        2959.75           1352          71.00       283.35
 1003.71        2960.00           1356          89.00       361.82
 1003.74        2960.25           1359          99.00       405.41
 1003.77        2960.50           1362         131.00       544.91
 1003.80        2960.75           1366         183.00       771.60
 1003.83        2961.00           1369         194.00       819.55
 1003.86        2961.25           1372         251.00      1068.04
 1003.90        2961.50           1376         293.00      1251.14
 1003.93        2961.75           1379         408.00      1752.49
 1003.96        2962.00           1382         876.00      3792.93
 1003.99        2962.25           1386        2167.00      9422.89
 1004.02        2962.50           1389        3178.00     13833.12
 1004.05        2962.75           1392        4326.00     18842.38
 1004.08        2963.00           1396        6006.00     26175.74
 1004.11        2963.25           1399        7167.00     31245.49
 1004.14        2963.50           1402        8200.00     35757.61
 1004.17        2963.75           1406        9929.00     43312.57
 1004.21        2964.00           1409       11046.00     48195.18
 1004.24        2964.25           1412       12305.00     53700.22
 1004.27        2964.50           1416       13937.00     60838.93
 1004.30        2964.75           1419       14942.00     65236.53
 1004.33        2965.00           1422       16141.00     70484.54
 1004.36        2965.25           1426       17709.00     77350.16
 1004.39        2965.50           1429       18976.00     82899.90
 1004.42        2965.75           1432       20251.00     88486.55
 1004.45        2966.00           1436       21798.00     95267.52
 1004.49        2966.25           1439       22834.00     99810.19
 1004.52        2966.50           1442       23936.00    104643.60
 1004.55        2966.75           1446       24868.00    108732.50
 1004.58        2967.00           1449       25224.00    110294.60
 1004.61        2967.25           1452       25164.00    110031.30
 1004.64        2967.50           1456       25079.00    109658.30
 1004.67        2967.75           1459       25092.00    109715.40
 1004.70        2968.00           1462       25007.00    109342.40
 1004.73        2968.25           1466       24187.00    105744.70
 1004.77        2968.50           1469       23032.00    100678.50
 1004.80        2968.75           1472       22025.00     96262.77
 1004.83        2969.00           1476       20483.00     89503.31
 1004.86        2969.25           1479       19244.00     84074.04
 1004.89        2969.50           1482       18012.00     78677.21
 1004.92        2969.75           1486       16414.00     71679.69
 1004.95        2970.00           1489       15446.00     67442.34
 1004.98        2970.25           1492       14266.00     62278.42
 1005.01        2970.50           1496       12675.00     55318.41
 1005.05        2970.75           1499       11611.00     50665.44
 1005.08        2971.00           1502       10493.00     45777.74
 1005.11        2971.25           1506        9001.00     39257.19
 1005.14        2971.50           1509        8017.00     34958.18
 1005.17        2971.75           1513        6410.00     27939.71
 1005.20        2972.00           1516        5166.00     22508.66
 1005.23        2972.25           1519        3989.00     17371.74
 1005.26        2972.50           1523        2481.00     10792.51
 1005.29        2972.75           1526        1435.00      6230.46
 1005.32        2973.00           1529         655.00      2829.36
 1005.35        2973.25           1533         327.00      1399.36
 1005.38        2973.50           1536         260.00      1107.27
 1005.41        2973.75           1539         227.00       963.41
 1005.44        2974.00           1543         192.00       810.83
 1005.47        2974.25           1546         146.00       610.30
 1005.51        2974.50           1549         117.00       483.88
 1005.54        2974.75           1553          77.00       309.51
 1005.57        2975.00           1556          65.00       257.19
 1005.60        2975.25           1559          58.00       226.68
 1005.63        2975.50           1563          53.00       204.88
 1005.66        2975.75           1566          55.00       213.60
 1005.69        2976.00           1569          55.00       213.60
 1005.72        2976.25           1573          45.00       170.01
 1005.75        2976.50           1576          50.00       191.81
 1005.78        2976.75           1579          50.00       191.81
 1005.81        2977.00           1583          54.00       209.24
 1005.84        2977.25           1586          55.00       213.60
 1005.88        2977.50           1590          54.00       209.24
 1005.91        2977.75           1593          49.00       187.45
 1005.94        2978.00           1596          55.00       213.60
 1005.97        2978.25           1600          51.00       196.17
 1006.00        2978.50           1603          43.00       161.29
 1006.03        2978.75           1606          49.00       187.45
 1006.06        2979.00           1610          45.00       170.01
 1006.09        2979.25           1613          45.00       170.01
 1006.12        2979.50           1616          68.00       270.27
 1006.16        2979.75           1620          60.00       235.40
 1006.19        2980.00           1623          57.00       222.32
 1006.22        2980.25           1626          58.00       226.68
 1006.25        2980.50           1630          52.00       200.52
 1006.28        2980.75           1633          49.00       187.45
 1006.31        2981.00           1637          47.00       178.73
 1006.34        2981.25           1640          51.00       196.17
 1006.37        2981.50           1643          52.00       200.52
 1006.40        2981.75           1647          49.00       187.45
 1006.43        2982.00           1650          49.00       187.45
 1006.46        2982.25           1653          51.00       196.17
 1006.49        2982.50           1657          46.00       174.37
 1006.53        2982.75           1660          48.00       183.09
 1006.56        2983.00           1663          62.00       244.12
 1006.59        2983.25           1667          54.00       209.24
 1006.62        2983.50           1670          48.00       183.09
 1006.65        2983.75           1673          57.00       222.32
 1006.68        2984.00           1677          54.00       209.24
HS scan finished at 16:46:54
end
