************************************************************
  HS Scan of (1) Internal mercury lamp
************************************************************
Integration time is 0.2294 seconds per sample
dh281217Manchester 53.47 2.23 2.750537pr1000
************************************************************
Dead Time -------------------------  3E-08 
Number of Cycles Used -------------  4 
Starting Wavelength (Angstroms) ---  2950 
Final Wavelength (Angstoms) -------  2984 
Wavelength Increment (Angstroms) --  .25 
Filter Wheel #1 Position ---------- (1) Ground quartz diffuser (ND=2.32)
Filter Wheel #2 Position ---------- (1) Neutral Density 0.494



************************************************************
HS scan start time = 05:25:49
Dark Count =  9 


Time (GMT)  Wavelength (Ang)  Step Number  Raw Counts  Counts/Second

  326.19        2950.00           1222          59.00       217.96
  326.25        2950.25           1226          61.00       226.68
  326.28        2950.50           1229          65.00       244.12
  326.32        2950.75           1232          71.00       270.27
  326.35        2951.00           1236          64.00       239.76
  326.38        2951.25           1239          66.00       248.48
  326.41        2951.50           1242          56.00       204.88
  326.44        2951.75           1246          74.00       283.35
  326.47        2952.00           1249          62.00       231.04
  326.50        2952.25           1252          59.00       217.96
  326.53        2952.50           1256          58.00       213.60
  326.56        2952.75           1259          62.00       231.04
  326.59        2953.00           1262          66.00       248.48
  326.62        2953.25           1266          65.00       244.12
  326.65        2953.50           1269          70.00       265.91
  326.69        2953.75           1272          65.00       244.12
  326.72        2954.00           1276          62.00       231.04
  326.75        2954.25           1279          65.00       244.12
  326.78        2954.50           1282          75.00       287.71
  326.81        2954.75           1286          61.00       226.68
  326.84        2955.00           1289          58.00       213.60
  326.87        2955.25           1292          60.00       222.32
  326.90        2955.50           1296          61.00       226.68
  326.93        2955.75           1299          60.00       222.32
  326.96        2956.00           1302          63.00       235.40
  326.99        2956.25           1306          62.00       231.04
  327.02        2956.50           1309          60.00       222.32
  327.05        2956.75           1312          74.00       283.35
  327.08        2957.00           1316          63.00       235.40
  327.12        2957.25           1319          68.00       257.19
  327.15        2957.50           1322          70.00       265.91
  327.18        2957.75           1326          63.00       235.40
  327.21        2958.00           1329          57.00       209.24
  327.24        2958.25           1332          72.00       274.63
  327.27        2958.50           1336          59.00       217.96
  327.30        2958.75           1339          63.00       235.40
  327.33        2959.00           1342          57.00       209.24
  327.36        2959.25           1346          63.00       235.40
  327.39        2959.50           1349          63.00       235.40
  327.43        2959.75           1352          79.00       305.15
  327.46        2960.00           1356         104.00       414.13
  327.49        2960.25           1359         133.00       540.55
  327.52        2960.50           1362         155.00       636.46
  327.55        2960.75           1366         208.00       867.50
  327.58        2961.00           1369         248.00      1041.88
  327.61        2961.25           1372         284.00      1198.82
  327.64        2961.50           1376         356.00      1512.71
  327.67        2961.75           1379         511.00      2188.46
  327.70        2962.00           1382        1076.00      4651.91
  327.73        2962.25           1386        2640.00     11473.00
  327.76        2962.50           1389        4114.00     17904.12
  327.79        2962.75           1392        5595.00     24368.29
  327.83        2963.00           1396        7530.00     32817.82
  327.86        2963.25           1399        9046.00     39440.71
  327.89        2963.50           1402       10585.00     46166.78
  327.92        2963.75           1406       12732.00     55554.59
  327.95        2964.00           1409       14312.00     62466.57
  327.98        2964.25           1412       15800.00     68978.69
  328.01        2964.50           1416       17899.00     78169.16
  328.04        2964.75           1419       19284.00     84236.15
  328.07        2965.00           1422       20914.00     91379.19
  328.11        2965.25           1426       23126.00    101077.60
  328.14        2965.50           1429       24789.00    108372.70
  328.17        2965.75           1432       26374.00    115328.60
  328.20        2966.00           1436       28257.00    123596.10
  328.23        2966.25           1439       29594.00    129468.80
  328.26        2966.50           1442       31004.00    135664.40
  328.29        2966.75           1446       32765.00    143405.50
  328.32        2967.00           1449       33123.00    144979.70
  328.35        2967.25           1452       33133.00    145023.70
  328.38        2967.50           1456       33108.00    144913.70
  328.41        2967.75           1459       33118.00    144957.70
  328.45        2968.00           1462       32938.00    144166.20
  328.48        2968.25           1466       32174.00    140807.20
  328.51        2968.50           1469       30903.00    135220.50
  328.54        2968.75           1472       29517.00    129130.50
  328.57        2969.00           1476       27500.00    120271.90
  328.60        2969.25           1479       25832.00    112949.70
  328.63        2969.50           1482       24514.00    107166.10
  328.66        2969.75           1486       22659.00     99029.61
  328.69        2970.00           1489       20899.00     91313.44
  328.72        2970.25           1492       19657.00     85870.46
  328.76        2970.50           1496       17669.00     77161.85
  328.79        2970.75           1499       15912.00     69468.96
  328.82        2971.00           1502       14481.00     63206.05
  328.85        2971.25           1506       12503.00     54553.03
  328.88        2971.50           1509       10927.00     47661.83
  328.91        2971.75           1513        8876.00     38697.91
  328.94        2972.00           1516        7343.00     32001.07
  328.97        2972.25           1519        5796.00     25245.79
  329.00        2972.50           1523        3851.00     16756.46
  329.03        2972.75           1526        2424.00     10530.79
  329.07        2973.00           1529        1191.00      5153.37
  329.10        2973.25           1533         476.00      2035.87
  329.13        2973.50           1536         339.00      1438.60
  329.16        2973.75           1539         266.00      1120.35
  329.19        2974.00           1543         238.00       998.29
  329.22        2974.25           1546         173.00       714.92
  329.25        2974.50           1549         143.00       584.14
  329.28        2974.75           1553         105.00       418.49
  329.31        2975.00           1556          82.00       318.22
  329.34        2975.25           1559          72.00       274.63
  329.38        2975.50           1563          71.00       270.27
  329.41        2975.75           1566          55.00       200.52
  329.44        2976.00           1569          59.00       217.96
  329.47        2976.25           1573          65.00       244.12
  329.50        2976.50           1576          57.00       209.24
  329.53        2976.75           1579          62.00       231.04
  329.56        2977.00           1583          49.00       174.37
  329.59        2977.25           1586          63.00       235.40
  329.62        2977.50           1590          57.00       209.24
  329.65        2977.75           1593          59.00       217.96
  329.69        2978.00           1596          60.00       222.32
  329.72        2978.25           1600          56.00       204.88
  329.75        2978.50           1603          61.00       226.68
  329.78        2978.75           1606          58.00       213.60
  329.81        2979.00           1610          56.00       204.88
  329.84        2979.25           1613          78.00       300.79
  329.87        2979.50           1616          60.00       222.32
  329.90        2979.75           1620          53.00       191.81
  329.93        2980.00           1623          61.00       226.68
  329.96        2980.25           1626          64.00       239.76
  330.00        2980.50           1630          56.00       204.88
  330.03        2980.75           1633          66.00       248.48
  330.06        2981.00           1637          64.00       239.76
  330.09        2981.25           1640          53.00       191.81
  330.12        2981.50           1643          64.00       239.76
  330.15        2981.75           1647          59.00       217.96
  330.18        2982.00           1650          58.00       213.60
  330.21        2982.25           1653          60.00       222.32
  330.24        2982.50           1657          50.00       178.73
  330.27        2982.75           1660          54.00       196.17
  330.30        2983.00           1663          65.00       244.12
  330.34        2983.25           1667          58.00       213.60
  330.37        2983.50           1670          59.00       217.96
  330.40        2983.75           1673          59.00       217.96
  330.43        2984.00           1677          51.00       183.09
HS scan finished at 05:30:39
end
************************************************************
  HS Scan of (1) Internal mercury lamp
************************************************************
Integration time is 0.2294 seconds per sample
dh281217Manchester 53.47 2.23 2.750537pr1000
************************************************************
Dead Time -------------------------  3E-08 
Number of Cycles Used -------------  4 
Starting Wavelength (Angstroms) ---  2950 
Final Wavelength (Angstoms) -------  2984 
Wavelength Increment (Angstroms) --  .25 
Filter Wheel #1 Position ---------- (1) Ground quartz diffuser (ND=2.32)
Filter Wheel #2 Position ---------- (1) Neutral Density 0.494



************************************************************
HS scan start time = 16:42:00
Dark Count =  5.2 


Time (GMT)  Wavelength (Ang)  Step Number  Raw Counts  Counts/Second

 1002.36        2950.00           1222          67.00       269.40
 1002.43        2950.25           1226          62.00       247.60
 1002.46        2950.50           1229          71.00       286.84
 1002.49        2950.75           1232          68.00       273.76
 1002.52        2951.00           1236          57.00       225.81
 1002.55        2951.25           1239          53.00       208.37
 1002.58        2951.50           1242          69.00       278.12
 1002.61        2951.75           1246          68.00       273.76
 1002.65        2952.00           1249          65.00       260.68
 1002.68        2952.25           1252          62.00       247.60
 1002.71        2952.50           1256          58.00       230.17
 1002.74        2952.75           1259          80.00       326.07
 1002.77        2953.00           1262          64.00       256.32
 1002.80        2953.25           1266          59.00       234.53
 1002.83        2953.50           1269          60.00       238.89
 1002.86        2953.75           1272          67.00       269.40
 1002.89        2954.00           1276          63.00       251.96
 1002.92        2954.25           1279          51.00       199.65
 1002.95        2954.50           1282          65.00       260.68
 1002.98        2954.75           1286          61.00       243.25
 1003.02        2955.00           1289          64.00       256.32
 1003.05        2955.25           1292          66.00       265.04
 1003.08        2955.50           1296          60.00       238.89
 1003.11        2955.75           1299          72.00       291.20
 1003.14        2956.00           1302          69.00       278.12
 1003.17        2956.25           1306          64.00       256.32
 1003.20        2956.50           1309          63.00       251.96
 1003.23        2956.75           1312          60.00       238.89
 1003.26        2957.00           1316          69.00       278.12
 1003.29        2957.25           1319          68.00       273.76
 1003.32        2957.50           1322          54.00       212.73
 1003.35        2957.75           1326          57.00       225.81
 1003.38        2958.00           1329          64.00       256.32
 1003.41        2958.25           1332          56.00       221.45
 1003.45        2958.50           1336          60.00       238.89
 1003.48        2958.75           1339          62.00       247.60
 1003.51        2959.00           1342          69.00       278.12
 1003.54        2959.25           1346          62.00       247.60
 1003.57        2959.50           1349          73.00       295.56
 1003.60        2959.75           1352          86.00       352.23
 1003.63        2960.00           1356         108.00       448.13
 1003.66        2960.25           1359         141.00       591.99
 1003.69        2960.50           1362         187.00       792.52
 1003.72        2960.75           1366         218.00       927.66
 1003.75        2961.00           1369         266.00      1136.92
 1003.78        2961.25           1372         301.00      1289.50
 1003.81        2961.50           1376         383.00      1646.99
 1003.84        2961.75           1379         589.00      2545.09
 1003.88        2962.00           1382        1307.00      5675.77
 1003.91        2962.25           1386        2946.00     12824.46
 1003.94        2962.50           1389        4342.00     18915.70
 1003.97        2962.75           1392        5800.00     25279.85
 1004.00        2963.00           1396        7789.00     33965.72
 1004.03        2963.25           1399        9435.00     41157.15
 1004.06        2963.50           1402       10969.00     47862.05
 1004.09        2963.75           1406       13094.00     57154.59
 1004.12        2964.00           1409       14546.00     63507.10
 1004.16        2964.25           1412       16296.00     71166.60
 1004.19        2964.50           1416       18238.00     79670.59
 1004.22        2964.75           1419       19711.00     86123.72
 1004.25        2965.00           1422       21311.00     93136.06
 1004.28        2965.25           1426       23179.00    101326.70
 1004.31        2965.50           1429       24673.00    107880.40
 1004.34        2965.75           1432       26166.00    114432.30
 1004.37        2966.00           1436       28288.00    123748.90
 1004.40        2966.25           1439       29846.00    130592.60
 1004.43        2966.50           1442       31156.00    136349.10
 1004.47        2966.75           1446       32380.00    141729.50
 1004.50        2967.00           1449       32808.00    143611.30
 1004.53        2967.25           1452       32600.00    142696.80
 1004.56        2967.50           1456       32766.00    143426.60
 1004.59        2967.75           1459       32795.00    143554.10
 1004.62        2968.00           1462       32692.00    143101.30
 1004.65        2968.25           1466       31635.00    138454.50
 1004.68        2968.50           1469       30511.00    133514.50
 1004.71        2968.75           1472       28852.00    126226.00
 1004.74        2969.00           1476       26871.00    117527.00
 1004.78        2969.25           1479       25438.00    111237.20
 1004.81        2969.50           1482       23862.00    104322.50
 1004.84        2969.75           1486       21867.00     95573.56
 1004.87        2970.00           1489       20423.00     89243.84
 1004.90        2970.25           1492       18824.00     82237.52
 1004.93        2970.50           1496       17016.00     74318.96
 1004.96        2970.75           1499       15566.00     67971.07
 1004.99        2971.00           1502       13968.00     60978.06
 1005.02        2971.25           1506       12123.00     52907.80
 1005.05        2971.50           1509       10467.00     45667.58
 1005.09        2971.75           1513        8650.00     37727.07
 1005.12        2972.00           1516        6976.00     30414.84
 1005.15        2972.25           1519        5422.00     23629.65
 1005.18        2972.50           1523        3533.00     15385.48
 1005.21        2972.75           1526        2123.00      9234.47
 1005.24        2973.00           1529        1020.00      4424.30
 1005.27        2973.25           1533         429.00      1847.53
 1005.30        2973.50           1536         336.00      1442.09
 1005.33        2973.75           1539         290.00      1241.55
 1005.36        2974.00           1543         232.00       988.70
 1005.40        2974.25           1546         183.00       775.08
 1005.43        2974.50           1549         141.00       591.99
 1005.46        2974.75           1553          98.00       404.54
 1005.49        2975.00           1556          75.00       304.27
 1005.52        2975.25           1559          67.00       269.40
 1005.55        2975.50           1563          64.00       256.32
 1005.58        2975.75           1566          62.00       247.60
 1005.61        2976.00           1569          62.00       247.60
 1005.64        2976.25           1573          61.00       243.25
 1005.67        2976.50           1576          58.00       230.17
 1005.70        2976.75           1579          63.00       251.96
 1005.73        2977.00           1583          55.00       217.09
 1005.77        2977.25           1586          60.00       238.89
 1005.80        2977.50           1590          56.00       221.45
 1005.83        2977.75           1593          48.00       186.57
 1005.86        2978.00           1596          60.00       238.89
 1005.89        2978.25           1600          55.00       217.09
 1005.92        2978.50           1603          55.00       217.09
 1005.95        2978.75           1606          60.00       238.89
 1005.98        2979.00           1610          55.00       217.09
 1006.01        2979.25           1613          63.00       251.96
 1006.04        2979.50           1616          52.00       204.01
 1006.08        2979.75           1620          63.00       251.96
 1006.11        2980.00           1623          56.00       221.45
 1006.14        2980.25           1626          51.00       199.65
 1006.17        2980.50           1630          65.00       260.68
 1006.20        2980.75           1633          64.00       256.32
 1006.23        2981.00           1637          63.00       251.96
 1006.26        2981.25           1640          61.00       243.25
 1006.29        2981.50           1643          50.00       195.29
 1006.32        2981.75           1647          53.00       208.37
 1006.35        2982.00           1650          52.00       204.01
 1006.38        2982.25           1653          50.00       195.29
 1006.41        2982.50           1657          62.00       247.60
 1006.44        2982.75           1660          54.00       212.73
 1006.47        2983.00           1663          63.00       251.96
 1006.50        2983.25           1667          57.00       225.81
 1006.53        2983.50           1670          58.00       230.17
 1006.57        2983.75           1673          50.00       195.29
 1006.60        2984.00           1677          53.00       208.37
HS scan finished at 16:46:49
end
