************************************************************
  HS Scan of (1) Internal mercury lamp
************************************************************
Integration time is 0.2294 seconds per sample
dh311218Manchester 53.47 2.23 2.804185pr1000
************************************************************
Dead Time -------------------------  3E-08 
Number of Cycles Used -------------  4 
Starting Wavelength (Angstroms) ---  2950 
Final Wavelength (Angstoms) -------  2984 
Wavelength Increment (Angstroms) --  .25 
Filter Wheel #1 Position ---------- (1) Ground quartz diffuser (ND=2.32)
Filter Wheel #2 Position ---------- (1) Neutral Density 0.494



************************************************************
HS scan start time = 05:26:17
Dark Count =  6.2 


Time (GMT)  Wavelength (Ang)  Step Number  Raw Counts  Counts/Second

  326.65        2950.00           1222          63.00       247.60
  326.72        2950.25           1226          53.00       204.01
  326.75        2950.50           1229          49.00       186.57
  326.78        2950.75           1232          51.00       195.29
  326.81        2951.00           1236          54.00       208.37
  326.84        2951.25           1239          49.00       186.57
  326.87        2951.50           1242          55.00       212.73
  326.91        2951.75           1246          59.00       230.17
  326.94        2952.00           1249          56.00       217.09
  326.97        2952.25           1252          52.00       199.65
  327.00        2952.50           1256          53.00       204.01
  327.03        2952.75           1259          60.00       234.53
  327.06        2953.00           1262          51.00       195.29
  327.09        2953.25           1266          61.00       238.89
  327.12        2953.50           1269          54.00       208.37
  327.15        2953.75           1272          59.00       230.17
  327.19        2954.00           1276          56.00       217.09
  327.22        2954.25           1279          53.00       204.01
  327.25        2954.50           1282          55.00       212.73
  327.28        2954.75           1286          52.00       199.65
  327.31        2955.00           1289          54.00       208.37
  327.34        2955.25           1292          57.00       221.45
  327.37        2955.50           1296          52.00       199.65
  327.40        2955.75           1299          58.00       225.81
  327.43        2956.00           1302          59.00       230.17
  327.46        2956.25           1306          47.00       177.86
  327.49        2956.50           1309          52.00       199.65
  327.52        2956.75           1312          56.00       217.09
  327.55        2957.00           1316          59.00       230.17
  327.59        2957.25           1319          57.00       221.45
  327.62        2957.50           1322          55.00       212.73
  327.65        2957.75           1326          55.00       212.73
  327.68        2958.00           1329          59.00       230.17
  327.71        2958.25           1332          62.00       243.25
  327.74        2958.50           1336          58.00       225.81
  327.77        2958.75           1339          58.00       225.81
  327.80        2959.00           1342          58.00       225.81
  327.83        2959.25           1346          48.00       182.22
  327.86        2959.50           1349          61.00       238.89
  327.89        2959.75           1352          70.00       278.12
  327.92        2960.00           1356          80.00       321.71
  327.95        2960.25           1359         106.00       435.05
  327.99        2960.50           1362         127.00       526.60
  328.02        2960.75           1366         166.00       696.61
  328.05        2961.00           1369         187.00       788.16
  328.08        2961.25           1372         221.00       936.38
  328.11        2961.50           1376         281.00      1197.95
  328.14        2961.75           1379         438.00      1882.41
  328.17        2962.00           1382         956.00      4140.88
  328.20        2962.25           1386        2226.00      9679.36
  328.23        2962.50           1389        3341.00     14543.40
  328.26        2962.75           1392        4487.00     19544.15
  328.30        2963.00           1396        5887.00     25655.31
  328.33        2963.25           1399        7046.00     30716.18
  328.36        2963.50           1402        8185.00     35691.20
  328.39        2963.75           1406        9755.00     42551.23
  328.42        2964.00           1409       11064.00     48273.00
  328.45        2964.25           1412       12370.00     53983.60
  328.48        2964.50           1416       14010.00     61157.44
  328.51        2964.75           1419       15181.00     66281.63
  328.54        2965.00           1422       16379.00     71525.59
  328.58        2965.25           1426       17898.00     78177.04
  328.61        2965.50           1429       19033.00     83148.75
  328.64        2965.75           1432       20066.00     87674.94
  328.67        2966.00           1436       21633.00     94543.28
  328.70        2966.25           1439       22700.00     99221.68
  328.73        2966.50           1442       23755.00    103848.80
  328.76        2966.75           1446       24825.00    108542.90
  328.79        2967.00           1449       25029.00    109438.10
  328.82        2967.25           1452       25022.00    109407.30
  328.86        2967.50           1456       25017.00    109385.40
  328.89        2967.75           1459       24880.00    108784.30
  328.92        2968.00           1462       24934.00    109021.20
  328.95        2968.25           1466       24136.00    105520.10
  328.98        2968.50           1469       23145.00    101173.20
  329.01        2968.75           1472       22116.00     96660.90
  329.04        2969.00           1476       20448.00     89349.04
  329.07        2969.25           1479       19368.00     84616.44
  329.10        2969.50           1482       18282.00     79858.93
  329.14        2969.75           1486       16665.00     72777.74
  329.17        2970.00           1489       15583.00     68041.10
  329.20        2970.25           1492       14506.00     63327.70
  329.23        2970.50           1496       13071.00     57049.61
  329.26        2970.75           1499       11835.00     51644.04
  329.29        2971.00           1502       10636.00     46401.96
  329.32        2971.25           1506        9075.00     39579.66
  329.35        2971.50           1509        7854.00     34245.28
  329.38        2971.75           1513        6413.00     27951.94
  329.41        2972.00           1516        5333.00     23236.77
  329.44        2972.25           1519        4197.00     18278.55
  329.47        2972.50           1523        2719.00     11829.83
  329.51        2972.75           1526        1662.00      7219.52
  329.54        2973.00           1529         729.00      3151.13
  329.57        2973.25           1533         329.00      1407.21
  329.60        2973.50           1536         263.00      1119.48
  329.63        2973.75           1539         233.00       988.70
  329.66        2974.00           1543         194.00       818.68
  329.69        2974.25           1546         147.00       613.79
  329.72        2974.50           1549         118.00       487.37
  329.75        2974.75           1553          91.00       369.66
  329.79        2975.00           1556          79.00       317.35
  329.82        2975.25           1559          59.00       230.17
  329.85        2975.50           1563          45.00       169.14
  329.88        2975.75           1566          52.00       199.65
  329.91        2976.00           1569          54.00       208.37
  329.94        2976.25           1573          54.00       208.37
  329.97        2976.50           1576          55.00       212.73
  330.00        2976.75           1579          46.00       173.50
  330.03        2977.00           1583          55.00       212.73
  330.06        2977.25           1586          49.00       186.57
  330.09        2977.50           1590          47.00       177.86
  330.12        2977.75           1593          54.00       208.37
  330.15        2978.00           1596          55.00       212.73
  330.19        2978.25           1600          45.00       169.14
  330.22        2978.50           1603          54.00       208.37
  330.25        2978.75           1606          57.00       221.45
  330.28        2979.00           1610          42.00       156.06
  330.31        2979.25           1613          53.00       204.01
  330.34        2979.50           1616          53.00       204.01
  330.37        2979.75           1620          48.00       182.22
  330.40        2980.00           1623          44.00       164.78
  330.43        2980.25           1626          47.00       177.86
  330.46        2980.50           1630          43.00       160.42
  330.49        2980.75           1633          54.00       208.37
  330.52        2981.00           1637          47.00       177.86
  330.55        2981.25           1640          53.00       204.01
  330.59        2981.50           1643          51.00       195.29
  330.62        2981.75           1647          49.00       186.57
  330.65        2982.00           1650          55.00       212.73
  330.68        2982.25           1653          51.00       195.29
  330.71        2982.50           1657          48.00       182.22
  330.74        2982.75           1660          46.00       173.50
  330.77        2983.00           1663          43.00       160.42
  330.80        2983.25           1667          53.00       204.01
  330.83        2983.50           1670          48.00       182.22
  330.86        2983.75           1673          49.00       186.57
  330.89        2984.00           1677          44.00       164.78
HS scan finished at 05:31:07
end
************************************************************
  HS Scan of (1) Internal mercury lamp
************************************************************
Integration time is 0.2294 seconds per sample
dh311218Manchester 53.47 2.23 2.804185pr1000
************************************************************
Dead Time -------------------------  3E-08 
Number of Cycles Used -------------  4 
Starting Wavelength (Angstroms) ---  2950 
Final Wavelength (Angstoms) -------  2984 
Wavelength Increment (Angstroms) --  .25 
Filter Wheel #1 Position ---------- (1) Ground quartz diffuser (ND=2.32)
Filter Wheel #2 Position ---------- (1) Neutral Density 0.494



************************************************************
HS scan start time = 17:12:04
Dark Count =  7.3 


Time (GMT)  Wavelength (Ang)  Step Number  Raw Counts  Counts/Second

 1032.43        2950.00           1222          58.00       221.01
 1032.50        2950.25           1226          50.00       186.14
 1032.53        2950.50           1229          52.00       194.86
 1032.56        2950.75           1232          56.00       212.29
 1032.59        2951.00           1236          60.00       229.73
 1032.62        2951.25           1239          51.00       190.50
 1032.65        2951.50           1242          53.00       199.22
 1032.68        2951.75           1246          51.00       190.50
 1032.71        2952.00           1249          55.00       207.94
 1032.74        2952.25           1252          47.00       173.06
 1032.78        2952.50           1256          55.00       207.94
 1032.81        2952.75           1259          53.00       199.22
 1032.84        2953.00           1262          51.00       190.50
 1032.87        2953.25           1266          64.00       247.17
 1032.90        2953.50           1269          51.00       190.50
 1032.93        2953.75           1272          52.00       194.86
 1032.96        2954.00           1276          60.00       229.73
 1032.99        2954.25           1279          56.00       212.29
 1033.02        2954.50           1282          55.00       207.94
 1033.05        2954.75           1286          58.00       221.01
 1033.08        2955.00           1289          54.00       203.58
 1033.12        2955.25           1292          54.00       203.58
 1033.15        2955.50           1296          45.00       164.34
 1033.18        2955.75           1299          51.00       190.50
 1033.21        2956.00           1302          60.00       229.73
 1033.24        2956.25           1306          58.00       221.01
 1033.27        2956.50           1309          58.00       221.01
 1033.30        2956.75           1312          53.00       199.22
 1033.33        2957.00           1316          53.00       199.22
 1033.36        2957.25           1319          55.00       207.94
 1033.39        2957.50           1322          54.00       203.58
 1033.42        2957.75           1326          53.00       199.22
 1033.45        2958.00           1329          52.00       194.86
 1033.48        2958.25           1332          60.00       229.73
 1033.51        2958.50           1336          57.00       216.65
 1033.55        2958.75           1339          57.00       216.65
 1033.58        2959.00           1342          56.00       212.29
 1033.61        2959.25           1346          53.00       199.22
 1033.64        2959.50           1349          67.00       260.25
 1033.67        2959.75           1352          76.00       299.48
 1033.70        2960.00           1356          93.00       373.59
 1033.73        2960.25           1359         106.00       430.26
 1033.76        2960.50           1362         134.00       552.32
 1033.79        2960.75           1366         189.00       792.09
 1033.82        2961.00           1369         206.00       866.20
 1033.85        2961.25           1372         243.00      1027.49
 1033.88        2961.50           1376         331.00      1411.13
 1033.92        2961.75           1379         507.00      2178.43
 1033.95        2962.00           1382        1175.00      5091.01
 1033.98        2962.25           1386        2627.00     11423.71
 1034.01        2962.50           1389        3797.00     16528.25
 1034.04        2962.75           1392        4889.00     21293.90
 1034.07        2963.00           1396        6317.00     27527.96
 1034.10        2963.25           1399        7446.00     32458.36
 1034.13        2963.50           1402        8646.00     37700.42
 1034.16        2963.75           1406       10128.00     44176.65
 1034.20        2964.00           1409       11167.00     48718.49
 1034.23        2964.25           1412       12450.00     54328.67
 1034.26        2964.50           1416       13901.00     60675.74
 1034.29        2964.75           1419       15178.00     66263.68
 1034.32        2965.00           1422       16344.00     71367.55
 1034.35        2965.25           1426       17837.00     77905.05
 1034.38        2965.50           1429       19147.00     83643.37
 1034.41        2965.75           1432       20106.00     87845.41
 1034.44        2966.00           1436       21743.00     95020.71
 1034.48        2966.25           1439       22755.00     99458.05
 1034.51        2966.50           1442       23868.00    104339.60
 1034.54        2966.75           1446       24663.00    107827.30
 1034.57        2967.00           1449       24716.00    108059.90
 1034.60        2967.25           1452       24892.00    108832.10
 1034.63        2967.50           1456       24896.00    108849.60
 1034.66        2967.75           1459       24706.00    108016.00
 1034.69        2968.00           1462       24638.00    107717.60
 1034.72        2968.25           1466       23701.00    103607.10
 1034.76        2968.50           1469       22548.00     98550.31
 1034.79        2968.75           1472       21439.00     93687.99
 1034.82        2969.00           1476       20013.00     87437.86
 1034.85        2969.25           1479       18961.00     82828.49
 1034.88        2969.50           1482       17852.00     77970.75
 1034.91        2969.75           1486       16367.00     71468.25
 1034.94        2970.00           1489       15115.00     65987.96
 1034.97        2970.25           1492       14100.00     61546.41
 1035.00        2970.50           1496       12434.00     54258.70
 1035.03        2970.75           1499       11362.00     49571.05
 1035.06        2971.00           1502       10195.00     44469.49
 1035.10        2971.25           1506        8623.00     37599.93
 1035.13        2971.50           1509        7513.00     32751.00
 1035.16        2971.75           1513        5913.00     25764.02
 1035.19        2972.00           1516        4729.00     20595.55
 1035.22        2972.25           1519        3610.00     15712.29
 1035.25        2972.50           1523        2175.00      9452.11
 1035.28        2972.75           1526        1194.00      5173.86
 1035.31        2973.00           1529         528.00      2269.99
 1035.35        2973.25           1533         291.00      1236.75
 1035.38        2973.50           1536         244.00      1031.85
 1035.41        2973.75           1539         227.00       957.74
 1035.44        2974.00           1543         174.00       726.69
 1035.47        2974.25           1546         132.00       543.60
 1035.50        2974.50           1549         105.00       425.90
 1035.53        2974.75           1553          77.00       303.84
 1035.56        2975.00           1556          61.00       234.09
 1035.59        2975.25           1559          56.00       212.29
 1035.62        2975.50           1563          50.00       186.14
 1035.65        2975.75           1566          57.00       216.65
 1035.69        2976.00           1569          57.00       216.65
 1035.72        2976.25           1573          45.00       164.34
 1035.75        2976.50           1576          50.00       186.14
 1035.78        2976.75           1579          52.00       194.86
 1035.81        2977.00           1583          54.00       203.58
 1035.84        2977.25           1586          56.00       212.29
 1035.87        2977.50           1590          50.00       186.14
 1035.90        2977.75           1593          51.00       190.50
 1035.93        2978.00           1596          57.00       216.65
 1035.96        2978.25           1600          49.00       181.78
 1035.99        2978.50           1603          47.00       173.06
 1036.02        2978.75           1606          55.00       207.94
 1036.06        2979.00           1610          51.00       190.50
 1036.09        2979.25           1613          55.00       207.94
 1036.12        2979.50           1616          47.00       173.06
 1036.15        2979.75           1620          53.00       199.22
 1036.18        2980.00           1623          46.00       168.70
 1036.21        2980.25           1626          45.00       164.34
 1036.24        2980.50           1630          56.00       212.29
 1036.27        2980.75           1633          54.00       203.58
 1036.30        2981.00           1637          46.00       168.70
 1036.33        2981.25           1640          45.00       164.34
 1036.36        2981.50           1643          47.00       173.06
 1036.40        2981.75           1647          52.00       194.86
 1036.43        2982.00           1650          46.00       168.70
 1036.46        2982.25           1653          50.00       186.14
 1036.49        2982.50           1657          47.00       173.06
 1036.52        2982.75           1660          45.00       164.34
 1036.55        2983.00           1663          49.00       181.78
 1036.58        2983.25           1667          55.00       207.94
 1036.61        2983.50           1670          45.00       164.34
 1036.64        2983.75           1673          45.00       164.34
 1036.68        2984.00           1677          49.00       181.78
HS scan finished at 17:16:54
end
