************************************************************
  HS Scan of (1) Internal mercury lamp
************************************************************
Integration time is 0.2294 seconds per sample
dh281218Manchester 53.47 2.23 2.804185pr1000
************************************************************
Dead Time -------------------------  3E-08 
Number of Cycles Used -------------  4 
Starting Wavelength (Angstroms) ---  2950 
Final Wavelength (Angstoms) -------  2984 
Wavelength Increment (Angstroms) --  .25 
Filter Wheel #1 Position ---------- (1) Ground quartz diffuser (ND=2.32)
Filter Wheel #2 Position ---------- (1) Neutral Density 0.494



************************************************************
HS scan start time = 05:25:43
Dark Count =  5.9 


Time (GMT)  Wavelength (Ang)  Step Number  Raw Counts  Counts/Second

  326.09        2950.00           1222          54.00       209.68
  326.16        2950.25           1226          54.00       209.68
  326.19        2950.50           1229          51.00       196.60
  326.22        2950.75           1232          57.00       222.76
  326.25        2951.00           1236          47.00       179.16
  326.28        2951.25           1239          50.00       192.24
  326.31        2951.50           1242          54.00       209.68
  326.34        2951.75           1246          51.00       196.60
  326.37        2952.00           1249          54.00       209.68
  326.40        2952.25           1252          53.00       205.32
  326.43        2952.50           1256          51.00       196.60
  326.46        2952.75           1259          54.00       209.68
  326.49        2953.00           1262          57.00       222.76
  326.53        2953.25           1266          58.00       227.12
  326.56        2953.50           1269          59.00       231.48
  326.59        2953.75           1272          46.00       174.80
  326.62        2954.00           1276          54.00       209.68
  326.65        2954.25           1279          59.00       231.48
  326.68        2954.50           1282          59.00       231.48
  326.71        2954.75           1286          45.00       170.45
  326.74        2955.00           1289          51.00       196.60
  326.77        2955.25           1292          54.00       209.68
  326.80        2955.50           1296          56.00       218.40
  326.83        2955.75           1299          48.00       183.52
  326.87        2956.00           1302          50.00       192.24
  326.90        2956.25           1306          49.00       187.88
  326.93        2956.50           1309          50.00       192.24
  326.96        2956.75           1312          52.00       200.96
  326.99        2957.00           1316          60.00       235.83
  327.02        2957.25           1319          55.00       214.04
  327.05        2957.50           1322          59.00       231.48
  327.08        2957.75           1326          63.00       248.91
  327.11        2958.00           1329          51.00       196.60
  327.14        2958.25           1332          57.00       222.76
  327.17        2958.50           1336          53.00       205.32
  327.20        2958.75           1339          49.00       187.88
  327.23        2959.00           1342          65.00       257.63
  327.26        2959.25           1346          51.00       196.60
  327.29        2959.50           1349          62.00       244.55
  327.33        2959.75           1352          70.00       279.43
  327.36        2960.00           1356          84.00       340.46
  327.39        2960.25           1359         105.00       432.00
  327.42        2960.50           1362         130.00       540.99
  327.45        2960.75           1366         187.00       789.47
  327.48        2961.00           1369         206.00       872.30
  327.51        2961.25           1372         239.00      1016.16
  327.54        2961.50           1376         294.00      1255.93
  327.57        2961.75           1379         385.00      1652.65
  327.60        2962.00           1382         735.00      3178.59
  327.63        2962.25           1386        2031.00      8830.15
  327.66        2962.50           1389        3218.00     14008.07
  327.70        2962.75           1392        4397.00     19152.68
  327.73        2963.00           1396        5894.00     25687.18
  327.76        2963.25           1399        7065.00     30800.46
  327.79        2963.50           1402        8144.00     35513.41
  327.82        2963.75           1406        9925.00     43295.52
  327.85        2964.00           1409       10991.00     47955.17
  327.88        2964.25           1412       12120.00     52891.62
  327.91        2964.50           1416       13710.00     59846.23
  327.94        2964.75           1419       14782.00     64536.78
  327.98        2965.00           1422       16030.00     69999.06
  328.01        2965.25           1426       17694.00     77284.91
  328.04        2965.50           1429       18811.00     82177.50
  328.07        2965.75           1432       20082.00     87746.38
  328.10        2966.00           1436       21747.00     95044.38
  328.13        2966.25           1439       22857.00     99911.49
  328.16        2966.50           1442       23805.00    104069.40
  328.19        2966.75           1446       24766.00    108285.40
  328.22        2967.00           1449       25135.00    109904.50
  328.25        2967.25           1452       25164.00    110031.80
  328.29        2967.50           1456       25299.00    110624.20
  328.32        2967.75           1459       25202.00    110198.50
  328.35        2968.00           1462       25153.00    109983.50
  328.38        2968.25           1466       24406.00    106705.90
  328.41        2968.50           1469       23428.00    102415.80
  328.44        2968.75           1472       22199.00     97026.12
  328.47        2969.00           1476       20664.00     90297.03
  328.50        2969.25           1479       19592.00     85599.22
  328.53        2969.50           1482       18317.00     80013.55
  328.56        2969.75           1486       16829.00     73497.10
  328.59        2970.00           1489       15710.00     68598.31
  328.62        2970.25           1492       14526.00     63416.52
  328.65        2970.50           1496       13140.00     57352.74
  328.69        2970.75           1499       11941.00     52108.86
  328.72        2971.00           1502       10800.00     47120.18
  328.75        2971.25           1506        9123.00     39790.72
  328.78        2971.50           1509        7815.00     34076.23
  328.81        2971.75           1513        6353.00     27691.26
  328.84        2972.00           1516        5193.00     22626.95
  328.87        2972.25           1519        4132.00     17996.20
  328.90        2972.50           1523        2635.00     11464.71
  328.93        2972.75           1526        1695.00      7364.75
  328.96        2973.00           1529         821.00      3553.56
  329.00        2973.25           1533         339.00      1452.11
  329.03        2973.50           1536         269.00      1146.94
  329.06        2973.75           1539         229.00       972.57
  329.09        2974.00           1543         202.00       854.86
  329.12        2974.25           1546         154.00       645.61
  329.15        2974.50           1549         122.00       506.11
  329.18        2974.75           1553          85.00       344.82
  329.21        2975.00           1556          80.00       323.02
  329.24        2975.25           1559          64.00       253.27
  329.27        2975.50           1563          53.00       205.32
  329.31        2975.75           1566          60.00       235.83
  329.34        2976.00           1569          43.00       161.73
  329.37        2976.25           1573          48.00       183.52
  329.40        2976.50           1576          55.00       214.04
  329.43        2976.75           1579          49.00       187.88
  329.46        2977.00           1583          47.00       179.16
  329.49        2977.25           1586          52.00       200.96
  329.52        2977.50           1590          62.00       244.55
  329.55        2977.75           1593          60.00       235.83
  329.58        2978.00           1596          44.00       166.09
  329.62        2978.25           1600          48.00       183.52
  329.65        2978.50           1603          46.00       174.80
  329.68        2978.75           1606          51.00       196.60
  329.71        2979.00           1610          52.00       200.96
  329.74        2979.25           1613          53.00       205.32
  329.77        2979.50           1616          54.00       209.68
  329.80        2979.75           1620          46.00       174.80
  329.83        2980.00           1623          50.00       192.24
  329.86        2980.25           1626          53.00       205.32
  329.89        2980.50           1630          46.00       174.80
  329.92        2980.75           1633          49.00       187.88
  329.95        2981.00           1637          42.00       157.37
  329.99        2981.25           1640          50.00       192.24
  330.02        2981.50           1643          49.00       187.88
  330.05        2981.75           1647          52.00       200.96
  330.08        2982.00           1650          49.00       187.88
  330.11        2982.25           1653          46.00       174.80
  330.14        2982.50           1657          45.00       170.45
  330.17        2982.75           1660          45.00       170.45
  330.20        2983.00           1663          54.00       209.68
  330.23        2983.25           1667          54.00       209.68
  330.26        2983.50           1670          43.00       161.73
  330.30        2983.75           1673          55.00       214.04
  330.33        2984.00           1677          54.00       209.68
HS scan finished at 05:30:33
end
************************************************************
  HS Scan of (1) Internal mercury lamp
************************************************************
Integration time is 0.2294 seconds per sample
dh281218Manchester 53.47 2.23 2.804185pr1000
************************************************************
Dead Time -------------------------  3E-08 
Number of Cycles Used -------------  4 
Starting Wavelength (Angstroms) ---  2950 
Final Wavelength (Angstoms) -------  2984 
Wavelength Increment (Angstroms) --  .25 
Filter Wheel #1 Position ---------- (1) Ground quartz diffuser (ND=2.32)
Filter Wheel #2 Position ---------- (1) Neutral Density 0.494



************************************************************
HS scan start time = 16:43:17
Dark Count =  6.1 


Time (GMT)  Wavelength (Ang)  Step Number  Raw Counts  Counts/Second

 1003.66        2950.00           1222          52.00       200.09
 1003.72        2950.25           1226          51.00       195.73
 1003.76        2950.50           1229          53.00       204.45
 1003.79        2950.75           1232          56.00       217.53
 1003.82        2951.00           1236          53.00       204.45
 1003.85        2951.25           1239          54.00       208.81
 1003.88        2951.50           1242          55.00       213.17
 1003.91        2951.75           1246          49.00       187.01
 1003.94        2952.00           1249          57.00       221.88
 1003.97        2952.25           1252          55.00       213.17
 1004.00        2952.50           1256          52.00       200.09
 1004.04        2952.75           1259          54.00       208.81
 1004.07        2953.00           1262          57.00       221.88
 1004.10        2953.25           1266          58.00       226.24
 1004.13        2953.50           1269          59.00       230.60
 1004.16        2953.75           1272          50.00       191.37
 1004.19        2954.00           1276          53.00       204.45
 1004.22        2954.25           1279          50.00       191.37
 1004.25        2954.50           1282          56.00       217.53
 1004.28        2954.75           1286          51.00       195.73
 1004.31        2955.00           1289          59.00       230.60
 1004.34        2955.25           1292          57.00       221.88
 1004.37        2955.50           1296          55.00       213.17
 1004.40        2955.75           1299          49.00       187.01
 1004.44        2956.00           1302          60.00       234.96
 1004.47        2956.25           1306          50.00       191.37
 1004.50        2956.50           1309          64.00       252.40
 1004.53        2956.75           1312          53.00       204.45
 1004.56        2957.00           1316          56.00       217.53
 1004.59        2957.25           1319          48.00       182.65
 1004.62        2957.50           1322          51.00       195.73
 1004.65        2957.75           1326          50.00       191.37
 1004.68        2958.00           1329          57.00       221.88
 1004.71        2958.25           1332          49.00       187.01
 1004.74        2958.50           1336          62.00       243.68
 1004.77        2958.75           1339          53.00       204.45
 1004.80        2959.00           1342          54.00       208.81
 1004.83        2959.25           1346          58.00       226.24
 1004.87        2959.50           1349          63.00       248.04
 1004.90        2959.75           1352          61.00       239.32
 1004.93        2960.00           1356          87.00       352.66
 1004.96        2960.25           1359         104.00       426.77
 1004.99        2960.50           1362         134.00       557.55
 1005.02        2960.75           1366         183.00       771.16
 1005.05        2961.00           1369         216.00       915.02
 1005.08        2961.25           1372         246.00      1045.80
 1005.11        2961.50           1376         280.00      1194.03
 1005.14        2961.75           1379         384.00      1647.42
 1005.17        2962.00           1382         759.00      3282.36
 1005.21        2962.25           1386        1925.00      8366.97
 1005.24        2962.50           1389        3013.00     13112.83
 1005.27        2962.75           1392        4025.00     17528.40
 1005.30        2963.00           1396        5678.00     24743.30
 1005.33        2963.25           1399        6775.00     29533.13
 1005.36        2963.50           1402        7979.00     34791.74
 1005.39        2963.75           1406        9427.00     41118.26
 1005.42        2964.00           1409       10461.00     45637.42
 1005.45        2964.25           1412       11851.00     51714.43
 1005.48        2964.50           1416       13390.00     58445.46
 1005.52        2964.75           1419       14594.00     63713.21
 1005.55        2965.00           1422       15686.00     68492.38
 1005.58        2965.25           1426       17242.00     75304.63
 1005.61        2965.50           1429       18418.00     80455.08
 1005.64        2965.75           1432       19677.00     85970.80
 1005.67        2966.00           1436       21215.00     92711.30
 1005.70        2966.25           1439       22372.00     97783.82
 1005.73        2966.50           1442       23405.00    102314.00
 1005.76        2966.75           1446       24448.00    106889.30
 1005.80        2967.00           1449       24581.00    107472.80
 1005.83        2967.25           1452       24745.00    108192.40
 1005.86        2967.50           1456       24723.00    108095.80
 1005.89        2967.75           1459       24780.00    108345.90
 1005.92        2968.00           1462       24788.00    108381.00
 1005.95        2968.25           1466       24088.00    105310.00
 1005.98        2968.50           1469       23121.00    101068.40
 1006.01        2968.75           1472       22083.00     96516.63
 1006.05        2969.00           1476       20593.00     89984.97
 1006.09        2969.25           1479       19360.00     84581.84
 1006.13        2969.50           1482       18207.00     79530.85
 1006.16        2969.75           1486       16591.00     72454.19
 1006.19        2970.00           1489       15628.00     68238.51
 1006.22        2970.25           1492       14506.00     63328.14
 1006.25        2970.50           1496       13046.00     56940.69
 1006.28        2970.75           1499       11880.00     51841.24
 1006.32        2971.00           1502       10708.00     46717.14
 1006.35        2971.25           1506        9330.00     40694.38
 1006.38        2971.50           1509        8144.00     35512.54
 1006.41        2971.75           1513        6665.00     29052.78
 1006.44        2972.00           1516        5336.00     23250.30
 1006.47        2972.25           1519        4307.00     18759.03
 1006.50        2972.50           1523        2777.00     12083.28
 1006.53        2972.75           1526        1740.00      7560.13
 1006.56        2973.00           1529         829.00      3587.57
 1006.59        2973.25           1533         345.00      1477.40
 1006.62        2973.50           1536         251.00      1067.60
 1006.66        2973.75           1539         199.00       840.91
 1006.69        2974.00           1543         167.00       701.41
 1006.72        2974.25           1546         140.00       583.71
 1006.75        2974.50           1549          96.00       391.90
 1006.78        2974.75           1553          75.00       300.35
 1006.81        2975.00           1556          68.00       269.84
 1006.84        2975.25           1559          53.00       204.45
 1006.87        2975.50           1563          50.00       191.37
 1006.90        2975.75           1566          48.00       182.65
 1006.93        2976.00           1569          49.00       187.01
 1006.97        2976.25           1573          51.00       195.73
 1007.00        2976.50           1576          53.00       204.45
 1007.03        2976.75           1579          50.00       191.37
 1007.06        2977.00           1583          54.00       208.81
 1007.09        2977.25           1586          54.00       208.81
 1007.12        2977.50           1590          46.00       173.93
 1007.15        2977.75           1593          48.00       182.65
 1007.18        2978.00           1596          47.00       178.29
 1007.21        2978.25           1600          49.00       187.01
 1007.25        2978.50           1603          57.00       221.88
 1007.28        2978.75           1606          56.00       217.53
 1007.31        2979.00           1610          54.00       208.81
 1007.34        2979.25           1613          50.00       191.37
 1007.37        2979.50           1616          54.00       208.81
 1007.40        2979.75           1620          53.00       204.45
 1007.43        2980.00           1623          51.00       195.73
 1007.46        2980.25           1626          48.00       182.65
 1007.49        2980.50           1630          51.00       195.73
 1007.53        2980.75           1633          51.00       195.73
 1007.56        2981.00           1637          58.00       226.24
 1007.59        2981.25           1640          45.00       169.57
 1007.62        2981.50           1643          54.00       208.81
 1007.65        2981.75           1647          47.00       178.29
 1007.68        2982.00           1650          50.00       191.37
 1007.71        2982.25           1653          50.00       191.37
 1007.74        2982.50           1657          51.00       195.73
 1007.77        2982.75           1660          51.00       195.73
 1007.81        2983.00           1663          50.00       191.37
 1007.84        2983.25           1667          44.00       165.21
 1007.87        2983.50           1670          46.00       173.93
 1007.90        2983.75           1673          44.00       165.21
 1007.93        2984.00           1677          48.00       182.65
HS scan finished at 16:48:09
end
