************************************************************
  HS Scan of (1) Internal mercury lamp
************************************************************
Integration time is 0.2294 seconds per sample
dh291217Manchester 53.47 2.23 2.750537pr1000
************************************************************
Dead Time -------------------------  3E-08 
Number of Cycles Used -------------  4 
Starting Wavelength (Angstroms) ---  2950 
Final Wavelength (Angstoms) -------  2984 
Wavelength Increment (Angstroms) --  .25 
Filter Wheel #1 Position ---------- (1) Ground quartz diffuser (ND=2.32)
Filter Wheel #2 Position ---------- (1) Neutral Density 0.494



************************************************************
HS scan start time = 05:26:01
Dark Count =  5.1 


Time (GMT)  Wavelength (Ang)  Step Number  Raw Counts  Counts/Second

  326.38        2950.00           1222          59.00       234.96
  326.45        2950.25           1226          70.00       282.91
  326.48        2950.50           1229          67.00       269.84
  326.51        2950.75           1232          69.00       278.56
  326.54        2951.00           1236          63.00       252.40
  326.57        2951.25           1239          63.00       252.40
  326.60        2951.50           1242          64.00       256.76
  326.63        2951.75           1246          62.00       248.04
  326.67        2952.00           1249          69.00       278.56
  326.70        2952.25           1252          70.00       282.91
  326.73        2952.50           1256          63.00       252.40
  326.76        2952.75           1259          71.00       287.27
  326.79        2953.00           1262          64.00       256.76
  326.82        2953.25           1266          61.00       243.68
  326.85        2953.50           1269          58.00       230.60
  326.88        2953.75           1272          67.00       269.84
  326.91        2954.00           1276          59.00       234.96
  326.94        2954.25           1279          70.00       282.91
  326.97        2954.50           1282          65.00       261.12
  327.00        2954.75           1286          63.00       252.40
  327.03        2955.00           1289          61.00       243.68
  327.06        2955.25           1292          66.00       265.48
  327.09        2955.50           1296          58.00       230.60
  327.12        2955.75           1299          64.00       256.76
  327.15        2956.00           1302          56.00       221.88
  327.19        2956.25           1306          59.00       234.96
  327.22        2956.50           1309          60.00       239.32
  327.25        2956.75           1312          60.00       239.32
  327.28        2957.00           1316          57.00       226.24
  327.31        2957.25           1319          62.00       248.04
  327.34        2957.50           1322          68.00       274.20
  327.37        2957.75           1326          61.00       243.68
  327.40        2958.00           1329          70.00       282.91
  327.43        2958.25           1332          64.00       256.76
  327.46        2958.50           1336          60.00       239.32
  327.49        2958.75           1339          59.00       234.96
  327.52        2959.00           1342          58.00       230.60
  327.55        2959.25           1346          62.00       248.04
  327.59        2959.50           1349          68.00       274.20
  327.62        2959.75           1352          77.00       313.43
  327.65        2960.00           1356         112.00       466.00
  327.68        2960.25           1359         136.00       570.63
  327.71        2960.50           1362         162.00       683.97
  327.74        2960.75           1366         224.00       954.26
  327.77        2961.00           1369         253.00      1080.68
  327.80        2961.25           1372         276.00      1180.95
  327.83        2961.50           1376         362.00      1555.87
  327.86        2961.75           1379         490.00      2113.91
  327.89        2962.00           1382         881.00      3818.66
  327.92        2962.25           1386        2304.00     10024.37
  327.95        2962.50           1389        3787.00     16494.21
  327.98        2962.75           1392        5146.00     22425.28
  328.02        2963.00           1396        7065.00     30803.96
  328.05        2963.25           1399        8588.00     37456.63
  328.08        2963.50           1402       10109.00     44103.22
  328.11        2963.75           1406       12203.00     53258.09
  328.14        2964.00           1409       13803.00     60256.61
  328.17        2964.25           1412       15596.00     68102.81
  328.20        2964.50           1416       17743.00     77503.02
  328.23        2964.75           1419       19072.00     83324.43
  328.26        2965.00           1422       20923.00     91435.74
  328.29        2965.25           1426       23044.00    100735.10
  328.32        2965.50           1429       24422.00    106779.60
  328.35        2965.75           1432       25842.00    113010.70
  328.39        2966.00           1436       27933.00    122190.40
  328.42        2966.25           1439       29459.00    128892.80
  328.45        2966.50           1442       30746.00    134547.70
  328.48        2966.75           1446       32226.00    141052.90
  328.51        2967.00           1449       32889.00    143967.90
  328.54        2967.25           1452       33085.00    144829.70
  328.57        2967.50           1456       33093.00    144864.90
  328.60        2967.75           1459       32999.00    144451.60
  328.63        2968.00           1462       32958.00    144271.30
  328.67        2968.25           1466       32262.00    141211.20
  328.70        2968.50           1469       31085.00    136037.50
  328.73        2968.75           1472       29605.00    129534.20
  328.76        2969.00           1476       27754.00    121404.30
  328.79        2969.25           1479       26286.00    114959.40
  328.82        2969.50           1482       24924.00    108982.20
  328.85        2969.75           1486       22807.00     99695.74
  328.88        2970.00           1489       21280.00     93000.61
  328.91        2970.25           1492       19956.00     87197.72
  328.94        2970.50           1496       17753.00     77546.81
  328.97        2970.75           1499       16428.00     71744.93
  329.01        2971.00           1502       14842.00     64802.85
  329.04        2971.25           1506       12890.00     56262.72
  329.07        2971.50           1509       11211.00     48920.48
  329.10        2971.75           1513        9387.00     40947.83
  329.13        2972.00           1516        7844.00     34206.40
  329.16        2972.25           1519        6311.00     27511.36
  329.19        2972.50           1523        4433.00     19313.28
  329.22        2972.75           1526        2975.00     12951.41
  329.25        2973.00           1529        1516.00      6587.61
  329.29        2973.25           1533         530.00      2288.30
  329.32        2973.50           1536         366.00      1573.31
  329.35        2973.75           1539         296.00      1268.14
  329.38        2974.00           1543         258.00      1102.48
  329.41        2974.25           1546         194.00       823.47
  329.44        2974.50           1549         164.00       692.69
  329.47        2974.75           1553         107.00       444.21
  329.50        2975.00           1556          87.00       357.02
  329.53        2975.25           1559          71.00       287.27
  329.56        2975.50           1563          54.00       213.17
  329.59        2975.75           1566          59.00       234.96
  329.62        2976.00           1569          60.00       239.32
  329.66        2976.25           1573          63.00       252.40
  329.69        2976.50           1576          59.00       234.96
  329.72        2976.75           1579          70.00       282.91
  329.75        2977.00           1583          54.00       213.17
  329.78        2977.25           1586          59.00       234.96
  329.81        2977.50           1590          62.00       248.04
  329.84        2977.75           1593          62.00       248.04
  329.87        2978.00           1596          60.00       239.32
  329.90        2978.25           1600          61.00       243.68
  329.93        2978.50           1603          59.00       234.96
  329.96        2978.75           1606          54.00       213.17
  329.99        2979.00           1610          65.00       261.12
  330.02        2979.25           1613          59.00       234.96
  330.06        2979.50           1616          51.00       200.09
  330.09        2979.75           1620          57.00       226.24
  330.12        2980.00           1623          60.00       239.32
  330.15        2980.25           1626          56.00       221.88
  330.18        2980.50           1630          54.00       213.17
  330.21        2980.75           1633          55.00       217.53
  330.24        2981.00           1637          58.00       230.60
  330.27        2981.25           1640          53.00       208.81
  330.30        2981.50           1643          57.00       226.24
  330.33        2981.75           1647          53.00       208.81
  330.36        2982.00           1650          57.00       226.24
  330.39        2982.25           1653          55.00       217.53
  330.43        2982.50           1657          58.00       230.60
  330.46        2982.75           1660          55.00       217.53
  330.49        2983.00           1663          52.00       204.45
  330.52        2983.25           1667          54.00       213.17
  330.55        2983.50           1670          59.00       234.96
  330.58        2983.75           1673          52.00       204.45
  330.61        2984.00           1677          59.00       234.96
HS scan finished at 05:30:50
end
************************************************************
  HS Scan of (1) Internal mercury lamp
************************************************************
Integration time is 0.2294 seconds per sample
dh291217Manchester 53.47 2.23 2.750537pr1000
************************************************************
Dead Time -------------------------  3E-08 
Number of Cycles Used -------------  4 
Starting Wavelength (Angstroms) ---  2950 
Final Wavelength (Angstoms) -------  2984 
Wavelength Increment (Angstroms) --  .25 
Filter Wheel #1 Position ---------- (1) Ground quartz diffuser (ND=2.32)
Filter Wheel #2 Position ---------- (1) Neutral Density 0.494



************************************************************
HS scan start time = 16:42:02
Dark Count =  6.3 


Time (GMT)  Wavelength (Ang)  Step Number  Raw Counts  Counts/Second

 1002.40        2950.00           1222          63.00       247.17
 1002.47        2950.25           1226          61.00       238.45
 1002.50        2950.50           1229          66.00       260.25
 1002.53        2950.75           1232          53.00       203.58
 1002.56        2951.00           1236          67.00       264.61
 1002.59        2951.25           1239          64.00       251.53
 1002.62        2951.50           1242          61.00       238.45
 1002.65        2951.75           1246          64.00       251.53
 1002.68        2952.00           1249          65.00       255.89
 1002.71        2952.25           1252          64.00       251.53
 1002.74        2952.50           1256          68.00       268.96
 1002.78        2952.75           1259          63.00       247.17
 1002.81        2953.00           1262          67.00       264.61
 1002.84        2953.25           1266          64.00       251.53
 1002.87        2953.50           1269          61.00       238.45
 1002.90        2953.75           1272          59.00       229.73
 1002.93        2954.00           1276          56.00       216.65
 1002.96        2954.25           1279          60.00       234.09
 1002.99        2954.50           1282          65.00       255.89
 1003.02        2954.75           1286          59.00       229.73
 1003.05        2955.00           1289          58.00       225.37
 1003.08        2955.25           1292          53.00       203.58
 1003.11        2955.50           1296          61.00       238.45
 1003.14        2955.75           1299          59.00       229.73
 1003.18        2956.00           1302          69.00       273.32
 1003.21        2956.25           1306          60.00       234.09
 1003.24        2956.50           1309          60.00       234.09
 1003.27        2956.75           1312          68.00       268.96
 1003.30        2957.00           1316          68.00       268.96
 1003.33        2957.25           1319          63.00       247.17
 1003.36        2957.50           1322          62.00       242.81
 1003.39        2957.75           1326          65.00       255.89
 1003.42        2958.00           1329          69.00       273.32
 1003.45        2958.25           1332          69.00       273.32
 1003.49        2958.50           1336          63.00       247.17
 1003.52        2958.75           1339          64.00       251.53
 1003.55        2959.00           1342          71.00       282.04
 1003.58        2959.25           1346          64.00       251.53
 1003.61        2959.50           1349          80.00       321.28
 1003.64        2959.75           1352          98.00       399.74
 1003.67        2960.00           1356         118.00       486.93
 1003.70        2960.25           1359         147.00       613.35
 1003.73        2960.50           1362         191.00       805.16
 1003.76        2960.75           1366         234.00       992.62
 1003.79        2961.00           1369         277.00      1180.08
 1003.83        2961.25           1372         315.00      1345.74
 1003.86        2961.50           1376         381.00      1633.47
 1003.89        2961.75           1379         530.00      2283.07
 1003.92        2962.00           1382        1074.00      4654.97
 1003.95        2962.25           1386        2622.00     11406.26
 1003.98        2962.50           1389        4072.00     17732.62
 1004.01        2962.75           1392        5458.00     23782.00
 1004.04        2963.00           1396        7461.00     32528.24
 1004.07        2963.25           1399        8885.00     38749.03
 1004.10        2963.50           1402       10568.00     46104.27
 1004.14        2963.75           1406       12690.00     55382.71
 1004.17        2964.00           1409       14305.00     62447.75
 1004.20        2964.25           1412       16059.00     70124.27
 1004.23        2964.50           1416       17983.00     78548.88
 1004.26        2964.75           1419       19534.00     85343.34
 1004.29        2965.00           1422       20960.00     91592.66
 1004.32        2965.25           1426       23240.00    101589.40
 1004.35        2965.50           1429       24620.00    107643.00
 1004.38        2965.75           1432       26162.00    114409.90
 1004.41        2966.00           1436       28198.00    123348.80
 1004.45        2966.25           1439       29534.00    129217.00
 1004.48        2966.50           1442       31004.00    135676.20
 1004.51        2966.75           1446       32618.00    142771.10
 1004.54        2967.00           1449       32820.00    143659.20
 1004.57        2967.25           1452       32862.00    143843.90
 1004.60        2967.50           1456       32854.00    143808.70
 1004.63        2967.75           1459       32986.00    144389.20
 1004.66        2968.00           1462       32844.00    143764.80
 1004.69        2968.25           1466       31936.00    139772.80
 1004.72        2968.50           1469       30565.00    133747.00
 1004.75        2968.75           1472       29299.00    128184.70
 1004.78        2969.00           1476       27200.00    118966.60
 1004.82        2969.25           1479       25737.00    112544.60
 1004.85        2969.50           1482       24109.00    105401.20
 1004.88        2969.75           1486       22101.00     96594.68
 1004.91        2970.00           1489       20585.00     89949.02
 1004.94        2970.25           1492       19143.00     83630.23
 1004.97        2970.50           1496       17141.00     74861.49
 1005.00        2970.75           1499       15565.00     67961.88
 1005.03        2971.00           1502       14021.00     61205.14
 1005.06        2971.25           1506       12057.00     52614.37
 1005.10        2971.50           1509       10535.00     45960.01
 1005.13        2971.75           1513        8616.00     37573.72
 1005.16        2972.00           1516        7052.00     30741.94
 1005.19        2972.25           1519        5605.00     24423.74
 1005.22        2972.50           1523        3573.00     15555.21
 1005.25        2972.75           1526        2099.00      9124.99
 1005.28        2973.00           1529         917.00      3970.39
 1005.31        2973.25           1533         395.00      1694.51
 1005.34        2973.50           1536         288.00      1228.03
 1005.37        2973.75           1539         262.00      1114.68
 1005.41        2974.00           1543         210.00       887.99
 1005.44        2974.25           1546         142.00       591.55
 1005.47        2974.50           1549         112.00       460.77
 1005.50        2974.75           1553          93.00       377.95
 1005.53        2975.00           1556          79.00       316.92
 1005.56        2975.25           1559          67.00       264.61
 1005.59        2975.50           1563          60.00       234.09
 1005.62        2975.75           1566          63.00       247.17
 1005.65        2976.00           1569          64.00       251.53
 1005.68        2976.25           1573          63.00       247.17
 1005.71        2976.50           1576          52.00       199.22
 1005.74        2976.75           1579          59.00       229.73
 1005.77        2977.00           1583          61.00       238.45
 1005.81        2977.25           1586          61.00       238.45
 1005.84        2977.50           1590          61.00       238.45
 1005.87        2977.75           1593          58.00       225.37
 1005.90        2978.00           1596          64.00       251.53
 1005.93        2978.25           1600          57.00       221.01
 1005.96        2978.50           1603          57.00       221.01
 1005.99        2978.75           1606          53.00       203.58
 1006.02        2979.00           1610          47.00       177.42
 1006.05        2979.25           1613          49.00       186.14
 1006.08        2979.50           1616          56.00       216.65
 1006.11        2979.75           1620          56.00       216.65
 1006.15        2980.00           1623          60.00       234.09
 1006.18        2980.25           1626          57.00       221.01
 1006.21        2980.50           1630          75.00       299.48
 1006.24        2980.75           1633          60.00       234.09
 1006.27        2981.00           1637          61.00       238.45
 1006.30        2981.25           1640          64.00       251.53
 1006.33        2981.50           1643          56.00       216.65
 1006.36        2981.75           1647          59.00       229.73
 1006.39        2982.00           1650          56.00       216.65
 1006.42        2982.25           1653          63.00       247.17
 1006.45        2982.50           1657          55.00       212.29
 1006.48        2982.75           1660          56.00       216.65
 1006.52        2983.00           1663          48.00       181.78
 1006.55        2983.25           1667          56.00       216.65
 1006.58        2983.50           1670          62.00       242.81
 1006.61        2983.75           1673          61.00       238.45
 1006.64        2984.00           1677          61.00       238.45
HS scan finished at 16:46:51
end
