************************************************************
  HL Scan of (1) Internal mercury lamp
************************************************************
Integration time is 0.2294 seconds per sample
dh020117DelftKZ 51.997-4.386 2.214056pr1000
************************************************************
Dead Time -------------------------  3E-08 
Number of Cycles Used -------------  4 
Starting Wavelength (Angstroms) ---  3331 
Final Wavelength (Angstoms) -------  3351 
Wavelength Increment (Angstroms) --  .25 
Filter Wheel #1 Position ---------- (1) Ground quartz diffuser (ND=2.32)
Filter Wheel #2 Position ---------- 



************************************************************
HL scan start time = 06:29:44
Dark Count =  .1 


Time (GMT)  Wavelength (Ang)  Step Number  Raw Counts  Counts/Second

  390.50        3331.00           6581          34.00       147.78
  390.91        3331.25           6584          53.00       230.60
  390.94        3331.50           6588          49.00       213.17
  390.97        3331.75           6592          42.00       182.65
  390.99        3332.00           6595          40.00       173.93
  391.02        3332.25           6599          49.00       213.17
  391.05        3332.50           6603          41.00       178.29
  391.08        3332.75           6607          42.00       182.65
  391.10        3333.00           6610          49.00       213.17
  391.13        3333.25           6614          43.00       187.01
  391.16        3333.50           6618          41.00       178.29
  391.19        3333.75           6622          36.00       156.50
  391.22        3334.00           6625          38.00       165.21
  391.24        3334.25           6629          44.00       191.37
  391.27        3334.50           6633          43.00       187.01
  391.30        3334.75           6636          42.00       182.65
  391.33        3335.00           6640          55.00       239.32
  391.35        3335.25           6644          47.00       204.45
  391.38        3335.50           6648          51.00       221.88
  391.41        3335.75           6651          57.00       248.04
  391.44        3336.00           6655          60.00       261.12
  391.46        3336.25           6659         213.00       928.10
  391.49        3336.50           6663         960.00      4184.92
  391.52        3336.75           6666        1652.00      7202.52
  391.55        3337.00           6670        2691.00     11734.30
  391.58        3337.25           6674        3841.00     16751.66
  391.61        3337.50           6677        4760.00     20762.28
  391.64        3337.75           6681        5941.00     25917.70
  391.67        3338.00           6685        7039.00     30712.25
  391.70        3338.25           6689        8236.00     35940.66
  391.73        3338.50           6692        9161.00     39982.11
  391.76        3338.75           6696       10142.00     44269.31
  391.78        3339.00           6700       11253.00     49125.97
  391.81        3339.25           6704       12287.00     53647.31
  391.84        3339.50           6707       13070.00     57071.92
  391.87        3339.75           6711       14090.00     61534.15
  391.90        3340.00           6715       15244.00     66584.05
  391.93        3340.25           6719       16359.00     71464.75
  391.96        3340.50           6722       17315.00     75650.58
  391.99        3340.75           6726       18029.00     78777.50
  392.01        3341.00           6730       19016.00     83101.00
  392.04        3341.25           6733       19405.00     84805.29
  392.07        3341.50           6737       19384.00     84713.28
  392.10        3341.75           6741       19373.00     84665.09
  392.13        3342.00           6745       18806.00     82181.00
  392.15        3342.25           6748       18010.00     78694.28
  392.18        3342.50           6752       16871.00     73706.40
  392.21        3342.75           6756       15586.00     68080.94
  392.24        3343.00           6760       14475.00     63218.74
  392.26        3343.25           6763       13869.00     60567.23
  392.29        3343.50           6767       12656.00     55261.11
  392.33        3343.75           6771       11535.00     50358.94
  392.36        3344.00           6775       10562.00     46105.14
  392.39        3344.25           6778        9735.00     42490.49
  392.41        3344.50           6782        8642.00     37714.40
  392.44        3344.75           6786        7501.00     32730.03
  392.47        3345.00           6790        6446.00     28122.67
  392.50        3345.25           6793        5502.00     24001.15
  392.53        3345.50           6797        4322.00     18850.67
  392.55        3345.75           6801        3314.00     14452.21
  392.58        3346.00           6805        2306.00     10054.91
  392.61        3346.25           6808        1580.00      6888.52
  392.64        3346.50           6812         515.00      2244.70
  392.67        3346.75           6816         117.00       509.60
  392.70        3347.00           6819          59.00       256.76
  392.72        3347.25           6823          53.00       230.60
  392.75        3347.50           6827          52.00       226.24
  392.78        3347.75           6831          44.00       191.37
  392.81        3348.00           6834          45.00       195.73
  392.83        3348.25           6838          43.00       187.01
  392.87        3348.50           6842          42.00       182.65
  392.90        3348.75           6846          43.00       187.01
  392.92        3349.00           6849          40.00       173.93
  392.95        3349.25           6853          36.00       156.50
  392.98        3349.50           6857          38.00       165.21
  393.01        3349.75           6861          46.00       200.09
  393.04        3350.00           6864          40.00       173.93
  393.07        3350.25           6868          41.00       178.29
  393.09        3350.50           6872          40.00       173.93
  393.12        3350.75           6876          43.00       187.01
  393.15        3351.00           6879          44.00       191.37
HL scan finished at 06:34:38
end
