************************************************************
  HL Scan of (1) Internal mercury lamp
************************************************************
Integration time is 0.2294 seconds per sample
dh010117DelftKZ 51.997-4.386 2.160408pr1000
************************************************************
Dead Time -------------------------  3E-08 
Number of Cycles Used -------------  4 
Starting Wavelength (Angstroms) ---  3331 
Final Wavelength (Angstoms) -------  3351 
Wavelength Increment (Angstroms) --  .25 
Filter Wheel #1 Position ---------- (1) Ground quartz diffuser (ND=2.32)
Filter Wheel #2 Position ---------- 



************************************************************
HL scan start time = 06:29:41
Dark Count =  0 


Time (GMT)  Wavelength (Ang)  Step Number  Raw Counts  Counts/Second

  390.44        3331.00           6581          42.00       183.09
  390.84        3331.25           6584          45.00       196.17
  390.87        3331.50           6588          47.00       204.88
  390.90        3331.75           6592          47.00       204.88
  390.93        3332.00           6595          41.00       178.73
  390.96        3332.25           6599          40.00       174.37
  390.98        3332.50           6603          48.00       209.24
  391.01        3332.75           6607          41.00       178.73
  391.04        3333.00           6610          34.00       148.21
  391.07        3333.25           6614          48.00       209.24
  391.09        3333.50           6618          43.00       187.45
  391.12        3333.75           6622          42.00       183.09
  391.15        3334.00           6625          48.00       209.24
  391.18        3334.25           6629          40.00       174.37
  391.20        3334.50           6633          41.00       178.73
  391.23        3334.75           6636          40.00       174.37
  391.26        3335.00           6640          46.00       200.52
  391.29        3335.25           6644          40.00       174.37
  391.32        3335.50           6648          53.00       231.04
  391.34        3335.75           6651          60.00       261.55
  391.37        3336.00           6655          67.00       292.07
  391.40        3336.25           6659         256.00      1115.99
  391.43        3336.50           6663        1013.00      4416.45
  391.45        3336.75           6666        1675.00      7303.26
  391.48        3337.00           6670        2680.00     11686.75
  391.51        3337.25           6674        3827.00     16691.00
  391.54        3337.50           6677        4642.00     20247.69
  391.57        3337.75           6681        5646.00     24630.23
  391.60        3338.00           6685        6785.00     29603.44
  391.62        3338.25           6689        7868.00     34333.52
  391.65        3338.50           6692        8729.00     38094.95
  391.68        3338.75           6696        9916.00     43281.97
  391.71        3339.00           6700       10969.00     47884.78
  391.73        3339.25           6704       12063.00     52668.16
  391.76        3339.50           6707       12930.00     56459.99
  391.79        3339.75           6711       13940.00     60878.31
  391.82        3340.00           6715       14986.00     65455.35
  391.85        3340.25           6719       15771.00     68891.15
  391.87        3340.50           6722       16606.00     72546.56
  391.90        3340.75           6726       17703.00     77350.16
  391.93        3341.00           6730       18697.00     81703.95
  391.96        3341.25           6733       18973.00     82913.05
  391.98        3341.50           6737       19070.00     83338.00
  392.01        3341.75           6741       19109.00     83508.86
  392.04        3342.00           6745       18327.00     80083.20
  392.07        3342.25           6748       17507.00     76491.81
  392.10        3342.50           6752       16620.00     72607.86
  392.12        3342.75           6756       15684.00     68510.33
  392.15        3343.00           6760       14569.00     63630.50
  392.18        3343.25           6763       13846.00     60467.05
  392.21        3343.50           6767       12768.00     55751.41
  392.24        3343.75           6771       11509.00     50245.69
  392.26        3344.00           6775       10353.00     45192.01
  392.29        3344.25           6778        9708.00     42372.92
  392.32        3344.50           6782        8520.00     37181.82
  392.35        3344.75           6786        7294.00     31826.36
  392.37        3345.00           6790        6244.00     27241.09
  392.40        3345.25           6793        5548.00     24202.40
  392.43        3345.50           6797        4512.00     19680.32
  392.46        3345.75           6801        3434.00     14976.21
  392.48        3346.00           6805        2312.00     10081.51
  392.51        3346.25           6808        1495.00      6518.28
  392.54        3346.50           6812         554.00      2415.17
  392.57        3346.75           6816         122.00       531.83
  392.60        3347.00           6819          66.00       287.71
  392.62        3347.25           6823          54.00       235.40
  392.65        3347.50           6827          48.00       209.24
  392.68        3347.75           6831          45.00       196.17
  392.71        3348.00           6834          41.00       178.73
  392.73        3348.25           6838          43.00       187.45
  392.76        3348.50           6842          43.00       187.45
  392.79        3348.75           6846          42.00       183.09
  392.82        3349.00           6849          44.00       191.81
  392.84        3349.25           6853          45.00       196.17
  392.87        3349.50           6857          48.00       209.24
  392.90        3349.75           6861          49.00       213.60
  392.93        3350.00           6864          43.00       187.45
  392.95        3350.25           6868          40.00       174.37
  392.98        3350.50           6872          43.00       187.45
  393.01        3350.75           6876          39.00       170.01
  393.04        3351.00           6879          40.00       174.37
HL scan finished at 06:34:31
end
