************************************************************
  HL Scan of (1) Internal mercury lamp
************************************************************
Integration time is 0.2294 seconds per sample
dh060117DelftKZ 51.997-4.386 2.10676pr1000
************************************************************
Dead Time -------------------------  3E-08 
Number of Cycles Used -------------  4 
Starting Wavelength (Angstroms) ---  3331 
Final Wavelength (Angstoms) -------  3351 
Wavelength Increment (Angstroms) --  .25 
Filter Wheel #1 Position ---------- (1) Ground quartz diffuser (ND=2.32)
Filter Wheel #2 Position ---------- 



************************************************************
HL scan start time = 06:29:24
Dark Count =  .1 


Time (GMT)  Wavelength (Ang)  Step Number  Raw Counts  Counts/Second

  390.15        3331.00           6581          39.00       169.57
  390.56        3331.25           6584          41.00       178.29
  390.59        3331.50           6588          34.00       147.78
  390.62        3331.75           6592          47.00       204.45
  390.65        3332.00           6595          40.00       173.93
  390.67        3332.25           6599          41.00       178.29
  390.70        3332.50           6603          47.00       204.45
  390.73        3332.75           6607          42.00       182.65
  390.76        3333.00           6610          36.00       156.50
  390.79        3333.25           6614          42.00       182.65
  390.82        3333.50           6618          44.00       191.37
  390.84        3333.75           6622          41.00       178.29
  390.87        3334.00           6625          38.00       165.21
  390.90        3334.25           6629          47.00       204.45
  390.93        3334.50           6633          46.00       200.09
  390.96        3334.75           6636          50.00       217.53
  390.98        3335.00           6640          51.00       221.88
  391.01        3335.25           6644          47.00       204.45
  391.04        3335.50           6648          54.00       234.96
  391.07        3335.75           6651          62.00       269.84
  391.10        3336.00           6655          67.00       291.63
  391.13        3336.25           6659         279.00      1215.82
  391.15        3336.50           6663        1131.00      4930.55
  391.18        3336.75           6666        1993.00      8689.71
  391.21        3337.00           6670        2957.00     12894.70
  391.24        3337.25           6674        3955.00     17249.12
  391.27        3337.50           6677        4643.00     20251.62
  391.29        3337.75           6681        5703.00     24878.63
  391.32        3338.00           6685        6886.00     30044.07
  391.35        3338.25           6689        8161.00     35613.01
  391.38        3338.50           6692        8891.00     38802.34
  391.40        3338.75           6696        9958.00     43465.10
  391.43        3339.00           6700       10968.00     47879.98
  391.46        3339.25           6704       11895.00     51933.08
  391.49        3339.50           6707       12751.00     55676.62
  391.52        3339.75           6711       13765.00     60112.23
  391.54        3340.00           6715       14702.00     64212.07
  391.57        3340.25           6719       15924.00     69560.45
  391.60        3340.50           6722       16497.00     72068.91
  391.63        3340.75           6726       17688.00     77284.04
  391.65        3341.00           6730       18913.00     82649.75
  391.68        3341.25           6733       18843.00     82343.10
  391.71        3341.50           6737       18993.00     83000.23
  391.74        3341.75           6741       18914.00     82654.13
  391.77        3342.00           6745       18150.00     79307.47
  391.79        3342.25           6748       17421.00     76114.77
  391.82        3342.50           6752       16467.00     71937.56
  391.85        3342.75           6756       15416.00     67336.85
  391.88        3343.00           6760       14330.00     62584.27
  391.90        3343.25           6763       13425.00     58624.82
  391.93        3343.50           6767       12381.00     54058.40
  391.96        3343.75           6771       11435.00     49921.71
  391.99        3344.00           6775       10311.00     45007.99
  392.02        3344.25           6778        9460.00     41288.69
  392.05        3344.50           6782        8339.00     36390.63
  392.08        3344.75           6786        7273.00     31734.21
  392.10        3345.00           6790        6309.00     27524.47
  392.13        3345.25           6793        5529.00     24119.02
  392.16        3345.50           6797        4348.00     18964.15
  392.19        3345.75           6801        3179.00     13863.22
  392.21        3346.00           6805        2076.00      9051.72
  392.24        3346.25           6808        1269.00      5532.30
  392.27        3346.50           6812         419.00      1826.17
  392.30        3346.75           6816          85.00       370.10
  392.33        3347.00           6819          56.00       243.68
  392.35        3347.25           6823          49.00       213.17
  392.38        3347.50           6827          47.00       204.45
  392.41        3347.75           6831          44.00       191.37
  392.44        3348.00           6834          42.00       182.65
  392.46        3348.25           6838          43.00       187.01
  392.49        3348.50           6842          38.00       165.21
  392.52        3348.75           6846          43.00       187.01
  392.55        3349.00           6849          42.00       182.65
  392.57        3349.25           6853          39.00       169.57
  392.60        3349.50           6857          40.00       173.93
  392.63        3349.75           6861          41.00       178.29
  392.66        3350.00           6864          43.00       187.01
  392.69        3350.25           6868          46.00       200.09
  392.71        3350.50           6872          46.00       200.09
  392.74        3350.75           6876          45.00       195.73
  392.77        3351.00           6879          39.00       169.57
HL scan finished at 06:34:15
end
