************************************************************
  HL Scan of (1) Internal mercury lamp
************************************************************
Integration time is 0.2294 seconds per sample
dh090118Abu Dhabi 24.34-54.64 3.126073pr1000
************************************************************
Dead Time -------------------------  2.7E-08 
Number of Cycles Used -------------  4 
Starting Wavelength (Angstroms) ---  3331 
Final Wavelength (Angstoms) -------  3351 
Wavelength Increment (Angstroms) --  .25 
Filter Wheel #1 Position ---------- (1) Ground quartz diffuser (ND=2.32)
Filter Wheel #2 Position ---------- 



************************************************************
HL scan start time = 14:55:16
Dark Count =  .2 


Time (GMT)  Wavelength (Ang)  Step Number  Raw Counts  Counts/Second

  896.04        3331.00           6581          49.00       212.73
  896.45        3331.25           6584          50.00       217.09
  896.48        3331.50           6588          53.00       230.17
  896.51        3331.75           6592          48.00       208.37
  896.54        3332.00           6595          51.00       221.45
  896.57        3332.25           6599          50.00       217.09
  896.60        3332.50           6603          52.00       225.81
  896.63        3332.75           6607          46.00       199.65
  896.66        3333.00           6610          47.00       204.01
  896.68        3333.25           6614          47.00       204.01
  896.71        3333.50           6618          46.00       199.65
  896.74        3333.75           6622          51.00       221.45
  896.77        3334.00           6625          46.00       199.65
  896.80        3334.25           6629          45.00       195.29
  896.83        3334.50           6633          55.00       238.89
  896.86        3334.75           6636          48.00       208.37
  896.89        3335.00           6640          54.00       234.53
  896.92        3335.25           6644          56.00       243.24
  896.95        3335.50           6648          63.00       273.76
  896.98        3335.75           6651          78.00       339.15
  897.01        3336.00           6655          84.00       365.30
  897.04        3336.25           6659         315.00      1372.33
  897.07        3336.50           6663        1990.00      8675.97
  897.10        3336.75           6666        3646.00     15899.59
  897.13        3337.00           6670        5653.00     24658.09
  897.16        3337.25           6674        7589.00     33110.67
  897.19        3337.50           6677        9071.00     39583.70
  897.22        3337.75           6681       11168.00     48746.77
  897.25        3338.00           6685       13810.00     60297.74
  897.28        3338.25           6689       16275.00     71081.37
  897.31        3338.50           6692       17910.00     78237.46
  897.34        3338.75           6696       20217.00     88339.49
  897.37        3339.00           6700       22346.00     97666.99
  897.40        3339.25           6704       24779.00    108332.10
  897.42        3339.50           6707       26441.00    115621.10
  897.45        3339.75           6711       28217.00    123413.20
  897.48        3340.00           6715       30492.00    133399.40
  897.51        3340.25           6719       32845.00    143733.70
  897.54        3340.50           6722       34301.00    150131.30
  897.57        3340.75           6726       36727.00    160796.00
  897.60        3341.00           6730       38754.00    169711.40
  897.63        3341.25           6733       39473.00    172874.80
  897.66        3341.50           6737       39662.00    173706.40
  897.69        3341.75           6741       39778.00    174216.90
  897.72        3342.00           6745       38570.00    168901.90
  897.75        3342.25           6748       37257.00    163126.70
  897.78        3342.50           6752       35288.00    154469.40
  897.81        3342.75           6756       33294.00    145706.40
  897.84        3343.00           6760       30790.00    134707.90
  897.87        3343.25           6763       28903.00    126423.80
  897.90        3343.50           6767       26679.00    116665.10
  897.93        3343.75           6771       24573.00    107428.90
  897.96        3344.00           6775       22451.00     98127.12
  897.99        3344.25           6778       20872.00     91208.66
  898.02        3344.50           6782       18464.00     80662.85
  898.05        3344.75           6786       16310.00     71234.53
  898.08        3345.00           6790       14012.00     61181.20
  898.11        3345.25           6793       12448.00     54342.10
  898.14        3345.50           6797        9911.00     43253.62
  898.17        3345.75           6801        7440.00     32460.00
  898.20        3346.00           6805        5045.00     22004.35
  898.23        3346.25           6808        3368.00     14686.73
  898.26        3346.50           6812        1364.00      5946.03
  898.29        3346.75           6816         251.00      1093.32
  898.32        3347.00           6819         108.00       469.93
  898.35        3347.25           6823          75.00       326.07
  898.38        3347.50           6827          66.00       286.84
  898.41        3347.75           6831          73.00       317.35
  898.44        3348.00           6834          64.00       278.12
  898.47        3348.25           6838          57.00       247.60
  898.49        3348.50           6842          60.00       260.68
  898.52        3348.75           6846          51.00       221.45
  898.55        3349.00           6849          54.00       234.53
  898.58        3349.25           6853          53.00       230.17
  898.61        3349.50           6857          53.00       230.17
  898.64        3349.75           6861          48.00       208.37
  898.67        3350.00           6864          50.00       217.09
  898.70        3350.25           6868          54.00       234.53
  898.73        3350.50           6872          50.00       217.09
  898.76        3350.75           6876          52.00       225.81
  898.79        3351.00           6879          50.00       217.09
HL scan finished at 15:00:17
end
