************************************************************
  HL Scan of (1) Internal mercury lamp
************************************************************
Integration time is 0.2294 seconds per sample
dh100117DelftKZ 51.997-4.386 2.321352pr1000
************************************************************
Dead Time -------------------------  3E-08 
Number of Cycles Used -------------  4 
Starting Wavelength (Angstroms) ---  3331 
Final Wavelength (Angstoms) -------  3351 
Wavelength Increment (Angstroms) --  .25 
Filter Wheel #1 Position ---------- (1) Ground quartz diffuser (ND=2.32)
Filter Wheel #2 Position ---------- 



************************************************************
HL scan start time = 06:28:20
Dark Count =  .1 


Time (GMT)  Wavelength (Ang)  Step Number  Raw Counts  Counts/Second

  389.09        3331.00           6581          43.00       187.01
  389.50        3331.25           6584          43.00       187.01
  389.53        3331.50           6588          46.00       200.09
  389.55        3331.75           6592          41.00       178.29
  389.58        3332.00           6595          42.00       182.65
  389.61        3332.25           6599          41.00       178.29
  389.64        3332.50           6603          44.00       191.37
  389.66        3332.75           6607          45.00       195.73
  389.69        3333.00           6610          41.00       178.29
  389.72        3333.25           6614          43.00       187.01
  389.75        3333.50           6618          51.00       221.88
  389.77        3333.75           6622          40.00       173.93
  389.80        3334.00           6625          46.00       200.09
  389.83        3334.25           6629          44.00       191.37
  389.86        3334.50           6633          48.00       208.81
  389.88        3334.75           6636          55.00       239.32
  389.91        3335.00           6640          56.00       243.68
  389.94        3335.25           6644          59.00       256.76
  389.97        3335.50           6648          56.00       243.68
  390.00        3335.75           6651          54.00       234.96
  390.02        3336.00           6655          67.00       291.63
  390.05        3336.25           6659         165.00       718.85
  390.08        3336.50           6663        1159.00      5052.64
  390.11        3336.75           6666        2036.00      8877.26
  390.13        3337.00           6670        3202.00     13963.57
  390.16        3337.25           6674        4262.00     18588.83
  390.19        3337.50           6677        5193.00     22652.27
  390.22        3337.75           6681        6459.00     28179.44
  390.25        3338.00           6685        7918.00     34551.49
  390.28        3338.25           6689        9023.00     39379.10
  390.31        3338.50           6692        9820.00     42861.98
  390.33        3338.75           6696       11232.00     49034.16
  390.36        3339.00           6700       12366.00     53992.80
  390.39        3339.25           6704       13952.00     60930.38
  390.42        3339.50           6707       14780.00     64553.40
  390.45        3339.75           6711       15798.00     69008.90
  390.47        3340.00           6715       17155.00     74949.95
  390.50        3340.25           6719       18597.00     81265.46
  390.53        3340.50           6722       19339.00     84516.11
  390.56        3340.75           6726       20390.00     89121.58
  390.58        3341.00           6730       21403.00     93561.74
  390.61        3341.25           6733       21745.00     95061.04
  390.64        3341.50           6737       21926.00     95854.59
  390.67        3341.75           6741       21825.00     95411.78
  390.70        3342.00           6745       21102.00     92242.27
  390.72        3342.25           6748       20267.00     88582.52
  390.75        3342.50           6752       19219.00     83990.36
  390.78        3342.75           6756       18100.00     79088.48
  390.81        3343.00           6760       16691.00     72918.28
  390.83        3343.25           6763       15798.00     69008.90
  390.86        3343.50           6767       14789.00     64592.79
  390.89        3343.75           6771       13749.00     60042.24
  390.92        3344.00           6775       12281.00     53621.07
  390.95        3344.25           6778       11184.00     48824.30
  390.97        3344.50           6782        9874.00     43097.98
  391.00        3344.75           6786        8487.00     37037.21
  391.03        3345.00           6790        7337.00     32013.73
  391.06        3345.25           6793        6329.00     27611.79
  391.08        3345.50           6797        5013.00     21866.56
  391.11        3345.75           6801        3844.00     16764.75
  391.14        3346.00           6805        2765.00     12057.11
  391.17        3346.25           6808        1880.00      8196.87
  391.19        3346.50           6812         767.00      3343.40
  391.22        3346.75           6816         147.00       640.38
  391.25        3347.00           6819          57.00       248.04
  391.28        3347.25           6823          57.00       248.04
  391.31        3347.50           6827          50.00       217.53
  391.33        3347.75           6831          51.00       221.88
  391.36        3348.00           6834          41.00       178.29
  391.39        3348.25           6838          41.00       178.29
  391.42        3348.50           6842          42.00       182.65
  391.44        3348.75           6846          40.00       173.93
  391.47        3349.00           6849          46.00       200.09
  391.50        3349.25           6853          39.00       169.57
  391.53        3349.50           6857          41.00       178.29
  391.55        3349.75           6861          42.00       182.65
  391.58        3350.00           6864          41.00       178.29
  391.61        3350.25           6868          42.00       182.65
  391.64        3350.50           6872          41.00       178.29
  391.66        3350.75           6876          48.00       208.81
  391.69        3351.00           6879          41.00       178.29
HL scan finished at 06:33:10
end
