************************************************************
  HL Scan of (1) Internal mercury lamp
************************************************************
Integration time is 0.2294 seconds per sample
dh150117DelftKZ 51.997-4.386 2.160408pr1000
************************************************************
Dead Time -------------------------  3E-08 
Number of Cycles Used -------------  4 
Starting Wavelength (Angstroms) ---  3331 
Final Wavelength (Angstoms) -------  3351 
Wavelength Increment (Angstroms) --  .25 
Filter Wheel #1 Position ---------- (1) Ground quartz diffuser (ND=2.32)
Filter Wheel #2 Position ---------- 



************************************************************
HL scan start time = 06:25:31
Dark Count =  0 


Time (GMT)  Wavelength (Ang)  Step Number  Raw Counts  Counts/Second

  386.27        3331.00           6581          39.00       170.01
  386.68        3331.25           6584          40.00       174.37
  386.71        3331.50           6588          33.00       143.85
  386.73        3331.75           6592          43.00       187.45
  386.76        3332.00           6595          44.00       191.81
  386.79        3332.25           6599          39.00       170.01
  386.82        3332.50           6603          40.00       174.37
  386.84        3332.75           6607          46.00       200.52
  386.87        3333.00           6610          44.00       191.81
  386.90        3333.25           6614          40.00       174.37
  386.92        3333.50           6618          38.00       165.65
  386.95        3333.75           6622          42.00       183.09
  386.98        3334.00           6625          39.00       170.01
  387.01        3334.25           6629          36.00       156.93
  387.03        3334.50           6633          39.00       170.01
  387.06        3334.75           6636          46.00       200.52
  387.09        3335.00           6640          43.00       187.45
  387.12        3335.25           6644          47.00       204.88
  387.14        3335.50           6648          49.00       213.60
  387.18        3335.75           6651          52.00       226.68
  387.21        3336.00           6655          64.00       278.99
  387.24        3336.25           6659         159.00       693.13
  387.26        3336.50           6663         895.00      3901.94
  387.29        3336.75           6666        1667.00      7268.37
  387.32        3337.00           6670        2692.00     11739.10
  387.35        3337.25           6674        3671.00     16010.30
  387.37        3337.50           6677        4430.00     19322.45
  387.40        3337.75           6681        5495.00     23971.03
  387.43        3338.00           6685        6681.00     29149.28
  387.46        3338.25           6689        7751.00     33822.45
  387.48        3338.50           6692        8480.00     37007.06
  387.51        3338.75           6696        9518.00     41542.59
  387.54        3339.00           6700       10548.00     46044.38
  387.57        3339.25           6704       11589.00     50595.48
  387.59        3339.50           6707       12513.00     54636.13
  387.62        3339.75           6711       13617.00     59465.19
  387.65        3340.00           6715       14672.00     64081.23
  387.68        3340.25           6719       15634.00     68291.48
  387.71        3340.50           6722       16386.00     71583.38
  387.73        3340.75           6726       17220.00     75235.01
  387.76        3341.00           6730       18120.00     79176.52
  387.79        3341.25           6733       18490.00     80797.18
  387.82        3341.50           6737       18497.00     80827.85
  387.84        3341.75           6741       18403.00     80416.10
  387.87        3342.00           6745       17758.00     77591.04
  387.90        3342.25           6748       17126.00     74823.40
  387.93        3342.50           6752       16072.00     70208.75
  387.95        3342.75           6756       15267.00     66685.15
  387.98        3343.00           6760       14116.00     61648.35
  388.01        3343.25           6763       13288.00     58025.94
  388.04        3343.50           6767       12492.00     54544.28
  388.06        3343.75           6771       11529.00     50333.14
  388.09        3344.00           6775       10409.00     45436.78
  388.12        3344.25           6778        9444.00     41219.21
  388.15        3344.50           6782        8235.00     35936.72
  388.17        3344.75           6786        7066.00     30830.60
  388.20        3345.00           6790        6152.00     26839.39
  388.23        3345.25           6793        5330.00     23250.74
  388.26        3345.50           6797        4106.00     17908.49
  388.28        3345.75           6801        3147.00     13724.05
  388.31        3346.00           6805        2277.00      9928.85
  388.34        3346.25           6808        1530.00      6670.91
  388.36        3346.50           6812         610.00      2659.32
  388.39        3346.75           6816         115.00       501.32
  388.42        3347.00           6819          63.00       274.63
  388.45        3347.25           6823          54.00       235.40
  388.47        3347.50           6827          49.00       213.60
  388.50        3347.75           6831          47.00       204.88
  388.53        3348.00           6834          48.00       209.24
  388.56        3348.25           6838          44.00       191.81
  388.58        3348.50           6842          47.00       204.88
  388.61        3348.75           6846          43.00       187.45
  388.64        3349.00           6849          44.00       191.81
  388.67        3349.25           6853          41.00       178.73
  388.69        3349.50           6857          48.00       209.24
  388.72        3349.75           6861          43.00       187.45
  388.75        3350.00           6864          40.00       174.37
  388.78        3350.25           6868          43.00       187.45
  388.80        3350.50           6872          39.00       170.01
  388.83        3350.75           6876          37.00       161.29
  388.86        3351.00           6879          41.00       178.73
HL scan finished at 06:30:20
end
