************************************************************
  HL Scan of (1) Internal mercury lamp
************************************************************
Integration time is 0.2294 seconds per sample
dh180117DelftKZ 51.997-4.386 2.10676pr1000
************************************************************
Dead Time -------------------------  3E-08 
Number of Cycles Used -------------  4 
Starting Wavelength (Angstroms) ---  3331 
Final Wavelength (Angstoms) -------  3351 
Wavelength Increment (Angstroms) --  .25 
Filter Wheel #1 Position ---------- (1) Ground quartz diffuser (ND=2.32)
Filter Wheel #2 Position ---------- 



************************************************************
HL scan start time = 06:23:58
Dark Count =  0 


Time (GMT)  Wavelength (Ang)  Step Number  Raw Counts  Counts/Second

  384.72        3331.00           6581          47.00       204.88
  385.13        3331.25           6584          38.00       165.65
  385.16        3331.50           6588          38.00       165.65
  385.19        3331.75           6592          38.00       165.65
  385.22        3332.00           6595          42.00       183.09
  385.24        3332.25           6599          36.00       156.93
  385.27        3332.50           6603          44.00       191.81
  385.30        3332.75           6607          37.00       161.29
  385.33        3333.00           6610          43.00       187.45
  385.35        3333.25           6614          38.00       165.65
  385.38        3333.50           6618          43.00       187.45
  385.41        3333.75           6622          38.00       165.65
  385.44        3334.00           6625          44.00       191.81
  385.46        3334.25           6629          37.00       161.29
  385.49        3334.50           6633          46.00       200.52
  385.52        3334.75           6636          47.00       204.88
  385.55        3335.00           6640          43.00       187.45
  385.57        3335.25           6644          48.00       209.24
  385.60        3335.50           6648          51.00       222.32
  385.63        3335.75           6651          48.00       209.24
  385.66        3336.00           6655          65.00       283.35
  385.69        3336.25           6659         206.00       898.02
  385.72        3336.50           6663        1015.00      4425.17
  385.75        3336.75           6666        1858.00      8101.36
  385.78        3337.00           6670        2876.00     12541.77
  385.81        3337.25           6674        3932.00     17149.19
  385.83        3337.50           6677        4707.00     20531.39
  385.86        3337.75           6681        5727.00     24983.85
  385.89        3338.00           6685        6912.00     30158.05
  385.92        3338.25           6689        8101.00     35351.34
  385.94        3338.50           6692        8806.00     38431.38
  385.97        3338.75           6696        9848.00     42984.78
  386.00        3339.00           6700       10929.00     47709.92
  386.03        3339.25           6704       12104.00     52847.46
  386.05        3339.50           6707       12921.00     56420.62
  386.08        3339.75           6711       14070.00     61447.09
  386.11        3340.00           6715       15113.00     66011.16
  386.14        3340.25           6719       16209.00     70808.50
  386.17        3340.50           6722       16844.00     73588.61
  386.19        3340.75           6726       17927.00     78331.21
  386.22        3341.00           6730       18667.00     81572.53
  386.25        3341.25           6733       18915.00     82658.96
  386.28        3341.50           6737       19074.00     83355.53
  386.30        3341.75           6741       18997.00     83018.19
  386.33        3342.00           6745       18210.00     79570.72
  386.36        3342.25           6748       17506.00     76487.43
  386.39        3342.50           6752       16616.00     72590.35
  386.42        3342.75           6756       15509.00     67744.35
  386.44        3343.00           6760       14411.00     62939.13
  386.47        3343.25           6763       13650.00     59609.57
  386.50        3343.50           6767       12595.00     54994.76
  386.53        3343.75           6771       11678.00     50984.64
  386.55        3344.00           6775       10581.00     46188.64
  386.58        3344.25           6778        9603.00     41914.05
  386.61        3344.50           6782        8337.00     36382.32
  386.64        3344.75           6786        7249.00     31629.83
  386.67        3345.00           6790        6215.00     27114.46
  386.70        3345.25           6793        5297.00     23106.68
  386.73        3345.50           6797        4098.00     17873.57
  386.75        3345.75           6801        3120.00     13606.25
  386.78        3346.00           6805        2286.00      9968.11
  386.81        3346.25           6808        1469.00      6404.89
  386.84        3346.50           6812         564.00      2458.77
  386.86        3346.75           6816         110.00       479.52
  386.89        3347.00           6819          57.00       248.48
  386.92        3347.25           6823          44.00       191.81
  386.95        3347.50           6827          51.00       222.32
  386.97        3347.75           6831          53.00       231.04
  387.00        3348.00           6834          49.00       213.60
  387.03        3348.25           6838          36.00       156.93
  387.06        3348.50           6842          47.00       204.88
  387.09        3348.75           6846          41.00       178.73
  387.11        3349.00           6849          40.00       174.37
  387.14        3349.25           6853          34.00       148.21
  387.17        3349.50           6857          47.00       204.88
  387.20        3349.75           6861          40.00       174.37
  387.23        3350.00           6864          40.00       174.37
  387.26        3350.25           6868          35.00       152.57
  387.28        3350.50           6872          45.00       196.17
  387.31        3350.75           6876          34.00       148.21
  387.34        3351.00           6879          48.00       209.24
HL scan finished at 06:28:49
end
