************************************************************
  HL Scan of (1) Internal mercury lamp
************************************************************
Integration time is 0.2294 seconds per sample
dh110117DelftKZ 51.997-4.386 2.375pr1000
************************************************************
Dead Time -------------------------  3E-08 
Number of Cycles Used -------------  4 
Starting Wavelength (Angstroms) ---  3331 
Final Wavelength (Angstoms) -------  3351 
Wavelength Increment (Angstroms) --  .25 
Filter Wheel #1 Position ---------- (1) Ground quartz diffuser (ND=2.32)
Filter Wheel #2 Position ---------- 



************************************************************
HL scan start time = 06:27:52
Dark Count =  0 


Time (GMT)  Wavelength (Ang)  Step Number  Raw Counts  Counts/Second

  388.62        3331.00           6581          41.00       178.73
  389.03        3331.25           6584          46.00       200.52
  389.06        3331.50           6588          41.00       178.73
  389.09        3331.75           6592          49.00       213.60
  389.12        3332.00           6595          46.00       200.52
  389.14        3332.25           6599          42.00       183.09
  389.17        3332.50           6603          44.00       191.81
  389.20        3332.75           6607          45.00       196.17
  389.23        3333.00           6610          44.00       191.81
  389.25        3333.25           6614          40.00       174.37
  389.28        3333.50           6618          40.00       174.37
  389.31        3333.75           6622          41.00       178.73
  389.34        3334.00           6625          48.00       209.24
  389.36        3334.25           6629          41.00       178.73
  389.39        3334.50           6633          44.00       191.81
  389.42        3334.75           6636          47.00       204.88
  389.45        3335.00           6640          48.00       209.24
  389.47        3335.25           6644          54.00       235.40
  389.50        3335.50           6648          61.00       265.91
  389.53        3335.75           6651          60.00       261.55
  389.56        3336.00           6655          74.00       322.58
  389.58        3336.25           6659         300.00      1307.81
  389.61        3336.50           6663        1219.00      5314.71
  389.64        3336.75           6666        2029.00      8847.16
  389.67        3337.00           6670        3131.00     13654.24
  389.69        3337.25           6674        4496.00     19610.49
  389.72        3337.50           6677        5537.00     24154.38
  389.75        3337.75           6681        6758.00     29485.53
  389.78        3338.00           6685        8160.00     35609.08
  389.81        3338.25           6689        9476.00     41359.05
  389.84        3338.50           6692       10332.00     45100.22
  389.87        3338.75           6696       11876.00     51850.43
  389.89        3339.00           6700       13178.00     57544.77
  389.92        3339.25           6704       14441.00     63070.40
  389.95        3339.50           6707       15521.00     67796.86
  389.98        3339.75           6711       16671.00     72831.15
  390.01        3340.00           6715       17788.00     77722.43
  390.03        3340.25           6719       19054.00     83267.90
  390.06        3340.50           6722       20007.00     87443.57
  390.09        3340.75           6726       21313.00     93167.62
  390.12        3341.00           6730       22475.00     98262.21
  390.15        3341.25           6733       22798.00     99678.62
  390.17        3341.50           6737       22925.00    100235.60
  390.20        3341.75           6741       22671.00     99121.69
  390.23        3342.00           6745       22169.00     96920.46
  390.26        3342.25           6748       21164.00     92514.48
  390.28        3342.50           6752       19977.00     87312.10
  390.32        3342.75           6756       18941.00     82772.85
  390.35        3343.00           6760       17655.00     77139.95
  390.37        3343.25           6763       16733.00     73102.60
  390.40        3343.50           6767       15188.00     66339.40
  390.43        3343.75           6771       14010.00     61184.57
  390.46        3344.00           6775       12577.00     54916.03
  390.48        3344.25           6778       11568.00     50503.66
  390.51        3344.50           6782       10153.00     44317.82
  390.54        3344.75           6786        8753.00     38199.81
  390.57        3345.00           6790        7478.00     32630.01
  390.59        3345.25           6793        6674.00     29118.71
  390.62        3345.50           6797        5318.00     23198.35
  390.65        3345.75           6801        4140.00     18056.86
  390.69        3346.00           6805        2911.00     12694.46
  390.72        3346.25           6808        1893.00      8254.01
  390.74        3346.50           6812         601.00      2620.08
  390.77        3346.75           6816         138.00       601.58
  390.80        3347.00           6819          63.00       274.63
  390.83        3347.25           6823          62.00       270.27
  390.85        3347.50           6827          57.00       248.48
  390.88        3347.75           6831          43.00       187.45
  390.91        3348.00           6834          50.00       217.96
  390.94        3348.25           6838          45.00       196.17
  390.97        3348.50           6842          47.00       204.88
  391.00        3348.75           6846          45.00       196.17
  391.02        3349.00           6849          47.00       204.88
  391.05        3349.25           6853          43.00       187.45
  391.08        3349.50           6857          43.00       187.45
  391.11        3349.75           6861          46.00       200.52
  391.14        3350.00           6864          47.00       204.88
  391.17        3350.25           6868          43.00       187.45
  391.19        3350.50           6872          48.00       209.24
  391.22        3350.75           6876          45.00       196.17
  391.25        3351.00           6879          38.00       165.65
HL scan finished at 06:32:44
end
