************************************************************
  HL Scan of (1) Internal mercury lamp
************************************************************
Integration time is 0.2294 seconds per sample
dh160117DelftKZ 51.997-4.386 2.214056pr1000
************************************************************
Dead Time -------------------------  3E-08 
Number of Cycles Used -------------  4 
Starting Wavelength (Angstroms) ---  3331 
Final Wavelength (Angstoms) -------  3351 
Wavelength Increment (Angstroms) --  .25 
Filter Wheel #1 Position ---------- (1) Ground quartz diffuser (ND=2.32)
Filter Wheel #2 Position ---------- 



************************************************************
HL scan start time = 06:25:28
Dark Count =  0 


Time (GMT)  Wavelength (Ang)  Step Number  Raw Counts  Counts/Second

  386.23        3331.00           6581          46.00       200.52
  386.63        3331.25           6584          46.00       200.52
  386.66        3331.50           6588          48.00       209.24
  386.69        3331.75           6592          39.00       170.01
  386.72        3332.00           6595          43.00       187.45
  386.74        3332.25           6599          37.00       161.29
  386.77        3332.50           6603          42.00       183.09
  386.80        3332.75           6607          39.00       170.01
  386.83        3333.00           6610          39.00       170.01
  386.85        3333.25           6614          45.00       196.17
  386.88        3333.50           6618          41.00       178.73
  386.91        3333.75           6622          43.00       187.45
  386.94        3334.00           6625          44.00       191.81
  386.97        3334.25           6629          39.00       170.01
  386.99        3334.50           6633          44.00       191.81
  387.02        3334.75           6636          45.00       196.17
  387.05        3335.00           6640          47.00       204.88
  387.08        3335.25           6644          47.00       204.88
  387.10        3335.50           6648          47.00       204.88
  387.13        3335.75           6651          53.00       231.04
  387.16        3336.00           6655          63.00       274.63
  387.19        3336.25           6659         259.00      1129.07
  387.21        3336.50           6663        1036.00      4516.74
  387.24        3336.75           6666        1726.00      7525.67
  387.27        3337.00           6670        2659.00     11595.14
  387.30        3337.25           6674        3694.00     16110.66
  387.33        3337.50           6677        4581.00     19981.46
  387.35        3337.75           6681        5628.00     24551.64
  387.38        3338.00           6685        6679.00     29140.55
  387.41        3338.25           6689        7640.00     33337.60
  387.44        3338.50           6692        8491.00     37055.12
  387.46        3338.75           6696        9578.00     41804.79
  387.49        3339.00           6700       10745.00     46905.54
  387.52        3339.25           6704       11725.00     51190.15
  387.55        3339.50           6707       12452.00     54369.35
  387.58        3339.75           6711       13599.00     59386.44
  387.60        3340.00           6715       14707.00     64234.39
  387.63        3340.25           6719       15577.00     68041.98
  387.66        3340.50           6722       16123.00     70432.02
  387.69        3340.75           6726       17093.00     74678.90
  387.72        3341.00           6730       18210.00     79570.72
  387.75        3341.25           6733       18450.00     80621.97
  387.78        3341.50           6737       18459.00     80661.40
  387.80        3341.75           6741       18493.00     80810.32
  387.83        3342.00           6745       17884.00     78142.87
  387.86        3342.25           6748       17107.00     74740.19
  387.89        3342.50           6752       16111.00     70379.48
  387.91        3342.75           6756       15079.00     65862.35
  387.94        3343.00           6760       14139.00     61748.98
  387.97        3343.25           6763       13428.00     58638.38
  388.00        3343.50           6767       12266.00     53555.90
  388.03        3343.75           6771       11327.00     49449.94
  388.05        3344.00           6775       10113.00     44142.99
  388.08        3344.25           6778        9152.00     39943.22
  388.11        3344.50           6782        8148.00     35556.66
  388.14        3344.75           6786        7036.00     30699.58
  388.17        3345.00           6790        6055.00     26415.87
  388.19        3345.25           6793        5217.00     22757.47
  388.22        3345.50           6797        4297.00     18742.01
  388.25        3345.75           6801        3263.00     14230.14
  388.28        3346.00           6805        2314.00     10090.24
  388.30        3346.25           6808        1493.00      6509.55
  388.33        3346.50           6812         460.00      2005.35
  388.36        3346.75           6816         100.00       435.93
  388.39        3347.00           6819          57.00       248.48
  388.42        3347.25           6823          49.00       213.60
  388.45        3347.50           6827          45.00       196.17
  388.47        3347.75           6831          49.00       213.60
  388.50        3348.00           6834          47.00       204.88
  388.53        3348.25           6838          40.00       174.37
  388.56        3348.50           6842          39.00       170.01
  388.59        3348.75           6846          39.00       170.01
  388.61        3349.00           6849          40.00       174.37
  388.64        3349.25           6853          44.00       191.81
  388.67        3349.50           6857          36.00       156.93
  388.70        3349.75           6861          40.00       174.37
  388.73        3350.00           6864          44.00       191.81
  388.76        3350.25           6868          42.00       183.09
  388.79        3350.50           6872          43.00       187.45
  388.82        3350.75           6876          43.00       187.45
  388.84        3351.00           6879          35.00       152.57
HL scan finished at 06:30:19
end
