************************************************************
  HL Scan of (1) Internal mercury lamp
************************************************************
Integration time is 0.2294 seconds per sample
dh120117DelftKZ 51.997-4.386 2.321352pr1000
************************************************************
Dead Time -------------------------  3E-08 
Number of Cycles Used -------------  4 
Starting Wavelength (Angstroms) ---  3331 
Final Wavelength (Angstoms) -------  3351 
Wavelength Increment (Angstroms) --  .25 
Filter Wheel #1 Position ---------- (1) Ground quartz diffuser (ND=2.32)
Filter Wheel #2 Position ---------- 



************************************************************
HL scan start time = 00:32:38
Dark Count =  .1 


Time (GMT)  Wavelength (Ang)  Step Number  Raw Counts  Counts/Second

   33.39        3331.00           6581          49.00       213.17
   33.80        3331.25           6584          48.00       208.81
   33.83        3331.50           6588          47.00       204.45
   33.86        3331.75           6592          46.00       200.09
   33.89        3332.00           6595          47.00       204.45
   33.91        3332.25           6599          46.00       200.09
   33.94        3332.50           6603          44.00       191.37
   33.97        3332.75           6607          51.00       221.88
   34.00        3333.00           6610          43.00       187.01
   34.03        3333.25           6614          41.00       178.29
   34.06        3333.50           6618          43.00       187.01
   34.08        3333.75           6622          46.00       200.09
   34.11        3334.00           6625          46.00       200.09
   34.14        3334.25           6629          50.00       217.53
   34.17        3334.50           6633          48.00       208.81
   34.19        3334.75           6636          55.00       239.32
   34.22        3335.00           6640          58.00       252.40
   34.25        3335.25           6644          65.00       282.91
   34.28        3335.50           6648          60.00       261.12
   34.30        3335.75           6651          61.00       265.48
   34.33        3336.00           6655          78.00       339.59
   34.36        3336.25           6659         335.00      1459.96
   34.39        3336.50           6663        1440.00      6277.99
   34.42        3336.75           6666        2467.00     10757.18
   34.45        3337.00           6670        3760.00     16398.22
   34.48        3337.25           6674        5469.00     23857.09
   34.50        3337.50           6677        6805.00     29690.34
   34.53        3337.75           6681        8298.00     36211.51
   34.56        3338.00           6685        9842.00     42958.12
   34.59        3338.25           6689       11408.00     49803.65
   34.61        3338.50           6692       12652.00     55243.62
   34.64        3338.75           6696       14198.00     62006.70
   34.67        3339.00           6700       16054.00     70129.52
   34.70        3339.25           6704       17500.00     76460.72
   34.73        3339.50           6707       18627.00     81396.86
   34.76        3339.75           6711       20255.00     88529.94
   34.79        3340.00           6715       21712.00     94916.37
   34.82        3340.25           6719       23223.00    101542.10
   34.85        3340.50           6722       24095.00    105367.00
   34.88        3340.75           6726       25623.00    112071.50
   34.91        3341.00           6730       27005.00    118137.70
   34.94        3341.25           6733       27408.00    119907.00
   34.96        3341.50           6737       27569.00    120613.90
   34.99        3341.75           6741       27631.00    120886.20
   35.02        3342.00           6745       26700.00    116798.70
   35.05        3342.25           6748       25672.00    112286.50
   35.07        3342.50           6752       24029.00    105077.50
   35.10        3342.75           6756       22564.00     98652.04
   35.13        3343.00           6760       21233.00     92816.51
   35.16        3343.25           6763       20051.00     87635.94
   35.19        3343.50           6767       18421.00     80494.50
   35.21        3343.75           6771       16833.00     73540.01
   35.24        3344.00           6775       15102.00     65962.57
   35.27        3344.25           6778       13849.00     60479.73
   35.30        3344.50           6782       12240.00     53441.76
   35.32        3344.75           6786       10594.00     46245.03
   35.35        3345.00           6790        8931.00     38977.11
   35.38        3345.25           6793        7902.00     34481.60
   35.41        3345.50           6797        6568.00     28655.40
   35.43        3345.75           6801        5082.00     22167.75
   35.46        3346.00           6805        3489.00     15215.75
   35.49        3346.25           6808        2311.00     10076.72
   35.52        3346.50           6812         747.00      3256.20
   35.55        3346.75           6816         171.00       745.00
   35.57        3347.00           6819          82.00       357.02
   35.60        3347.25           6823          58.00       252.40
   35.63        3347.50           6827          58.00       252.40
   35.66        3347.75           6831          54.00       234.96
   35.68        3348.00           6834          50.00       217.53
   35.71        3348.25           6838          51.00       221.88
   35.74        3348.50           6842          46.00       200.09
   35.77        3348.75           6846          49.00       213.17
   35.79        3349.00           6849          47.00       204.45
   35.82        3349.25           6853          50.00       217.53
   35.85        3349.50           6857          47.00       204.45
   35.88        3349.75           6861          44.00       191.37
   35.90        3350.00           6864          42.00       182.65
   35.93        3350.25           6868          44.00       191.37
   35.96        3350.50           6872          42.00       182.65
   35.99        3350.75           6876          47.00       204.45
   36.01        3351.00           6879          44.00       191.37
HL scan finished at 00:37:30
end
************************************************************
  HL Scan of (1) Internal mercury lamp
************************************************************
Integration time is 0.2294 seconds per sample
dh120117DelftKZ 51.997-4.386 2.321352pr1000
************************************************************
Dead Time -------------------------  3E-08 
Number of Cycles Used -------------  4 
Starting Wavelength (Angstroms) ---  3331 
Final Wavelength (Angstoms) -------  3351 
Wavelength Increment (Angstroms) --  .25 
Filter Wheel #1 Position ---------- (1) Ground quartz diffuser (ND=2.32)
Filter Wheel #2 Position ---------- 



************************************************************
HL scan start time = 06:27:38
Dark Count =  0 


Time (GMT)  Wavelength (Ang)  Step Number  Raw Counts  Counts/Second

  388.40        3331.00           6581          51.00       222.32
  388.81        3331.25           6584          44.00       191.81
  388.83        3331.50           6588          43.00       187.45
  388.86        3331.75           6592          39.00       170.01
  388.89        3332.00           6595          46.00       200.52
  388.92        3332.25           6599          43.00       187.45
  388.94        3332.50           6603          49.00       213.60
  388.97        3332.75           6607          39.00       170.01
  389.00        3333.00           6610          42.00       183.09
  389.03        3333.25           6614          43.00       187.45
  389.06        3333.50           6618          43.00       187.45
  389.08        3333.75           6622          34.00       148.21
  389.11        3334.00           6625          45.00       196.17
  389.14        3334.25           6629          45.00       196.17
  389.16        3334.50           6633          43.00       187.45
  389.19        3334.75           6636          45.00       196.17
  389.22        3335.00           6640          44.00       191.81
  389.25        3335.25           6644          54.00       235.40
  389.28        3335.50           6648          56.00       244.12
  389.30        3335.75           6651          60.00       261.55
  389.33        3336.00           6655          66.00       287.71
  389.36        3336.25           6659         197.00       858.78
  389.39        3336.50           6663        1076.00      4691.16
  389.41        3336.75           6666        1865.00      8131.89
  389.44        3337.00           6670        2948.00     12855.87
  389.47        3337.25           6674        4228.00     18440.89
  389.50        3337.50           6677        5158.00     22499.93
  389.53        3337.75           6681        6634.00     28944.04
  389.55        3338.00           6685        7925.00     34582.50
  389.58        3338.25           6689        9154.00     39951.95
  389.61        3338.50           6692       10197.00     44510.14
  389.64        3338.75           6696       11468.00     50066.42
  389.66        3339.00           6700       12507.00     54609.88
  389.69        3339.25           6704       13771.00     60138.92
  389.72        3339.50           6707       14614.00     63827.42
  389.75        3339.75           6711       15733.00     68724.81
  389.78        3340.00           6715       17253.00     75379.51
  389.80        3340.25           6719       18372.00     80280.31
  389.83        3340.50           6722       19214.00     83968.89
  389.86        3340.75           6726       20459.00     89424.42
  389.89        3341.00           6730       21399.00     93544.62
  389.91        3341.25           6733       21810.00     95346.44
  389.94        3341.50           6737       21667.00     94719.52
  389.97        3341.75           6741       21822.00     95399.06
  390.00        3342.00           6745       21282.00     93031.74
  390.02        3342.25           6748       20362.00     88999.30
  390.05        3342.50           6752       19177.00     83806.78
  390.08        3342.75           6756       17876.00     78107.84
  390.11        3343.00           6760       16564.00     72362.68
  390.14        3343.25           6763       15794.00     68991.82
  390.17        3343.50           6767       14455.00     63131.67
  390.20        3343.75           6771       13199.00     57636.63
  390.23        3344.00           6775       11919.00     52038.46
  390.26        3344.25           6778       11043.00     48208.30
  390.29        3344.50           6782        9788.00     42722.55
  390.31        3344.75           6786        8635.00     37684.26
  390.35        3345.00           6790        7394.00     32263.12
  390.38        3345.25           6793        6427.00     28040.15
  390.41        3345.50           6797        5001.00     21814.62
  390.43        3345.75           6801        3785.00     16507.74
  390.46        3346.00           6805        2649.00     11551.52
  390.49        3346.25           6808        1828.00      7970.52
  390.52        3346.50           6812         653.00      2846.80
  390.55        3346.75           6816         142.00       619.02
  390.57        3347.00           6819          73.00       318.22
  390.60        3347.25           6823          58.00       252.84
  390.63        3347.50           6827          56.00       244.12
  390.66        3347.75           6831          46.00       200.52
  390.69        3348.00           6834          42.00       183.09
  390.72        3348.25           6838          45.00       196.17
  390.74        3348.50           6842          46.00       200.52
  390.77        3348.75           6846          48.00       209.24
  390.80        3349.00           6849          47.00       204.88
  390.83        3349.25           6853          43.00       187.45
  390.86        3349.50           6857          40.00       174.37
  390.89        3349.75           6861          39.00       170.01
  390.92        3350.00           6864          39.00       170.01
  390.94        3350.25           6868          45.00       196.17
  390.97        3350.50           6872          48.00       209.24
  391.00        3350.75           6876          47.00       204.88
  391.03        3351.00           6879          40.00       174.37
HL scan finished at 06:32:30
end
