************************************************************
  HL Scan of (1) Internal mercury lamp
************************************************************
Integration time is 0.2294 seconds per sample
dh130117DelftKZ 51.997-4.386 2.267704pr1000
************************************************************
Dead Time -------------------------  3E-08 
Number of Cycles Used -------------  4 
Starting Wavelength (Angstroms) ---  3331 
Final Wavelength (Angstoms) -------  3351 
Wavelength Increment (Angstroms) --  .25 
Filter Wheel #1 Position ---------- (1) Ground quartz diffuser (ND=2.32)
Filter Wheel #2 Position ---------- 



************************************************************
HL scan start time = 06:27:06
Dark Count =  .1 


Time (GMT)  Wavelength (Ang)  Step Number  Raw Counts  Counts/Second

  387.87        3331.00           6581          47.00       204.45
  388.27        3331.25           6584          40.00       173.93
  388.30        3331.50           6588          42.00       182.65
  388.33        3331.75           6592          38.00       165.21
  388.36        3332.00           6595          37.00       160.86
  388.39        3332.25           6599          42.00       182.65
  388.42        3332.50           6603          43.00       187.01
  388.44        3332.75           6607          38.00       165.21
  388.47        3333.00           6610          46.00       200.09
  388.50        3333.25           6614          45.00       195.73
  388.53        3333.50           6618          34.00       147.78
  388.56        3333.75           6622          45.00       195.73
  388.58        3334.00           6625          41.00       178.29
  388.61        3334.25           6629          38.00       165.21
  388.64        3334.50           6633          42.00       182.65
  388.67        3334.75           6636          40.00       173.93
  388.69        3335.00           6640          45.00       195.73
  388.72        3335.25           6644          49.00       213.17
  388.75        3335.50           6648          46.00       200.09
  388.78        3335.75           6651          58.00       252.40
  388.80        3336.00           6655          65.00       282.91
  388.83        3336.25           6659         137.00       596.78
  388.86        3336.50           6663         892.00      3888.42
  388.89        3336.75           6666        1825.00      7957.00
  388.92        3337.00           6670        2872.00     12523.89
  388.94        3337.25           6674        3951.00     17231.66
  388.97        3337.50           6677        4843.00     21124.54
  389.00        3337.75           6681        6028.00     26297.55
  389.03        3338.00           6685        7112.00     31031.06
  389.05        3338.25           6689        8145.00     35543.11
  389.08        3338.50           6692        9005.00     39300.45
  389.11        3338.75           6696        9937.00     43373.32
  389.14        3339.00           6700       11354.00     49567.55
  389.16        3339.25           6704       12553.00     54810.64
  389.19        3339.50           6707       13315.00     58143.62
  389.22        3339.75           6711       14332.00     62593.02
  389.25        3340.00           6715       15297.00     66816.02
  389.28        3340.25           6719       16467.00     71937.56
  389.30        3340.50           6722       17242.00     75330.91
  389.33        3340.75           6726       18248.00     79736.72
  389.36        3341.00           6730       19294.00     84318.94
  389.39        3341.25           6733       19754.00     86334.49
  389.42        3341.50           6737       19825.00     86645.59
  389.44        3341.75           6741       19637.00     85821.82
  389.47        3342.00           6745       19001.00     83035.28
  389.50        3342.25           6748       18241.00     79706.06
  389.53        3342.50           6752       17102.00     74717.86
  389.56        3342.75           6756       15901.00     69459.76
  389.59        3343.00           6760       14925.00     65187.96
  389.62        3343.25           6763       14299.00     62448.62
  389.64        3343.50           6767       13177.00     57539.96
  389.67        3343.75           6771       12309.00     53743.52
  389.70        3344.00           6775       10679.00     46616.59
  389.73        3344.25           6778        9873.00     43093.61
  389.76        3344.50           6782        8723.00     38068.31
  389.78        3344.75           6786        7677.00     33498.77
  389.82        3345.00           6790        6583.00     28720.90
  389.85        3345.25           6793        5795.00     25280.28
  389.88        3345.50           6797        4627.00     20181.79
  389.90        3345.75           6801        3646.00     15900.78
  389.93        3346.00           6805        2558.00     11154.12
  389.96        3346.25           6808        1802.00      7856.69
  389.99        3346.50           6812         597.00      2602.21
  390.02        3346.75           6816         119.00       518.32
  390.04        3347.00           6819          53.00       230.60
  390.07        3347.25           6823          49.00       213.17
  390.10        3347.50           6827          50.00       217.53
  390.13        3347.75           6831          41.00       178.29
  390.15        3348.00           6834          49.00       213.17
  390.18        3348.25           6838          45.00       195.73
  390.21        3348.50           6842          42.00       182.65
  390.24        3348.75           6846          39.00       169.57
  390.26        3349.00           6849          39.00       169.57
  390.29        3349.25           6853          34.00       147.78
  390.32        3349.50           6857          43.00       187.01
  390.35        3349.75           6861          39.00       169.57
  390.38        3350.00           6864          39.00       169.57
  390.40        3350.25           6868          45.00       195.73
  390.43        3350.50           6872          38.00       165.21
  390.46        3350.75           6876          40.00       173.93
  390.49        3351.00           6879          38.00       165.21
HL scan finished at 06:31:58
end
