************************************************************
  HL Scan of (1) Internal mercury lamp
************************************************************
Integration time is 0.2294 seconds per sample
dh290117DelftKZ 51.997-4.386 2.267704pr1000
************************************************************
Dead Time -------------------------  3E-08 
Number of Cycles Used -------------  4 
Starting Wavelength (Angstroms) ---  3331 
Final Wavelength (Angstoms) -------  3351 
Wavelength Increment (Angstroms) --  .25 
Filter Wheel #1 Position ---------- (1) Ground quartz diffuser (ND=2.32)
Filter Wheel #2 Position ---------- 



************************************************************
HL scan start time = 06:12:35
Dark Count =  0 


Time (GMT)  Wavelength (Ang)  Step Number  Raw Counts  Counts/Second

  373.34        3331.00           6581          36.00       156.93
  373.74        3331.25           6584          44.00       191.81
  373.78        3331.50           6588          47.00       204.88
  373.81        3331.75           6592          45.00       196.17
  373.83        3332.00           6595          40.00       174.37
  373.86        3332.25           6599          40.00       174.37
  373.89        3332.50           6603          37.00       161.29
  373.92        3332.75           6607          43.00       187.45
  373.94        3333.00           6610          40.00       174.37
  373.97        3333.25           6614          39.00       170.01
  374.00        3333.50           6618          39.00       170.01
  374.03        3333.75           6622          40.00       174.37
  374.05        3334.00           6625          40.00       174.37
  374.08        3334.25           6629          42.00       183.09
  374.11        3334.50           6633          46.00       200.52
  374.13        3334.75           6636          45.00       196.17
  374.16        3335.00           6640          50.00       217.96
  374.19        3335.25           6644          54.00       235.40
  374.22        3335.50           6648          48.00       209.24
  374.24        3335.75           6651          58.00       252.84
  374.27        3336.00           6655          65.00       283.35
  374.30        3336.25           6659         182.00       793.39
  374.33        3336.50           6663        1057.00      4608.31
  374.35        3336.75           6666        1901.00      8288.90
  374.38        3337.00           6670        2942.00     12829.70
  374.41        3337.25           6674        4006.00     17472.10
  374.44        3337.50           6677        4870.00     21242.83
  374.46        3337.75           6681        6134.00     26760.80
  374.49        3338.00           6685        7275.00     31743.38
  374.52        3338.25           6689        8371.00     36530.86
  374.55        3338.50           6692        9245.00     40349.60
  374.57        3338.75           6696       10403.00     45410.57
  374.60        3339.00           6700       11792.00     51483.12
  374.63        3339.25           6704       12959.00     56586.83
  374.66        3339.50           6707       13910.00     60747.05
  374.68        3339.75           6711       14996.00     65499.12
  374.71        3340.00           6715       16228.00     70891.66
  374.74        3340.25           6719       17239.00     75318.21
  374.77        3340.50           6722       18034.00     78799.84
  374.79        3340.75           6726       19031.00     83167.15
  374.82        3341.00           6730       20101.00     87855.50
  374.85        3341.25           6733       20558.00     89858.30
  374.88        3341.50           6737       20645.00     90239.60
  374.90        3341.75           6741       20511.00     89652.31
  374.93        3342.00           6745       19972.00     87290.19
  374.96        3342.25           6748       19226.00     84021.46
  374.99        3342.50           6752       18247.00     79732.78
  375.02        3342.75           6756       16919.00     73917.00
  375.04        3343.00           6760       15859.00     69276.35
  375.07        3343.25           6763       15081.00     65871.10
  375.10        3343.50           6767       13929.00     60830.18
  375.13        3343.75           6771       12773.00     55773.28
  375.15        3344.00           6775       11493.00     50175.74
  375.18        3344.25           6778       10425.00     45506.73
  375.21        3344.50           6782        9303.00     40603.05
  375.23        3344.75           6786        8044.00     35102.34
  375.26        3345.00           6790        6845.00     29865.46
  375.29        3345.25           6793        5899.00     25734.77
  375.32        3345.50           6797        4743.00     20688.51
  375.34        3345.75           6801        3746.00     16337.56
  375.37        3346.00           6805        2657.00     11586.42
  375.40        3346.25           6808        1796.00      7830.96
  375.43        3346.50           6812         663.00      2890.40
  375.45        3346.75           6816         128.00       557.99
  375.48        3347.00           6819          61.00       265.91
  375.51        3347.25           6823          53.00       231.04
  375.54        3347.50           6827          49.00       213.60
  375.56        3347.75           6831          45.00       196.17
  375.59        3348.00           6834          48.00       209.24
  375.62        3348.25           6838          45.00       196.17
  375.65        3348.50           6842          38.00       165.65
  375.67        3348.75           6846          37.00       161.29
  375.70        3349.00           6849          42.00       183.09
  375.73        3349.25           6853          40.00       174.37
  375.76        3349.50           6857          43.00       187.45
  375.78        3349.75           6861          41.00       178.73
  375.81        3350.00           6864          38.00       165.65
  375.84        3350.25           6868          47.00       204.88
  375.87        3350.50           6872          41.00       178.73
  375.89        3350.75           6876          50.00       217.96
  375.92        3351.00           6879          45.00       196.17
HL scan finished at 06:17:24
end
