************************************************************
  HL Scan of (1) Internal mercury lamp
************************************************************
Integration time is 0.2294 seconds per sample
dh220119NARL 13.459-79.1756 2.857833pr1000
************************************************************
Dead Time -------------------------  2.8E-08 
Number of Cycles Used -------------  4 
Starting Wavelength (Angstroms) ---  3331 
Final Wavelength (Angstoms) -------  3351 
Wavelength Increment (Angstroms) --  .25 
Filter Wheel #1 Position ---------- (1) Ground quartz diffuser (ND=2.32)
Filter Wheel #2 Position ---------- 



************************************************************
HL scan start time = 01:03:55
Dark Count =  .3 


Time (GMT)  Wavelength (Ang)  Step Number  Raw Counts  Counts/Second

   64.68        3331.00           6582          51.00       221.01
   65.08        3331.25           6586          48.00       207.93
   65.11        3331.50           6589          48.00       207.93
   65.14        3331.75           6593          47.00       203.58
   65.17        3332.00           6597          47.00       203.58
   65.20        3332.25           6601          41.00       177.42
   65.23        3332.50           6604          48.00       207.93
   65.26        3332.75           6608          51.00       221.01
   65.28        3333.00           6612          46.00       199.22
   65.31        3333.25           6616          50.00       216.65
   65.34        3333.50           6619          48.00       207.93
   65.37        3333.75           6623          50.00       216.65
   65.40        3334.00           6627          42.00       181.78
   65.43        3334.25           6631          49.00       212.29
   65.45        3334.50           6634          53.00       229.73
   65.48        3334.75           6638          53.00       229.73
   65.51        3335.00           6642          56.00       242.81
   65.54        3335.25           6645          59.00       255.89
   65.57        3335.50           6649          68.00       295.12
   65.59        3335.75           6653          86.00       373.59
   65.62        3336.00           6657         140.00       608.99
   65.65        3336.25           6660         777.00      3386.11
   65.68        3336.50           6664        2724.00     11877.10
   65.71        3336.75           6668        5398.00     23545.16
   65.74        3337.00           6672        7755.00     33836.31
   65.76        3337.25           6675        9454.00     41258.18
   65.79        3337.50           6679       11657.00     50886.32
   65.82        3337.75           6683       13941.00     60873.94
   65.85        3338.00           6687       16727.00     73064.31
   65.88        3338.25           6690       18502.00     80835.32
   65.91        3338.50           6694       20690.00     90419.12
   65.93        3338.75           6698       23230.00    101551.20
   65.96        3339.00           6702       25619.00    112027.90
   65.99        3339.25           6705       27481.00    120197.70
   66.02        3339.50           6709       30386.00    132951.30
   66.05        3339.75           6713       32619.00    142760.90
   66.08        3340.00           6717       34809.00    152386.80
   66.11        3340.25           6720       36986.00    161960.80
   66.13        3340.50           6724       39096.00    171245.00
   66.16        3340.75           6728       41089.00    180018.90
   66.19        3341.00           6732       42524.00    186338.90
   66.22        3341.25           6735       42780.00    187466.60
   66.25        3341.50           6739       42721.00    187206.70
   66.28        3341.75           6743       41697.00    182696.40
   66.30        3342.00           6747       39591.00    173423.80
   66.33        3342.25           6750       37999.00    166417.50
   66.36        3342.50           6754       35752.00    156533.30
   66.39        3342.75           6758       33476.00    146527.10
   66.42        3343.00           6762       31318.00    137044.90
   66.45        3343.25           6765       29340.00    128358.10
   66.47        3343.50           6769       27197.00    118951.30
   66.50        3343.75           6773       24911.00    108922.40
   66.53        3344.00           6777       22301.00     97478.86
   66.56        3344.25           6780       20573.00     89906.52
   66.59        3344.50           6784       17672.00     77201.15
   66.62        3344.75           6788       15078.00     65847.98
   66.64        3345.00           6792       12612.00     55061.73
   66.67        3345.25           6795       10845.00     47336.90
   66.70        3345.50           6799        8150.00     35561.55
   66.73        3345.75           6803        5724.00     24968.19
   66.76        3346.00           6807        3625.00     15807.78
   66.79        3346.25           6810        1953.00      8514.24
   66.82        3346.50           6814         487.00      2121.75
   66.84        3346.75           6818         117.00       508.73
   66.87        3347.00           6822          79.00       343.07
   66.90        3347.25           6826          71.00       308.20
   66.93        3347.50           6829          72.00       312.56
   66.96        3347.75           6833          66.00       286.40
   66.98        3348.00           6837          60.00       260.25
   67.01        3348.25           6841          56.00       242.81
   67.04        3348.50           6844          46.00       199.22
   67.07        3348.75           6848          55.00       238.45
   67.10        3349.00           6852          55.00       238.45
   67.13        3349.25           6856          50.00       216.65
   67.15        3349.50           6859          53.00       229.73
   67.18        3349.75           6863          43.00       186.14
   67.21        3350.00           6867          44.00       190.50
   67.24        3350.25           6871          49.00       212.29
   67.27        3350.50           6874          43.00       186.14
   67.29        3350.75           6878          45.00       194.86
   67.32        3351.00           6882          46.00       199.22
HL scan finished at 01:08:48
end
************************************************************
  HL Scan of (1) Internal mercury lamp
************************************************************
Integration time is 0.2294 seconds per sample
dh220119NARL 13.459-79.1756 3.447962pr1000
************************************************************
Dead Time -------------------------  2.8E-08 
Number of Cycles Used -------------  4 
Starting Wavelength (Angstroms) ---  3331 
Final Wavelength (Angstoms) -------  3351 
Wavelength Increment (Angstroms) --  .25 
Filter Wheel #1 Position ---------- (1) Ground quartz diffuser (ND=2.32)
Filter Wheel #2 Position ---------- 



************************************************************
HL scan start time = 13:42:57
Dark Count =  .1 


Time (GMT)  Wavelength (Ang)  Step Number  Raw Counts  Counts/Second

  823.71        3331.00           6582          56.00       243.68
  824.12        3331.25           6586          53.00       230.60
  824.15        3331.50           6589          55.00       239.32
  824.18        3331.75           6593          46.00       200.09
  824.20        3332.00           6597          53.00       230.60
  824.23        3332.25           6601          48.00       208.81
  824.26        3332.50           6604          54.00       234.96
  824.29        3332.75           6608          52.00       226.24
  824.32        3333.00           6612          50.00       217.53
  824.34        3333.25           6616          50.00       217.53
  824.37        3333.50           6619          51.00       221.88
  824.40        3333.75           6623          47.00       204.45
  824.43        3334.00           6627          47.00       204.45
  824.46        3334.25           6631          51.00       221.88
  824.49        3334.50           6634          58.00       252.40
  824.51        3334.75           6638          57.00       248.04
  824.54        3335.00           6642          66.00       287.27
  824.57        3335.25           6645          67.00       291.63
  824.60        3335.50           6649          85.00       370.10
  824.63        3335.75           6653          88.00       383.18
  824.65        3336.00           6657         154.00       670.89
  824.68        3336.25           6660         822.00      3583.18
  824.71        3336.50           6664        3512.00     15315.63
  824.74        3336.75           6668        6344.00     27675.76
  824.77        3337.00           6672        8896.00     38821.17
  824.80        3337.25           6675       11128.00     48574.74
  824.82        3337.50           6679       13763.00     60096.24
  824.85        3337.75           6683       17371.00     75884.27
  824.88        3338.00           6687       20562.00     89859.21
  824.91        3338.25           6690       22844.00     99859.91
  824.94        3338.50           6694       25813.00    112879.80
  824.97        3338.75           6698       28604.00    125127.70
  825.00        3339.00           6702       31958.00    139857.40
  825.02        3339.25           6705       34532.00    151169.90
  825.05        3339.50           6709       37071.00    162335.60
  825.08        3339.75           6713       39807.00    174375.50
  825.11        3340.00           6717       43184.00    189247.40
  825.14        3340.25           6720       45432.00    199154.10
  825.16        3340.50           6724       48630.00    213257.00
  825.19        3340.75           6728       51548.00    226134.80
  825.22        3341.00           6732       53391.00    234273.20
  825.25        3341.25           6735       53984.00    236892.60
  825.28        3341.50           6739       54239.00    238019.10
  825.31        3341.75           6743       53759.00    235898.70
  825.33        3342.00           6747       51528.00    226046.50
  825.36        3342.25           6750       49489.00    217047.00
  825.39        3342.50           6754       46754.00    204982.60
  825.42        3342.75           6758       43174.00    189203.30
  825.45        3343.00           6762       40000.00    175225.10
  825.48        3343.25           6765       37808.00    165578.00
  825.50        3343.50           6769       34799.00    152343.80
  825.53        3343.75           6773       32159.00    140740.50
  825.56        3344.00           6777       29076.00    127199.80
  825.59        3344.25           6780       26445.00    115652.50
  825.62        3344.50           6784       23345.00    102056.30
  825.65        3344.75           6788       20564.00     89867.97
  825.67        3345.00           6792       17314.00     75634.73
  825.70        3345.25           6795       14829.00     64759.44
  825.73        3345.50           6799       11466.00     50052.23
  825.76        3345.75           6803        8190.00     35737.14
  825.79        3346.00           6807        5368.00     23415.09
  825.82        3346.25           6810        2986.00     13020.88
  825.84        3346.50           6814         680.00      2964.06
  825.87        3346.75           6818         168.00       731.92
  825.90        3347.00           6822         101.00       439.85
  825.93        3347.25           6826          89.00       387.54
  825.96        3347.50           6829          76.00       330.87
  825.99        3347.75           6833          70.00       304.71
  826.01        3348.00           6837          70.00       304.71
  826.04        3348.25           6841          61.00       265.48
  826.07        3348.50           6844          60.00       261.12
  826.10        3348.75           6848          55.00       239.32
  826.12        3349.00           6852          57.00       248.04
  826.15        3349.25           6856          54.00       234.96
  826.18        3349.50           6859          55.00       239.32
  826.21        3349.75           6863          58.00       252.40
  826.24        3350.00           6867          55.00       239.32
  826.27        3350.25           6871          54.00       234.96
  826.29        3350.50           6874          59.00       256.76
  826.32        3350.75           6878          57.00       248.04
  826.35        3351.00           6882          57.00       248.04
HL scan finished at 13:47:50
end
