************************************************************
  HL Scan of (1) Internal mercury lamp
************************************************************
Integration time is 0.2294 seconds per sample
dh230119NARL 13.459-79.1756 3.126073pr1000
************************************************************
Dead Time -------------------------  2.8E-08 
Number of Cycles Used -------------  4 
Starting Wavelength (Angstroms) ---  3331 
Final Wavelength (Angstoms) -------  3351 
Wavelength Increment (Angstroms) --  .25 
Filter Wheel #1 Position ---------- (1) Ground quartz diffuser (ND=2.32)
Filter Wheel #2 Position ---------- 



************************************************************
HL scan start time = 01:03:54
Dark Count =  .3 


Time (GMT)  Wavelength (Ang)  Step Number  Raw Counts  Counts/Second

   64.66        3331.00           6582          49.00       212.29
   65.07        3331.25           6586          48.00       207.93
   65.10        3331.50           6589          48.00       207.93
   65.13        3331.75           6593          52.00       225.37
   65.15        3332.00           6597          52.00       225.37
   65.18        3332.25           6601          50.00       216.65
   65.21        3332.50           6604          52.00       225.37
   65.24        3332.75           6608          49.00       212.29
   65.27        3333.00           6612          50.00       216.65
   65.29        3333.25           6616          52.00       225.37
   65.32        3333.50           6619          53.00       229.73
   65.35        3333.75           6623          53.00       229.73
   65.38        3334.00           6627          50.00       216.65
   65.41        3334.25           6631          57.00       247.17
   65.44        3334.50           6634          50.00       216.65
   65.46        3334.75           6638          58.00       251.53
   65.49        3335.00           6642          58.00       251.53
   65.52        3335.25           6645          70.00       303.84
   65.55        3335.50           6649          72.00       312.56
   65.58        3335.75           6653          81.00       351.79
   65.61        3336.00           6657         124.00       539.24
   65.63        3336.25           6660         609.00      2653.64
   65.66        3336.50           6664        2625.00     11445.26
   65.69        3336.75           6668        5298.00     23108.68
   65.72        3337.00           6672        8028.00     35028.68
   65.75        3337.25           6675       10001.00     43648.34
   65.78        3337.50           6679       13415.00     58573.32
   65.81        3337.75           6683       16211.00     70805.88
   65.83        3338.00           6687       19174.00     83778.25
   65.86        3338.25           6690       21211.00     92701.94
   65.89        3338.50           6694       24104.00    105383.30
   65.92        3338.75           6698       26689.00    116722.20
   65.95        3339.00           6702       29067.00    127159.50
   65.98        3339.25           6705       31043.00    135836.90
   66.00        3339.50           6709       33669.00    147375.40
   66.03        3339.75           6713       36739.00    160874.30
   66.06        3340.00           6717       39701.00    173908.00
   66.09        3340.25           6720       41649.00    182485.00
   66.12        3340.50           6724       43785.00    191894.50
   66.15        3340.75           6728       46477.00    203760.40
   66.18        3341.00           6732       48402.00    212250.30
   66.20        3341.25           6735       48479.00    212590.00
   66.23        3341.50           6739       48448.00    212453.20
   66.26        3341.75           6743       48025.00    210587.20
   66.29        3342.00           6747       45906.00    201242.80
   66.32        3342.25           6750       43923.00    192502.60
   66.35        3342.50           6754       40697.00    178292.80
   66.38        3342.75           6758       38105.00    166883.90
   66.40        3343.00           6762       35430.00    155117.30
   66.43        3343.25           6765       33337.00    145916.20
   66.46        3343.50           6769       30421.00    133105.00
   66.49        3343.75           6773       28027.00    122594.00
   66.52        3344.00           6777       25625.00    112054.20
   66.55        3344.25           6780       23402.00    102305.30
   66.58        3344.50           6784       20730.00     90594.38
   66.60        3344.75           6788       17636.00     77043.53
   66.63        3345.00           6792       14550.00     63537.96
   66.66        3345.25           6795       12444.00     54327.14
   66.69        3345.50           6799        9923.00     43307.50
   66.72        3345.75           6803        7305.00     31871.06
   66.75        3346.00           6807        4546.00     19826.61
   66.77        3346.25           6810        2540.00     11074.49
   66.80        3346.50           6814         643.00      2801.88
   66.83        3346.75           6818         174.00       757.21
   66.86        3347.00           6822          82.00       356.15
   66.89        3347.25           6826          84.00       364.87
   66.92        3347.50           6829          77.00       334.35
   66.94        3347.75           6833          67.00       290.76
   66.97        3348.00           6837          64.00       277.68
   67.00        3348.25           6841          64.00       277.68
   67.03        3348.50           6844          58.00       251.53
   67.06        3348.75           6848          56.00       242.81
   67.09        3349.00           6852          54.00       234.09
   67.11        3349.25           6856          54.00       234.09
   67.14        3349.50           6859          51.00       221.01
   67.17        3349.75           6863          56.00       242.81
   67.20        3350.00           6867          49.00       212.29
   67.23        3350.25           6871          52.00       225.37
   67.25        3350.50           6874          49.00       212.29
   67.28        3350.75           6878          46.00       199.22
   67.31        3351.00           6882          50.00       216.65
HL scan finished at 01:08:47
end
************************************************************
  HL Scan of (1) Internal mercury lamp
************************************************************
Integration time is 0.2294 seconds per sample
dh230119NARL 13.459-79.1756 3.50161pr1000
************************************************************
Dead Time -------------------------  2.8E-08 
Number of Cycles Used -------------  4 
Starting Wavelength (Angstroms) ---  3331 
Final Wavelength (Angstoms) -------  3351 
Wavelength Increment (Angstroms) --  .25 
Filter Wheel #1 Position ---------- (1) Ground quartz diffuser (ND=2.32)
Filter Wheel #2 Position ---------- 



************************************************************
HL scan start time = 13:34:54
Dark Count =  .5 


Time (GMT)  Wavelength (Ang)  Step Number  Raw Counts  Counts/Second

  815.66        3331.00           6582          49.00       211.42
  816.07        3331.25           6586          52.00       224.50
  816.10        3331.50           6589          59.00       255.01
  816.13        3331.75           6593          57.00       246.30
  816.15        3332.00           6597          54.00       233.22
  816.18        3332.25           6601          57.00       246.30
  816.21        3332.50           6604          56.00       241.94
  816.24        3332.75           6608          53.00       228.86
  816.27        3333.00           6612          53.00       228.86
  816.29        3333.25           6616          51.00       220.14
  816.32        3333.50           6619          51.00       220.14
  816.35        3333.75           6623          58.00       250.66
  816.38        3334.00           6627          48.00       207.06
  816.41        3334.25           6631          57.00       246.30
  816.43        3334.50           6634          59.00       255.01
  816.46        3334.75           6638          57.00       246.30
  816.49        3335.00           6642          61.00       263.73
  816.52        3335.25           6645          70.00       302.97
  816.55        3335.50           6649          78.00       337.84
  816.58        3335.75           6653          82.00       355.28
  816.60        3336.00           6657         114.00       494.78
  816.63        3336.25           6660         295.00      1283.83
  816.66        3336.50           6664        2383.00     10388.81
  816.69        3336.75           6668        5217.00     22754.25
  816.72        3337.00           6672        8203.00     35792.17
  816.75        3337.25           6675       10674.00     46588.64
  816.77        3337.50           6679       13662.00     59652.74
  816.80        3337.75           6683       16841.00     73562.44
  816.83        3338.00           6687       20543.00     89774.21
  816.86        3338.25           6690       22936.00    100261.50
  816.89        3338.50           6694       25983.00    113623.80
  816.92        3338.75           6698       29150.00    127523.00
  816.94        3339.00           6702       32217.00    140993.60
  816.97        3339.25           6705       34273.00    150029.50
  817.00        3339.50           6709       37240.00    163077.30
  817.03        3339.75           6713       40376.00    176878.60
  817.06        3340.00           6717       43396.00    190179.60
  817.09        3340.25           6720       45943.00    201405.10
  817.11        3340.50           6724       48932.00    214587.60
  817.14        3340.75           6728       51818.00    227325.10
  817.17        3341.00           6732       54125.00    237513.70
  817.20        3341.25           6735       54345.00    238485.70
  817.23        3341.50           6739       54680.00    239965.70
  817.26        3341.75           6743       54194.00    237818.60
  817.28        3342.00           6747       52596.00    230760.40
  817.31        3342.25           6750       50309.00    220663.90
  817.34        3342.50           6754       47378.00    207732.70
  817.37        3342.75           6758       44308.00    194198.30
  817.40        3343.00           6762       41138.00    180233.80
  817.43        3343.25           6765       38505.00    168643.20
  817.45        3343.50           6769       35556.00    155670.50
  817.48        3343.75           6773       32448.00    142008.60
  817.51        3344.00           6777       29369.00    128484.50
  817.54        3344.25           6780       26939.00    117818.30
  817.57        3344.50           6784       24165.00    105649.90
  817.60        3344.75           6788       21190.00     92609.06
  817.63        3345.00           6792       17896.00     78180.99
  817.65        3345.25           6795       15455.00     67496.68
  817.68        3345.50           6799       12255.00     53499.88
  817.71        3345.75           6803        8999.00     39269.40
  817.74        3346.00           6807        6097.00     26595.65
  817.77        3346.25           6810        3896.00     16989.33
  817.80        3346.50           6814        1222.00      5325.55
  817.82        3346.75           6818         230.00      1000.46
  817.85        3347.00           6822         107.00       464.26
  817.88        3347.25           6826          91.00       394.51
  817.91        3347.50           6829          81.00       350.92
  817.94        3347.75           6833          82.00       355.28
  817.97        3348.00           6837          77.00       333.48
  817.99        3348.25           6841          71.00       307.33
  818.02        3348.50           6844          58.00       250.66
  818.05        3348.75           6848          58.00       250.66
  818.08        3349.00           6852          50.00       215.78
  818.11        3349.25           6856          55.00       237.58
  818.14        3349.50           6859          57.00       246.30
  818.16        3349.75           6863          53.00       228.86
  818.19        3350.00           6867          51.00       220.14
  818.22        3350.25           6871          52.00       224.50
  818.25        3350.50           6874          59.00       255.01
  818.28        3350.75           6878          54.00       233.22
  818.30        3351.00           6882          55.00       237.58
HL scan finished at 13:39:47
end
