************************************************************
  HL Scan of (1) Internal mercury lamp
************************************************************
Integration time is 0.2294 seconds per sample
dh240119NARL 13.459-79.1756 3.126073pr1000
************************************************************
Dead Time -------------------------  2.8E-08 
Number of Cycles Used -------------  4 
Starting Wavelength (Angstroms) ---  3331 
Final Wavelength (Angstoms) -------  3351 
Wavelength Increment (Angstroms) --  .25 
Filter Wheel #1 Position ---------- (1) Ground quartz diffuser (ND=2.32)
Filter Wheel #2 Position ---------- 



************************************************************
HL scan start time = 01:03:56
Dark Count =  .1 


Time (GMT)  Wavelength (Ang)  Step Number  Raw Counts  Counts/Second

   64.70        3331.00           6582          51.00       221.88
   65.11        3331.25           6586          51.00       221.88
   65.14        3331.50           6589          44.00       191.37
   65.16        3331.75           6593          52.00       226.24
   65.19        3332.00           6597          54.00       234.96
   65.22        3332.25           6601          52.00       226.24
   65.25        3332.50           6604          47.00       204.45
   65.28        3332.75           6608          53.00       230.60
   65.31        3333.00           6612          54.00       234.96
   65.33        3333.25           6616          51.00       221.88
   65.36        3333.50           6619          55.00       239.32
   65.39        3333.75           6623          57.00       248.04
   65.42        3334.00           6627          44.00       191.37
   65.45        3334.25           6631          53.00       230.60
   65.47        3334.50           6634          60.00       261.12
   65.50        3334.75           6638          55.00       239.32
   65.53        3335.00           6642          60.00       261.12
   65.56        3335.25           6645          71.00       309.07
   65.59        3335.50           6649          79.00       343.94
   65.62        3335.75           6653          87.00       378.82
   65.64        3336.00           6657         148.00       644.74
   65.67        3336.25           6660         937.00      4084.60
   65.70        3336.50           6664        3245.00     14150.77
   65.73        3336.75           6668        5874.00     25623.87
   65.76        3337.00           6672        8275.00     36108.42
   65.78        3337.25           6675       10182.00     44440.19
   65.81        3337.50           6679       12677.00     55346.82
   65.84        3337.75           6683       15609.00     68172.30
   65.87        3338.00           6687       18752.00     81930.99
   65.90        3338.25           6690       20771.00     90774.89
   65.93        3338.50           6694       23713.00    103669.70
   65.95        3338.75           6698       26336.00    115174.20
   65.98        3339.00           6702       28887.00    126370.10
   66.01        3339.25           6705       31135.00    136242.00
   66.04        3339.50           6709       33782.00    147873.00
   66.07        3339.75           6713       36473.00    159705.20
   66.10        3340.00           6717       38948.00    170594.50
   66.13        3340.25           6720       41045.00    179826.00
   66.15        3340.50           6724       43721.00    191613.30
   66.18        3340.75           6728       46619.00    204387.40
   66.21        3341.00           6732       48486.00    212621.70
   66.24        3341.25           6735       48593.00    213093.70
   66.27        3341.50           6739       48510.00    212727.60
   66.30        3341.75           6743       48200.00    211360.10
   66.32        3342.00           6747       45904.00    201234.90
   66.35        3342.25           6750       44397.00    194592.30
   66.38        3342.50           6754       41672.00    182587.10
   66.41        3342.75           6758       38848.00    170154.40
   66.44        3343.00           6762       35874.00    157070.70
   66.47        3343.25           6765       33700.00    147512.60
   66.49        3343.50           6769       31178.00    136430.80
   66.52        3343.75           6773       28539.00    124842.40
   66.55        3344.00           6777       25839.00    112993.80
   66.58        3344.25           6780       23487.00    102678.80
   66.61        3344.50           6784       20962.00     91611.77
   66.64        3344.75           6788       18283.00     79877.24
   66.67        3345.00           6792       15531.00     67830.98
   66.69        3345.25           6795       13146.00     57397.75
   66.72        3345.50           6799       10190.00     44475.15
   66.75        3345.75           6803        7256.00     31657.95
   66.78        3346.00           6807        4452.00     19417.27
   66.81        3346.25           6810        2446.00     10665.35
   66.84        3346.50           6814         523.00      2279.57
   66.86        3346.75           6818         127.00       553.19
   66.89        3347.00           6822          85.00       370.10
   66.92        3347.25           6826          84.00       365.74
   66.95        3347.50           6829          76.00       330.87
   66.98        3347.75           6833          60.00       261.12
   67.00        3348.00           6837          64.00       278.55
   67.03        3348.25           6841          59.00       256.76
   67.06        3348.50           6844          62.00       269.84
   67.09        3348.75           6848          53.00       230.60
   67.12        3349.00           6852          53.00       230.60
   67.15        3349.25           6856          56.00       243.68
   67.18        3349.50           6859          58.00       252.40
   67.20        3349.75           6863          48.00       208.81
   67.23        3350.00           6867          59.00       256.76
   67.26        3350.25           6871          51.00       221.88
   67.29        3350.50           6874          49.00       213.17
   67.32        3350.75           6878          56.00       243.68
   67.34        3351.00           6882          49.00       213.17
HL scan finished at 01:08:49
end
************************************************************
  HL Scan of (1) Internal mercury lamp
************************************************************
Integration time is 0.2294 seconds per sample
dh240119NARL 13.459-79.1756 3.50161pr1000
************************************************************
Dead Time -------------------------  2.8E-08 
Number of Cycles Used -------------  4 
Starting Wavelength (Angstroms) ---  3331 
Final Wavelength (Angstoms) -------  3351 
Wavelength Increment (Angstroms) --  .25 
Filter Wheel #1 Position ---------- (1) Ground quartz diffuser (ND=2.32)
Filter Wheel #2 Position ---------- 



************************************************************
HL scan start time = 13:35:20
Dark Count =  .4 


Time (GMT)  Wavelength (Ang)  Step Number  Raw Counts  Counts/Second

  816.10        3331.00           6582          58.00       251.09
  816.51        3331.25           6586          50.00       216.22
  816.54        3331.50           6589          60.00       259.81
  816.57        3331.75           6593          56.00       242.37
  816.60        3332.00           6597          57.00       246.73
  816.63        3332.25           6601          55.00       238.01
  816.66        3332.50           6604          47.00       203.14
  816.68        3332.75           6608          55.00       238.01
  816.71        3333.00           6612          51.00       220.58
  816.74        3333.25           6616          51.00       220.58
  816.77        3333.50           6619          57.00       246.73
  816.80        3333.75           6623          52.00       224.94
  816.83        3334.00           6627          52.00       224.94
  816.85        3334.25           6631          56.00       242.37
  816.88        3334.50           6634          59.00       255.45
  816.91        3334.75           6638          65.00       281.61
  816.94        3335.00           6642          73.00       316.48
  816.97        3335.25           6645          67.00       290.32
  817.00        3335.50           6649          74.00       320.84
  817.03        3335.75           6653          93.00       403.67
  817.06        3336.00           6657         135.00       586.76
  817.08        3336.25           6660         340.00      1480.45
  817.11        3336.50           6664        2236.00      9748.08
  817.14        3336.75           6668        5553.00     24221.31
  817.17        3337.00           6672        9030.00     39405.27
  817.20        3337.25           6675       11171.00     48761.39
  817.23        3337.50           6679       13834.00     60405.48
  817.26        3337.75           6683       16705.00     72967.58
  817.29        3338.00           6687       20191.00     88232.53
  817.31        3338.25           6690       22576.00     98683.81
  817.34        3338.50           6694       25340.00    110803.60
  817.37        3338.75           6698       28667.00    125403.00
  817.40        3339.00           6702       31565.00    138129.60
  817.43        3339.25           6705       34024.00    148935.40
  817.46        3339.50           6709       37521.00    164314.00
  817.49        3339.75           6713       40708.00    178340.90
  817.52        3340.00           6717       43646.00    191281.60
  817.54        3340.25           6720       46065.00    201943.40
  817.57        3340.50           6724       49179.00    215677.80
  817.60        3340.75           6728       51665.00    226650.10
  817.63        3341.00           6732       54406.00    238755.60
  817.66        3341.25           6735       54867.00    240792.40
  817.69        3341.50           6739       54646.00    239816.00
  817.72        3341.75           6743       54750.00    240275.40
  817.75        3342.00           6747       52446.00    230098.50
  817.77        3342.25           6750       50475.00    221397.00
  817.80        3342.50           6754       47446.00    208033.00
  817.83        3342.75           6758       44348.00    194375.00
  817.86        3343.00           6762       41364.00    181229.40
  817.89        3343.25           6765       38932.00    170522.80
  817.92        3343.50           6769       36068.00    157922.60
  817.95        3343.75           6773       33207.00    145344.50
  817.98        3344.00           6777       29999.00    131251.30
  818.01        3344.25           6780       27391.00    119802.30
  818.04        3344.50           6784       24237.00    105966.10
  818.06        3344.75           6788       20672.00     90339.82
  818.09        3345.00           6792       17629.00     77012.44
  818.12        3345.25           6795       15475.00     67584.62
  818.15        3345.50           6799       12244.00     53452.21
  818.18        3345.75           6803        9102.00     39719.83
  818.21        3346.00           6807        6291.00     27443.05
  818.24        3346.25           6810        4041.00     17622.47
  818.26        3346.50           6814        1361.00      5932.11
  818.29        3346.75           6818         257.00      1118.61
  818.32        3347.00           6822         103.00       447.26
  818.35        3347.25           6826          91.00       394.95
  818.38        3347.50           6829          72.00       312.12
  818.41        3347.75           6833          78.00       338.28
  818.44        3348.00           6837          70.00       303.40
  818.46        3348.25           6841          65.00       281.61
  818.49        3348.50           6844          71.00       307.76
  818.52        3348.75           6848          55.00       238.01
  818.55        3349.00           6852          54.00       233.65
  818.58        3349.25           6856          55.00       238.01
  818.61        3349.50           6859          51.00       220.58
  818.63        3349.75           6863          60.00       259.81
  818.66        3350.00           6867          49.00       211.86
  818.69        3350.25           6871          54.00       233.65
  818.72        3350.50           6874          55.00       238.01
  818.75        3350.75           6878          55.00       238.01
  818.78        3351.00           6882          54.00       233.65
HL scan finished at 13:40:15
end
