************************************************************
  HL Scan of (1) Internal mercury lamp
************************************************************
Integration time is 0.2294 seconds per sample
dh210119NARL 13.459-79.1756 3.394313pr1000
************************************************************
Dead Time -------------------------  2.8E-08 
Number of Cycles Used -------------  4 
Starting Wavelength (Angstroms) ---  3331 
Final Wavelength (Angstoms) -------  3351 
Wavelength Increment (Angstroms) --  .25 
Filter Wheel #1 Position ---------- (1) Ground quartz diffuser (ND=2.32)
Filter Wheel #2 Position ---------- 



************************************************************
HL scan start time = 13:33:35
Dark Count =  .4 


Time (GMT)  Wavelength (Ang)  Step Number  Raw Counts  Counts/Second

  814.35        3331.00           6582          51.00       220.58
  814.76        3331.25           6586          48.00       207.50
  814.78        3331.50           6589          51.00       220.58
  814.81        3331.75           6593          54.00       233.65
  814.84        3332.00           6597          50.00       216.22
  814.87        3332.25           6601          54.00       233.65
  814.90        3332.50           6604          57.00       246.73
  814.92        3332.75           6608          58.00       251.09
  814.95        3333.00           6612          46.00       198.78
  814.98        3333.25           6616          44.00       190.06
  815.01        3333.50           6619          62.00       268.53
  815.04        3333.75           6623          53.00       229.30
  815.07        3334.00           6627          55.00       238.01
  815.09        3334.25           6631          63.00       272.89
  815.12        3334.50           6634          57.00       246.73
  815.15        3334.75           6638          52.00       224.94
  815.18        3335.00           6642          66.00       285.97
  815.21        3335.25           6645          73.00       316.48
  815.23        3335.50           6649          73.00       316.48
  815.26        3335.75           6653          83.00       360.07
  815.29        3336.00           6657         110.00       477.77
  815.32        3336.25           6660         308.00      1340.94
  815.35        3336.50           6664        2394.00     10437.23
  815.38        3336.75           6668        5696.00     24845.53
  815.40        3337.00           6672        8786.00     38339.31
  815.43        3337.25           6675       10989.00     47965.86
  815.46        3337.50           6679       13804.00     60274.26
  815.49        3337.75           6683       17050.00     74477.74
  815.52        3338.00           6687       20315.00     88775.76
  815.54        3338.25           6690       22323.00     97574.85
  815.57        3338.50           6694       24965.00    109158.80
  815.60        3338.75           6698       28002.00    122483.90
  815.63        3339.00           6702       30925.00    135318.20
  815.66        3339.25           6705       33636.00    147230.00
  815.69        3339.50           6709       36925.00    161692.00
  815.71        3339.75           6713       39716.00    173973.60
  815.74        3340.00           6717       42406.00    185818.70
  815.77        3340.25           6720       44802.00    196375.90
  815.80        3340.50           6724       47829.00    209722.30
  815.83        3340.75           6728       50319.00    220708.50
  815.86        3341.00           6732       52271.00    229325.70
  815.88        3341.25           6735       53071.00    232858.60
  815.91        3341.50           6739       53108.00    233022.00
  815.94        3341.75           6743       52659.00    231039.10
  815.97        3342.00           6747       50289.00    220576.10
  816.00        3342.25           6750       48433.00    212386.60
  816.03        3342.50           6754       45651.00    200118.20
  816.05        3342.75           6758       42275.00    185241.70
  816.08        3343.00           6762       39336.00    172300.90
  816.11        3343.25           6765       37316.00    163412.10
  816.14        3343.50           6769       34671.00    151779.70
  816.17        3343.75           6773       31751.00    138946.70
  816.20        3344.00           6777       28448.00    124441.60
  816.22        3344.25           6780       26001.00    113703.20
  816.25        3344.50           6784       23006.00    100568.80
  816.28        3344.75           6788       19827.00     86637.99
  816.31        3345.00           6792       16826.00     73497.21
  816.34        3345.25           6795       14768.00     64491.24
  816.37        3345.50           6799       11718.00     51152.55
  816.39        3345.75           6803        8632.00     37666.56
  816.42        3346.00           6807        6023.00     26273.03
  816.45        3346.25           6810        3757.00     16383.28
  816.48        3346.50           6814        1084.00      4724.25
  816.51        3346.75           6818         193.00       839.60
  816.54        3347.00           6822          98.00       425.46
  816.56        3347.25           6826          85.00       368.79
  816.59        3347.50           6829          72.00       312.12
  816.62        3347.75           6833          64.00       277.25
  816.65        3348.00           6837          67.00       290.32
  816.68        3348.25           6841          67.00       290.32
  816.70        3348.50           6844          55.00       238.01
  816.73        3348.75           6848          57.00       246.73
  816.76        3349.00           6852          68.00       294.68
  816.79        3349.25           6856          54.00       233.65
  816.82        3349.50           6859          57.00       246.73
  816.85        3349.75           6863          51.00       220.58
  816.87        3350.00           6867          55.00       238.01
  816.90        3350.25           6871          57.00       246.73
  816.93        3350.50           6874          55.00       238.01
  816.96        3350.75           6878          57.00       246.73
  816.98        3351.00           6882          49.00       211.86
HL scan finished at 13:38:28
end
