************************************************************
  HL Scan of (1) Internal mercury lamp
************************************************************
Integration time is 0.2294 seconds per sample
dh200117DelftKZ 51.997-4.386 2.10676pr1000
************************************************************
Dead Time -------------------------  3E-08 
Number of Cycles Used -------------  4 
Starting Wavelength (Angstroms) ---  3331 
Final Wavelength (Angstoms) -------  3351 
Wavelength Increment (Angstroms) --  .25 
Filter Wheel #1 Position ---------- (1) Ground quartz diffuser (ND=2.32)
Filter Wheel #2 Position ---------- 



************************************************************
HL scan start time = 06:22:41
Dark Count =  .1 


Time (GMT)  Wavelength (Ang)  Step Number  Raw Counts  Counts/Second

  383.44        3331.00           6581          42.00       182.65
  383.85        3331.25           6584          42.00       182.65
  383.88        3331.50           6588          37.00       160.86
  383.91        3331.75           6592          41.00       178.29
  383.94        3332.00           6595          44.00       191.37
  383.96        3332.25           6599          36.00       156.50
  383.99        3332.50           6603          43.00       187.01
  384.02        3332.75           6607          41.00       178.29
  384.05        3333.00           6610          38.00       165.21
  384.07        3333.25           6614          40.00       173.93
  384.10        3333.50           6618          37.00       160.86
  384.13        3333.75           6622          41.00       178.29
  384.16        3334.00           6625          42.00       182.65
  384.18        3334.25           6629          40.00       173.93
  384.21        3334.50           6633          41.00       178.29
  384.24        3334.75           6636          49.00       213.17
  384.27        3335.00           6640          43.00       187.01
  384.29        3335.25           6644          52.00       226.24
  384.32        3335.50           6648          51.00       221.88
  384.35        3335.75           6651          59.00       256.76
  384.39        3336.00           6655          63.00       274.20
  384.41        3336.25           6659         198.00       862.71
  384.44        3336.50           6663        1120.00      4882.58
  384.47        3336.75           6666        1888.00      8231.76
  384.50        3337.00           6670        2834.00     12358.11
  384.52        3337.25           6674        3811.00     16620.75
  384.55        3337.50           6677        4632.00     20203.61
  384.58        3337.75           6681        5798.00     25293.38
  384.61        3338.00           6685        6839.00     29838.82
  384.63        3338.25           6689        7849.00     34250.09
  384.66        3338.50           6692        8698.00     37959.07
  384.69        3338.75           6696        9794.00     42748.34
  384.72        3339.00           6700       10909.00     47622.05
  384.75        3339.25           6704       12131.00     52965.09
  384.77        3339.50           6707       12963.00     56603.89
  384.80        3339.75           6711       14029.00     61267.27
  384.83        3340.00           6715       15094.00     65927.56
  384.86        3340.25           6719       15939.00     69626.10
  384.89        3340.50           6722       16728.00     73080.27
  384.91        3340.75           6726       17803.00     77787.69
  384.94        3341.00           6730       18694.00     81690.37
  384.97        3341.25           6733       18971.00     82903.85
  385.00        3341.50           6737       19170.00     83775.68
  385.02        3341.75           6741       18899.00     82588.43
  385.05        3342.00           6745       18314.00     80025.81
  385.08        3342.25           6748       17631.00     77034.41
  385.11        3342.50           6752       16552.00     72309.70
  385.14        3342.75           6756       15464.00     67546.94
  385.16        3343.00           6760       14501.00     63332.51
  385.19        3343.25           6763       13928.00     60825.37
  385.22        3343.50           6767       12808.00     55925.93
  385.25        3343.75           6771       11734.00     51229.07
  385.27        3344.00           6775       10489.00     45786.04
  385.30        3344.25           6778        9562.00     41734.44
  385.33        3344.50           6782        8318.00     36298.88
  385.36        3344.75           6786        7429.00     32415.56
  385.39        3345.00           6790        6251.00     27271.21
  385.41        3345.25           6793        5273.00     23001.48
  385.44        3345.50           6797        4253.00     18549.55
  385.47        3345.75           6801        3357.00     14639.82
  385.50        3346.00           6805        2274.00      9915.33
  385.53        3346.25           6808        1510.00      6583.25
  385.55        3346.50           6812         545.00      2375.50
  385.58        3346.75           6816         116.00       505.24
  385.61        3347.00           6819          53.00       230.60
  385.64        3347.25           6823          54.00       234.96
  385.67        3347.50           6827          46.00       200.09
  385.70        3347.75           6831          48.00       208.81
  385.72        3348.00           6834          51.00       221.88
  385.75        3348.25           6838          47.00       204.45
  385.78        3348.50           6842          46.00       200.09
  385.81        3348.75           6846          41.00       178.29
  385.83        3349.00           6849          46.00       200.09
  385.86        3349.25           6853          40.00       173.93
  385.89        3349.50           6857          41.00       178.29
  385.92        3349.75           6861          32.00       139.06
  385.94        3350.00           6864          37.00       160.86
  385.97        3350.25           6868          37.00       160.86
  386.00        3350.50           6872          35.00       152.14
  386.03        3350.75           6876          38.00       165.21
  386.06        3351.00           6879          40.00       173.93
HL scan finished at 06:27:32
end
