************************************************************
  HL Scan of (1) Internal mercury lamp
************************************************************
Integration time is 0.2294 seconds per sample
dh220117DelftKZ 51.997-4.386 2.10676pr1000
************************************************************
Dead Time -------------------------  3E-08 
Number of Cycles Used -------------  4 
Starting Wavelength (Angstroms) ---  3331 
Final Wavelength (Angstoms) -------  3351 
Wavelength Increment (Angstroms) --  .25 
Filter Wheel #1 Position ---------- (1) Ground quartz diffuser (ND=2.32)
Filter Wheel #2 Position ---------- 



************************************************************
HL scan start time = 06:19:42
Dark Count =  .1 


Time (GMT)  Wavelength (Ang)  Step Number  Raw Counts  Counts/Second

  380.47        3331.00           6581          45.00       195.73
  380.87        3331.25           6584          44.00       191.37
  380.90        3331.50           6588          37.00       160.86
  380.93        3331.75           6592          37.00       160.86
  380.96        3332.00           6595          41.00       178.29
  380.98        3332.25           6599          36.00       156.50
  381.01        3332.50           6603          38.00       165.21
  381.04        3332.75           6607          35.00       152.14
  381.06        3333.00           6610          40.00       173.93
  381.09        3333.25           6614          37.00       160.86
  381.12        3333.50           6618          41.00       178.29
  381.15        3333.75           6622          42.00       182.65
  381.18        3334.00           6625          44.00       191.37
  381.20        3334.25           6629          44.00       191.37
  381.23        3334.50           6633          40.00       173.93
  381.26        3334.75           6636          45.00       195.73
  381.28        3335.00           6640          41.00       178.29
  381.31        3335.25           6644          48.00       208.81
  381.34        3335.50           6648          52.00       226.24
  381.37        3335.75           6651          58.00       252.40
  381.39        3336.00           6655          62.00       269.84
  381.42        3336.25           6659         216.00       941.18
  381.45        3336.50           6663         844.00      3679.13
  381.48        3336.75           6666        1511.00      6587.61
  381.50        3337.00           6670        2629.00     11463.84
  381.53        3337.25           6674        3801.00     16577.12
  381.56        3337.50           6677        4575.00     19954.84
  381.59        3337.75           6681        5681.00     24782.59
  381.61        3338.00           6685        6640.00     28969.81
  381.64        3338.25           6689        7794.00     34009.83
  381.67        3338.50           6692        8604.00     37548.38
  381.70        3338.75           6696        9604.00     41917.99
  381.73        3339.00           6700       10557.00     46083.29
  381.75        3339.25           6704       11734.00     51229.07
  381.78        3339.50           6707       12487.00     54521.98
  381.81        3339.75           6711       13709.00     59867.24
  381.84        3340.00           6715       14682.00     64124.55
  381.86        3340.25           6719       15765.00     68864.44
  381.89        3340.50           6722       16412.00     71696.77
  381.92        3340.75           6726       17481.00     76377.51
  381.94        3341.00           6730       18407.00     80433.18
  381.97        3341.25           6733       18747.00     81922.55
  382.00        3341.50           6737       18615.00     81344.31
  382.03        3341.75           6741       18717.00     81791.13
  382.05        3342.00           6745       18140.00     79263.68
  382.08        3342.25           6748       17214.00     75208.29
  382.11        3342.50           6752       16232.00     70908.75
  382.14        3342.75           6756       15417.00     67341.23
  382.17        3343.00           6760       14322.00     62549.26
  382.19        3343.25           6763       13624.00     59495.38
  382.22        3343.50           6767       12464.00     54421.39
  382.25        3343.75           6771       11477.00     50105.35
  382.28        3344.00           6775       10518.00     45912.81
  382.30        3344.25           6778        9725.00     42446.78
  382.33        3344.50           6782        8548.00     37303.72
  382.36        3344.75           6786        7176.00     31310.57
  382.39        3345.00           6790        6203.00     27061.63
  382.41        3345.25           6793        5390.00     23512.22
  382.44        3345.50           6797        4301.00     18759.03
  382.47        3345.75           6801        3113.00     13575.28
  382.50        3346.00           6805        2109.00      9195.65
  382.52        3346.25           6808        1467.00      6395.74
  382.55        3346.50           6812         546.00      2379.86
  382.58        3346.75           6816         133.00       579.35
  382.60        3347.00           6819          68.00       295.99
  382.63        3347.25           6823          48.00       208.81
  382.66        3347.50           6827          47.00       204.45
  382.69        3347.75           6831          50.00       217.53
  382.71        3348.00           6834          43.00       187.01
  382.74        3348.25           6838          45.00       195.73
  382.77        3348.50           6842          38.00       165.21
  382.80        3348.75           6846          51.00       221.88
  382.82        3349.00           6849          43.00       187.01
  382.85        3349.25           6853          43.00       187.01
  382.88        3349.50           6857          42.00       182.65
  382.90        3349.75           6861          39.00       169.57
  382.93        3350.00           6864          47.00       204.45
  382.96        3350.25           6868          41.00       178.29
  382.99        3350.50           6872          38.00       165.21
  383.02        3350.75           6876          38.00       165.21
  383.05        3351.00           6879          38.00       165.21
HL scan finished at 06:24:32
end
