************************************************************
  HL Scan of (1) Internal mercury lamp
************************************************************
Integration time is 0.2294 seconds per sample
dh250119NARL 13.459-79.1756 3.126073pr1000
************************************************************
Dead Time -------------------------  2.8E-08 
Number of Cycles Used -------------  4 
Starting Wavelength (Angstroms) ---  3331 
Final Wavelength (Angstoms) -------  3351 
Wavelength Increment (Angstroms) --  .25 
Filter Wheel #1 Position ---------- (1) Ground quartz diffuser (ND=2.32)
Filter Wheel #2 Position ---------- 



************************************************************
HL scan start time = 01:03:57
Dark Count =  .1 


Time (GMT)  Wavelength (Ang)  Step Number  Raw Counts  Counts/Second

   64.71        3331.00           6582          49.00       213.17
   65.12        3331.25           6586          46.00       200.09
   65.15        3331.50           6589          49.00       213.17
   65.18        3331.75           6593          50.00       217.53
   65.21        3332.00           6597          48.00       208.81
   65.24        3332.25           6601          50.00       217.53
   65.27        3332.50           6604          53.00       230.60
   65.30        3332.75           6608          60.00       261.12
   65.32        3333.00           6612          47.00       204.45
   65.35        3333.25           6616          54.00       234.96
   65.38        3333.50           6619          54.00       234.96
   65.41        3333.75           6623          49.00       213.17
   65.44        3334.00           6627          52.00       226.24
   65.47        3334.25           6631          56.00       243.68
   65.50        3334.50           6634          57.00       248.04
   65.53        3334.75           6638          63.00       274.20
   65.55        3335.00           6642          62.00       269.84
   65.58        3335.25           6645          70.00       304.71
   65.61        3335.50           6649          80.00       348.30
   65.64        3335.75           6653          91.00       396.26
   65.67        3336.00           6657         125.00       544.47
   65.70        3336.25           6660         749.00      3264.90
   65.73        3336.50           6664        3311.00     14438.70
   65.75        3336.75           6668        5954.00     25973.11
   65.78        3337.00           6672        8717.00     38039.19
   65.81        3337.25           6675       10850.00     47359.62
   65.84        3337.50           6679       13727.00     59938.79
   65.87        3337.75           6683       16275.00     71086.88
   65.90        3338.00           6687       18870.00     82447.75
   65.93        3338.25           6690       20915.00     91405.84
   65.96        3338.50           6694       23616.00    103244.40
   65.99        3338.75           6698       26782.00    117131.10
   66.01        3339.00           6702       29873.00    130699.30
   66.04        3339.25           6705       31667.00    138579.00
   66.07        3339.50           6709       34486.00    150967.70
   66.10        3339.75           6713       37002.00    162032.10
   66.13        3340.00           6717       39882.00    174705.60
   66.16        3340.25           6720       41879.00    183498.80
   66.19        3340.50           6724       43894.00    192375.60
   66.22        3340.75           6728       46679.00    204651.90
   66.25        3341.00           6732       48720.00    213654.00
   66.27        3341.25           6735       48981.00    214805.50
   66.30        3341.50           6739       49217.00    215846.80
   66.33        3341.75           6743       48658.00    213380.50
   66.36        3342.00           6747       46219.00    202623.70
   66.39        3342.25           6750       43989.00    192794.30
   66.42        3342.50           6754       41106.00    180094.60
   66.45        3342.75           6758       38666.00    169353.50
   66.48        3343.00           6762       36287.00    158887.10
   66.51        3343.25           6765       34176.00    149604.90
   66.53        3343.50           6769       31463.00    137682.80
   66.56        3343.75           6773       28239.00    123525.50
   66.59        3344.00           6777       25643.00    112134.00
   66.62        3344.25           6780       23383.00    102222.90
   66.65        3344.50           6784       20606.00     90051.98
   66.68        3344.75           6788       17940.00     78375.38
   66.71        3345.00           6792       14964.00     65350.08
   66.74        3345.25           6795       12834.00     56033.35
   66.76        3345.50           6799       10415.00     45458.44
   66.79        3345.75           6803        7782.00     33955.11
   66.82        3346.00           6807        4603.00     20076.24
   66.85        3346.25           6810        2435.00     10617.37
   66.88        3346.50           6814         476.00      2074.66
   66.91        3346.75           6818         124.00       540.11
   66.94        3347.00           6822          88.00       383.18
   66.97        3347.25           6826          77.00       335.23
   66.99        3347.50           6829          77.00       335.23
   67.02        3347.75           6833          79.00       343.94
   67.05        3348.00           6837          57.00       248.04
   67.08        3348.25           6841          66.00       287.27
   67.11        3348.50           6844          60.00       261.12
   67.14        3348.75           6848          60.00       261.12
   67.17        3349.00           6852          48.00       208.81
   67.20        3349.25           6856          50.00       217.53
   67.22        3349.50           6859          52.00       226.24
   67.25        3349.75           6863          49.00       213.17
   67.28        3350.00           6867          55.00       239.32
   67.31        3350.25           6871          52.00       226.24
   67.34        3350.50           6874          53.00       230.60
   67.37        3350.75           6878          52.00       226.24
   67.39        3351.00           6882          57.00       248.04
HL scan finished at 01:08:52
end
