************************************************************
  HL Scan of (1) Internal mercury lamp
************************************************************
Integration time is 0.2294 seconds per sample
dh230117DelftKZ 51.997-4.386 2.160408pr1000
************************************************************
Dead Time -------------------------  3E-08 
Number of Cycles Used -------------  4 
Starting Wavelength (Angstroms) ---  3331 
Final Wavelength (Angstoms) -------  3351 
Wavelength Increment (Angstroms) --  .25 
Filter Wheel #1 Position ---------- (1) Ground quartz diffuser (ND=2.32)
Filter Wheel #2 Position ---------- 



************************************************************
HL scan start time = 06:18:52
Dark Count =  0 


Time (GMT)  Wavelength (Ang)  Step Number  Raw Counts  Counts/Second

  379.63        3331.00           6581          39.00       170.01
  380.04        3331.25           6584          42.00       183.09
  380.07        3331.50           6588          43.00       187.45
  380.09        3331.75           6592          42.00       183.09
  380.12        3332.00           6595          48.00       209.24
  380.15        3332.25           6599          35.00       152.57
  380.18        3332.50           6603          47.00       204.88
  380.20        3332.75           6607          38.00       165.65
  380.24        3333.00           6610          47.00       204.88
  380.27        3333.25           6614          40.00       174.37
  380.30        3333.50           6618          40.00       174.37
  380.33        3333.75           6622          36.00       156.93
  380.35        3334.00           6625          43.00       187.45
  380.38        3334.25           6629          43.00       187.45
  380.41        3334.50           6633          47.00       204.88
  380.44        3334.75           6636          46.00       200.52
  380.46        3335.00           6640          45.00       196.17
  380.49        3335.25           6644          44.00       191.81
  380.52        3335.50           6648          52.00       226.68
  380.55        3335.75           6651          51.00       222.32
  380.57        3336.00           6655          60.00       261.55
  380.60        3336.25           6659         202.00       880.58
  380.63        3336.50           6663         814.00      3548.77
  380.66        3336.75           6666        1504.00      6557.52
  380.68        3337.00           6670        2655.00     11577.69
  380.71        3337.25           6674        3707.00     16167.39
  380.74        3337.50           6677        4502.00     19636.67
  380.78        3337.75           6681        5537.00     24154.38
  380.81        3338.00           6685        6544.00     28551.04
  380.83        3338.25           6689        7595.00     33141.04
  380.86        3338.50           6692        8453.00     36889.11
  380.89        3338.75           6696        9443.00     41214.83
  380.92        3339.00           6700       10471.00     45707.80
  380.95        3339.25           6704       11534.00     50355.00
  380.97        3339.50           6707       12144.00     53022.38
  381.00        3339.75           6711       13365.00     58362.78
  381.03        3340.00           6715       14441.00     63070.40
  381.06        3340.25           6719       15422.00     67363.56
  381.08        3340.50           6722       16110.00     70375.10
  381.11        3340.75           6726       17285.00     75519.65
  381.14        3341.00           6730       18106.00     79115.20
  381.17        3341.25           6733       18300.00     79964.93
  381.20        3341.50           6737       18516.00     80911.08
  381.22        3341.75           6741       18466.00     80692.05
  381.25        3342.00           6745       18006.00     78677.21
  381.28        3342.25           6748       17025.00     74381.15
  381.31        3342.50           6752       16105.00     70353.22
  381.33        3342.75           6756       15081.00     65871.10
  381.36        3343.00           6760       14223.00     62116.53
  381.39        3343.25           6763       13354.00     58314.66
  381.42        3343.50           6767       12310.00     53748.32
  381.45        3343.75           6771       11454.00     50005.22
  381.47        3344.00           6775       10377.00     45296.91
  381.50        3344.25           6778        9548.00     41673.69
  381.53        3344.50           6782        8329.00     36347.38
  381.56        3344.75           6786        7177.00     31315.37
  381.58        3345.00           6790        6194.00     27022.77
  381.61        3345.25           6793        5299.00     23115.42
  381.64        3345.50           6797        4235.00     18471.44
  381.67        3345.75           6801        3104.00     13536.45
  381.70        3346.00           6805        2104.00      9174.28
  381.72        3346.25           6808        1436.00      6260.98
  381.75        3346.50           6812         558.00      2432.61
  381.78        3346.75           6816         127.00       553.63
  381.81        3347.00           6819          63.00       274.63
  381.83        3347.25           6823          48.00       209.24
  381.86        3347.50           6827          53.00       231.04
  381.89        3347.75           6831          45.00       196.17
  381.92        3348.00           6834          42.00       183.09
  381.94        3348.25           6838          37.00       161.29
  381.97        3348.50           6842          44.00       191.81
  382.00        3348.75           6846          43.00       187.45
  382.03        3349.00           6849          35.00       152.57
  382.06        3349.25           6853          37.00       161.29
  382.09        3349.50           6857          41.00       178.73
  382.11        3349.75           6861          39.00       170.01
  382.14        3350.00           6864          30.00       130.78
  382.17        3350.25           6868          40.00       174.37
  382.20        3350.50           6872          43.00       187.45
  382.23        3350.75           6876          40.00       174.37
  382.26        3351.00           6879          43.00       187.45
HL scan finished at 06:23:45
end
