************************************************************
  HL Scan of (1) Internal mercury lamp
************************************************************
Integration time is 0.2294 seconds per sample
dh050217DelftKZ 51.997-4.386 2.321352pr1000
************************************************************
Dead Time -------------------------  3E-08 
Number of Cycles Used -------------  4 
Starting Wavelength (Angstroms) ---  3331 
Final Wavelength (Angstoms) -------  3351 
Wavelength Increment (Angstroms) --  .25 
Filter Wheel #1 Position ---------- (1) Ground quartz diffuser (ND=2.32)
Filter Wheel #2 Position ---------- 



************************************************************
HL scan start time = 06:03:25
Dark Count =  0 


Time (GMT)  Wavelength (Ang)  Step Number  Raw Counts  Counts/Second

  364.18        3331.00           6581          45.00       196.17
  364.59        3331.25           6584          41.00       178.73
  364.61        3331.50           6588          43.00       187.45
  364.64        3331.75           6592          43.00       187.45
  364.67        3332.00           6595          34.00       148.21
  364.69        3332.25           6599          46.00       200.52
  364.72        3332.50           6603          37.00       161.29
  364.75        3332.75           6607          42.00       183.09
  364.78        3333.00           6610          40.00       174.37
  364.80        3333.25           6614          39.00       170.01
  364.83        3333.50           6618          45.00       196.17
  364.86        3333.75           6622          45.00       196.17
  364.89        3334.00           6625          47.00       204.88
  364.91        3334.25           6629          44.00       191.81
  364.94        3334.50           6633          46.00       200.52
  364.97        3334.75           6636          50.00       217.96
  365.00        3335.00           6640          43.00       187.45
  365.02        3335.25           6644          51.00       222.32
  365.05        3335.50           6648          53.00       231.04
  365.08        3335.75           6651          57.00       248.48
  365.11        3336.00           6655          79.00       344.38
  365.13        3336.25           6659         389.00      1695.81
  365.16        3336.50           6663        1357.00      5916.48
  365.19        3336.75           6666        2110.00      9200.45
  365.21        3337.00           6670        3237.00     14116.70
  365.24        3337.25           6674        4479.00     19536.30
  365.27        3337.50           6677        5740.00     25040.60
  365.30        3337.75           6681        6886.00     30044.51
  365.33        3338.00           6685        8125.00     35456.18
  365.35        3338.25           6689        9234.00     40301.53
  365.38        3338.50           6692       10272.00     44837.96
  365.41        3338.75           6696       11659.00     50901.57
  365.44        3339.00           6700       12766.00     55742.67
  365.46        3339.25           6704       13953.00     60935.19
  365.49        3339.50           6707       14903.00     65092.12
  365.52        3339.75           6711       16189.00     70720.94
  365.55        3340.00           6715       17403.00     76036.38
  365.57        3340.25           6719       18615.00     81344.74
  365.60        3340.50           6722       19484.00     85151.87
  365.63        3340.75           6726       20835.00     91072.38
  365.66        3341.00           6730       22037.00     96341.69
  365.68        3341.25           6733       22085.00     96552.15
  365.71        3341.50           6737       22112.00     96670.53
  365.74        3341.75           6741       22040.00     96354.86
  365.77        3342.00           6745       21418.00     93627.91
  365.79        3342.25           6748       20511.00     89652.31
  365.82        3342.50           6752       18913.00     82650.19
  365.85        3342.75           6756       17872.00     78090.31
  365.88        3343.00           6760       16547.00     72288.25
  365.90        3343.25           6763       15831.00     69153.78
  365.93        3343.50           6767       14650.00     63984.96
  365.96        3343.75           6771       13252.00     57868.48
  365.99        3344.00           6775       12028.00     52515.10
  366.02        3344.25           6778       11165.00     48741.67
  366.05        3344.50           6782        9814.00     42836.18
  366.08        3344.75           6786        8451.00     36880.36
  366.11        3345.00           6790        7212.00     31468.23
  366.14        3345.25           6793        6118.00     26690.94
  366.16        3345.50           6797        4829.00     21063.87
  366.19        3345.75           6801        3631.00     15835.77
  366.22        3346.00           6805        2292.00      9994.28
  366.24        3346.25           6808        1356.00      5912.12
  366.27        3346.50           6812         456.00      1987.91
  366.30        3346.75           6816         109.00       475.16
  366.33        3347.00           6819          66.00       287.71
  366.35        3347.25           6823          62.00       270.27
  366.38        3347.50           6827          55.00       239.76
  366.41        3347.75           6831          49.00       213.60
  366.44        3348.00           6834          48.00       209.24
  366.46        3348.25           6838          44.00       191.81
  366.49        3348.50           6842          45.00       196.17
  366.52        3348.75           6846          46.00       200.52
  366.55        3349.00           6849          41.00       178.73
  366.57        3349.25           6853          50.00       217.96
  366.60        3349.50           6857          41.00       178.73
  366.63        3349.75           6861          43.00       187.45
  366.66        3350.00           6864          39.00       170.01
  366.68        3350.25           6868          46.00       200.52
  366.71        3350.50           6872          39.00       170.01
  366.74        3350.75           6876          45.00       196.17
  366.77        3351.00           6879          44.00       191.81
HL scan finished at 06:08:15
end
