************************************************************
  HL Scan of (1) Internal mercury lamp
************************************************************
Integration time is 0.2294 seconds per sample
dh080217DelftKZ 51.997-4.386 2.160408pr1000
************************************************************
Dead Time -------------------------  3E-08 
Number of Cycles Used -------------  4 
Starting Wavelength (Angstroms) ---  3331 
Final Wavelength (Angstoms) -------  3351 
Wavelength Increment (Angstroms) --  .25 
Filter Wheel #1 Position ---------- (1) Ground quartz diffuser (ND=2.32)
Filter Wheel #2 Position ---------- 



************************************************************
HL scan start time = 05:59:29
Dark Count =  0 


Time (GMT)  Wavelength (Ang)  Step Number  Raw Counts  Counts/Second

  360.24        3331.00           6581          35.00       152.57
  360.65        3331.25           6584          38.00       165.65
  360.68        3331.50           6588          36.00       156.93
  360.71        3331.75           6592          38.00       165.65
  360.73        3332.00           6595          40.00       174.37
  360.76        3332.25           6599          42.00       183.09
  360.79        3332.50           6603          40.00       174.37
  360.82        3332.75           6607          39.00       170.01
  360.84        3333.00           6610          42.00       183.09
  360.87        3333.25           6614          43.00       187.45
  360.90        3333.50           6618          42.00       183.09
  360.93        3333.75           6622          40.00       174.37
  360.95        3334.00           6625          39.00       170.01
  360.98        3334.25           6629          43.00       187.45
  361.01        3334.50           6633          40.00       174.37
  361.04        3334.75           6636          46.00       200.52
  361.07        3335.00           6640          46.00       200.52
  361.09        3335.25           6644          46.00       200.52
  361.12        3335.50           6648          50.00       217.96
  361.15        3335.75           6651          56.00       244.12
  361.18        3336.00           6655          67.00       292.07
  361.20        3336.25           6659         252.00      1098.55
  361.23        3336.50           6663         915.00      3989.14
  361.27        3336.75           6666        1633.00      7120.09
  361.30        3337.00           6670        2571.00     11211.27
  361.33        3337.25           6674        3720.00     16224.11
  361.35        3337.50           6677        4637.00     20225.87
  361.38        3337.75           6681        5695.00     24844.15
  361.41        3338.00           6685        6781.00     29585.97
  361.44        3338.25           6689        7765.00     33883.60
  361.47        3338.50           6692        8650.00     37749.79
  361.49        3338.75           6696        9659.00     42158.78
  361.52        3339.00           6700       10730.00     46839.97
  361.55        3339.25           6704       11957.00     52204.63
  361.58        3339.50           6707       12549.00     54793.58
  361.61        3339.75           6711       13723.00     59928.92
  361.63        3340.00           6715       14918.00     65157.76
  361.66        3340.25           6719       16112.00     70383.85
  361.69        3340.50           6722       16659.00     72778.61
  361.72        3340.75           6726       17720.00     77424.62
  361.74        3341.00           6730       18747.00     81922.98
  361.77        3341.25           6733       19137.00     83631.53
  361.80        3341.50           6737       19115.00     83535.16
  361.83        3341.75           6741       19098.00     83460.68
  361.86        3342.00           6745       18647.00     81484.91
  361.89        3342.25           6748       17864.00     78055.28
  361.91        3342.50           6752       16805.00     73417.85
  361.94        3342.75           6756       15680.00     68492.81
  361.97        3343.00           6760       14583.00     63691.77
  362.00        3343.25           6763       13874.00     60589.55
  362.03        3343.50           6767       12860.00     56153.80
  362.05        3343.75           6771       11731.00     51216.39
  362.08        3344.00           6775       10550.00     46053.13
  362.11        3344.25           6778        9912.00     43264.49
  362.14        3344.50           6782        8772.00     38282.83
  362.16        3344.75           6786        7583.00     33088.63
  362.19        3345.00           6790        6378.00     27826.19
  362.22        3345.25           6793        5524.00     24097.63
  362.25        3345.50           6797        4352.00     18982.04
  362.28        3345.75           6801        3294.00     14365.39
  362.30        3346.00           6805        2221.00      9684.59
  362.33        3346.25           6808        1376.00      5999.34
  362.36        3346.50           6812         508.00      2214.62
  362.39        3346.75           6816         135.00       588.50
  362.41        3347.00           6819          62.00       270.27
  362.44        3347.25           6823          51.00       222.32
  362.47        3347.50           6827          46.00       200.52
  362.50        3347.75           6831          48.00       209.24
  362.53        3348.00           6834          47.00       204.88
  362.55        3348.25           6838          46.00       200.52
  362.58        3348.50           6842          42.00       183.09
  362.61        3348.75           6846          43.00       187.45
  362.64        3349.00           6849          42.00       183.09
  362.66        3349.25           6853          43.00       187.45
  362.69        3349.50           6857          36.00       156.93
  362.72        3349.75           6861          41.00       178.73
  362.75        3350.00           6864          38.00       165.65
  362.77        3350.25           6868          32.00       139.49
  362.80        3350.50           6872          44.00       191.81
  362.83        3350.75           6876          41.00       178.73
  362.86        3351.00           6879          49.00       213.60
HL scan finished at 06:04:20
end
