************************************************************
  HL Scan of (1) Internal mercury lamp
************************************************************
Integration time is 0.2294 seconds per sample
dh040217DelftKZ 51.997-4.386 2.267704pr1000
************************************************************
Dead Time -------------------------  3E-08 
Number of Cycles Used -------------  4 
Starting Wavelength (Angstroms) ---  3331 
Final Wavelength (Angstoms) -------  3351 
Wavelength Increment (Angstroms) --  .25 
Filter Wheel #1 Position ---------- (1) Ground quartz diffuser (ND=2.32)
Filter Wheel #2 Position ---------- 



************************************************************
HL scan start time = 06:05:14
Dark Count =  .1 


Time (GMT)  Wavelength (Ang)  Step Number  Raw Counts  Counts/Second

  366.00        3331.00           6581          38.00       165.21
  366.40        3331.25           6584          42.00       182.65
  366.43        3331.50           6588          36.00       156.50
  366.46        3331.75           6592          43.00       187.01
  366.49        3332.00           6595          37.00       160.86
  366.52        3332.25           6599          41.00       178.29
  366.54        3332.50           6603          41.00       178.29
  366.57        3332.75           6607          40.00       173.93
  366.60        3333.00           6610          39.00       169.57
  366.62        3333.25           6614          37.00       160.86
  366.65        3333.50           6618          44.00       191.37
  366.68        3333.75           6622          44.00       191.37
  366.71        3334.00           6625          41.00       178.29
  366.74        3334.25           6629          39.00       169.57
  366.76        3334.50           6633          39.00       169.57
  366.79        3334.75           6636          41.00       178.29
  366.82        3335.00           6640          46.00       200.09
  366.85        3335.25           6644          49.00       213.17
  366.87        3335.50           6648          48.00       208.81
  366.90        3335.75           6651          51.00       221.88
  366.93        3336.00           6655          59.00       256.76
  366.96        3336.25           6659         185.00       806.04
  366.98        3336.50           6663        1003.00      4372.41
  367.01        3336.75           6666        1907.00      8314.63
  367.04        3337.00           6670        3137.00     13679.98
  367.07        3337.25           6674        4220.00     18405.54
  367.09        3337.50           6677        5127.00     22364.17
  367.12        3337.75           6681        6323.00     27585.60
  367.15        3338.00           6685        7505.00     32747.50
  367.18        3338.25           6689        8622.00     37627.02
  367.21        3338.50           6692        9432.00     41166.33
  367.23        3338.75           6696       10366.00     45248.40
  367.26        3339.00           6700       11517.00     50280.24
  367.29        3339.25           6704       12828.00     56013.41
  367.32        3339.50           6707       13826.00     60379.11
  367.35        3339.75           6711       14737.00     64365.24
  367.38        3340.00           6715       15749.00     68794.41
  367.41        3340.25           6719       16766.00     73246.66
  367.43        3340.50           6722       17654.00     77135.13
  367.46        3340.75           6726       18903.00     82605.94
  367.49        3341.00           6730       19802.00     86544.81
  367.52        3341.25           6733       20075.00     87741.12
  367.54        3341.50           6737       20190.00     88245.08
  367.57        3341.75           6741       19975.00     87302.90
  367.60        3342.00           6745       19289.00     84297.05
  367.63        3342.25           6748       18407.00     80433.18
  367.66        3342.50           6752       17359.00     75843.25
  367.68        3342.75           6756       16197.00     70755.53
  367.71        3343.00           6760       14997.00     65503.06
  367.74        3343.25           6763       14208.00     62050.45
  367.78        3343.50           6767       13100.00     57203.14
  367.81        3343.75           6771       12136.00     52986.96
  367.83        3344.00           6775       10970.00     47888.72
  367.86        3344.25           6778       10033.00     43792.90
  367.89        3344.50           6782        8717.00     38042.09
  367.92        3344.75           6786        7616.00     33232.33
  367.94        3345.00           6790        6526.00     28472.00
  367.97        3345.25           6793        5741.00     25044.53
  368.00        3345.50           6797        4508.00     19662.42
  368.03        3345.75           6801        3416.00     14897.24
  368.06        3346.00           6805        2407.00     10495.46
  368.08        3346.25           6808        1617.00      7049.88
  368.11        3346.50           6812         603.00      2628.37
  368.14        3346.75           6816         103.00       448.57
  368.17        3347.00           6819          50.00       217.53
  368.19        3347.25           6823          53.00       230.60
  368.22        3347.50           6827          43.00       187.01
  368.25        3347.75           6831          38.00       165.21
  368.28        3348.00           6834          49.00       213.17
  368.30        3348.25           6838          41.00       178.29
  368.33        3348.50           6842          41.00       178.29
  368.36        3348.75           6846          45.00       195.73
  368.39        3349.00           6849          43.00       187.01
  368.41        3349.25           6853          43.00       187.01
  368.44        3349.50           6857          48.00       208.81
  368.47        3349.75           6861          38.00       165.21
  368.50        3350.00           6864          44.00       191.37
  368.52        3350.25           6868          46.00       200.09
  368.55        3350.50           6872          43.00       187.01
  368.58        3350.75           6876          44.00       191.37
  368.61        3351.00           6879          38.00       165.21
HL scan finished at 06:10:05
end
