************************************************************
  HL Scan of (1) Internal mercury lamp
************************************************************
Integration time is 0.2294 seconds per sample
dh070217DelftKZ 51.997-4.386 2.214056pr1000
************************************************************
Dead Time -------------------------  3E-08 
Number of Cycles Used -------------  4 
Starting Wavelength (Angstroms) ---  3331 
Final Wavelength (Angstoms) -------  3351 
Wavelength Increment (Angstroms) --  .25 
Filter Wheel #1 Position ---------- (1) Ground quartz diffuser (ND=2.32)
Filter Wheel #2 Position ---------- 



************************************************************
HL scan start time = 06:00:59
Dark Count =  0 


Time (GMT)  Wavelength (Ang)  Step Number  Raw Counts  Counts/Second

  361.74        3331.00           6581          41.00       178.73
  362.15        3331.25           6584          47.00       204.88
  362.17        3331.50           6588          50.00       217.96
  362.20        3331.75           6592          31.00       135.14
  362.23        3332.00           6595          41.00       178.73
  362.26        3332.25           6599          44.00       191.81
  362.28        3332.50           6603          45.00       196.17
  362.31        3332.75           6607          43.00       187.45
  362.34        3333.00           6610          40.00       174.37
  362.37        3333.25           6614          50.00       217.96
  362.40        3333.50           6618          43.00       187.45
  362.42        3333.75           6622          41.00       178.73
  362.45        3334.00           6625          35.00       152.57
  362.48        3334.25           6629          36.00       156.93
  362.51        3334.50           6633          47.00       204.88
  362.53        3334.75           6636          44.00       191.81
  362.56        3335.00           6640          48.00       209.24
  362.59        3335.25           6644          46.00       200.52
  362.62        3335.50           6648          48.00       209.24
  362.64        3335.75           6651          55.00       239.76
  362.67        3336.00           6655          53.00       231.04
  362.70        3336.25           6659         128.00       557.99
  362.73        3336.50           6663         797.00      3474.64
  362.75        3336.75           6666        1544.00      6731.96
  362.78        3337.00           6670        2689.00     11726.01
  362.81        3337.25           6674        3894.00     16983.37
  362.84        3337.50           6677        4770.00     20806.36
  362.86        3337.75           6681        5902.00     25747.87
  362.89        3338.00           6685        7131.00     31114.47
  362.92        3338.25           6689        8134.00     35495.49
  362.95        3338.50           6692        8888.00     38789.66
  362.98        3338.75           6696        9844.00     42967.30
  363.00        3339.00           6700       10918.00     47661.83
  363.03        3339.25           6704       12033.00     52536.97
  363.06        3339.50           6707       12940.00     56503.73
  363.09        3339.75           6711       14084.00     61508.34
  363.11        3340.00           6715       15131.00     66089.93
  363.14        3340.25           6719       16081.00     70248.16
  363.17        3340.50           6722       16853.00     73628.02
  363.20        3340.75           6726       17989.00     78602.75
  363.23        3341.00           6730       18969.00     82895.52
  363.25        3341.25           6733       19158.00     83723.54
  363.28        3341.50           6737       19193.00     83876.88
  363.31        3341.75           6741       19201.00     83911.94
  363.34        3342.00           6745       18639.00     81449.88
  363.36        3342.25           6748       17945.00     78410.03
  363.39        3342.50           6752       16733.00     73102.60
  363.42        3342.75           6756       15662.00     68414.03
  363.45        3343.00           6760       14562.00     63599.88
  363.48        3343.25           6763       13755.00     60068.92
  363.50        3343.50           6767       12768.00     55751.41
  363.53        3343.75           6771       11867.00     51811.07
  363.56        3344.00           6775       10866.00     47434.50
  363.59        3344.25           6778        9837.00     42936.70
  363.62        3344.50           6782        8735.00     38121.17
  363.65        3344.75           6786        7550.00     32944.49
  363.67        3345.00           6790        6290.00     27441.94
  363.70        3345.25           6793        5636.00     24586.57
  363.73        3345.50           6797        4541.00     19806.89
  363.76        3345.75           6801        3465.00     15111.47
  363.79        3346.00           6805        2426.00     10578.77
  363.81        3346.25           6808        1637.00      7137.54
  363.84        3346.50           6812         742.00      3234.84
  363.87        3346.75           6816         142.00       619.02
  363.90        3347.00           6819          64.00       278.99
  363.92        3347.25           6823          51.00       222.32
  363.95        3347.50           6827          43.00       187.45
  363.98        3347.75           6831          48.00       209.24
  364.01        3348.00           6834          47.00       204.88
  364.03        3348.25           6838          46.00       200.52
  364.06        3348.50           6842          44.00       191.81
  364.09        3348.75           6846          41.00       178.73
  364.12        3349.00           6849          40.00       174.37
  364.14        3349.25           6853          44.00       191.81
  364.17        3349.50           6857          43.00       187.45
  364.20        3349.75           6861          43.00       187.45
  364.23        3350.00           6864          37.00       161.29
  364.26        3350.25           6868          45.00       196.17
  364.28        3350.50           6872          36.00       156.93
  364.31        3350.75           6876          42.00       183.09
  364.34        3351.00           6879          35.00       152.57
HL scan finished at 06:05:49
end
