************************************************************
  HL Scan of (1) Internal mercury lamp
************************************************************
Integration time is 0.2294 seconds per sample
dh030217DelftKZ 51.997-4.386 2.535944pr1000
************************************************************
Dead Time -------------------------  3E-08 
Number of Cycles Used -------------  4 
Starting Wavelength (Angstroms) ---  3331 
Final Wavelength (Angstoms) -------  3351 
Wavelength Increment (Angstroms) --  .25 
Filter Wheel #1 Position ---------- (1) Ground quartz diffuser (ND=2.32)
Filter Wheel #2 Position ---------- 



************************************************************
HL scan start time = 06:06:39
Dark Count =  0 


Time (GMT)  Wavelength (Ang)  Step Number  Raw Counts  Counts/Second

  367.41        3331.00           6581          45.00       196.17
  367.82        3331.25           6584          50.00       217.96
  367.85        3331.50           6588          50.00       217.96
  367.88        3331.75           6592          50.00       217.96
  367.90        3332.00           6595          50.00       217.96
  367.93        3332.25           6599          46.00       200.52
  367.96        3332.50           6603          43.00       187.45
  367.99        3332.75           6607          43.00       187.45
  368.01        3333.00           6610          50.00       217.96
  368.04        3333.25           6614          43.00       187.45
  368.07        3333.50           6618          46.00       200.52
  368.10        3333.75           6622          44.00       191.81
  368.13        3334.00           6625          47.00       204.88
  368.16        3334.25           6629          53.00       231.04
  368.19        3334.50           6633          48.00       209.24
  368.21        3334.75           6636          55.00       239.76
  368.24        3335.00           6640          51.00       222.32
  368.27        3335.25           6644          52.00       226.68
  368.30        3335.50           6648          56.00       244.12
  368.32        3335.75           6651          60.00       261.55
  368.35        3336.00           6655          73.00       318.22
  368.38        3336.25           6659         210.00       915.46
  368.41        3336.50           6663        1251.00      5454.25
  368.43        3336.75           6666        2119.00      9239.70
  368.46        3337.00           6670        3622.00     15796.50
  368.49        3337.25           6674        5155.00     22486.83
  368.52        3337.50           6677        6377.00     27821.82
  368.55        3337.75           6681        8072.00     35224.65
  368.58        3338.00           6685        9767.00     42630.77
  368.61        3338.25           6689       11256.00     49139.52
  368.64        3338.50           6692       12515.00     54644.87
  368.66        3338.75           6696       13949.00     60917.68
  368.69        3339.00           6700       15590.00     68098.88
  368.72        3339.25           6704       16892.00     73798.78
  368.75        3339.50           6707       17988.00     78598.37
  368.77        3339.75           6711       19534.00     85370.94
  368.80        3340.00           6715       21112.00     92286.55
  368.83        3340.25           6719       22627.00     98928.74
  368.86        3340.50           6722       23719.00    103718.00
  368.89        3340.75           6726       25317.00    110729.00
  368.91        3341.00           6730       26534.00    116070.40
  368.94        3341.25           6733       27005.00    118138.10
  368.97        3341.50           6737       27147.00    118761.50
  369.00        3341.75           6741       26977.00    118015.20
  369.02        3342.00           6745       26404.00    115499.80
  369.05        3342.25           6748       25466.00    111382.90
  369.08        3342.50           6752       23798.00    104064.60
  369.11        3342.75           6756       22279.00     97402.78
  369.14        3343.00           6760       20522.00     89700.52
  369.16        3343.25           6763       19596.00     85642.59
  369.19        3343.50           6767       18055.00     78891.81
  369.22        3343.75           6771       16436.00     71802.28
  369.25        3344.00           6775       14895.00     65057.10
  369.28        3344.25           6778       13813.00     60322.67
  369.31        3344.50           6782       12394.00     54115.69
  369.33        3344.75           6786       10733.00     46853.08
  369.36        3345.00           6790        9258.00     40406.41
  369.39        3345.25           6793        7884.00     34403.41
  369.42        3345.50           6797        6313.00     27542.37
  369.44        3345.75           6801        4800.00     20937.30
  369.47        3346.00           6805        3421.00     14919.49
  369.50        3346.25           6808        2269.00      9893.96
  369.53        3346.50           6812         819.00      3570.57
  369.56        3346.75           6816         188.00       819.55
  369.58        3347.00           6819          79.00       344.38
  369.61        3347.25           6823          56.00       244.12
  369.64        3347.50           6827          55.00       239.76
  369.67        3347.75           6831          65.00       283.35
  369.69        3348.00           6834          56.00       244.12
  369.72        3348.25           6838          56.00       244.12
  369.75        3348.50           6842          46.00       200.52
  369.78        3348.75           6846          51.00       222.32
  369.80        3349.00           6849          44.00       191.81
  369.83        3349.25           6853          51.00       222.32
  369.86        3349.50           6857          44.00       191.81
  369.89        3349.75           6861          40.00       174.37
  369.91        3350.00           6864          45.00       196.17
  369.94        3350.25           6868          46.00       200.52
  369.97        3350.50           6872          43.00       187.45
  370.00        3350.75           6876          47.00       204.88
  370.03        3351.00           6879          48.00       209.24
HL scan finished at 06:11:30
end
