************************************************************
  HL Scan of (1) Internal mercury lamp
************************************************************
Integration time is 0.2294 seconds per sample
dh310117DelftKZ 51.997-4.386 2.267704pr1000
************************************************************
Dead Time -------------------------  3E-08 
Number of Cycles Used -------------  4 
Starting Wavelength (Angstroms) ---  3331 
Final Wavelength (Angstoms) -------  3351 
Wavelength Increment (Angstroms) --  .25 
Filter Wheel #1 Position ---------- (1) Ground quartz diffuser (ND=2.32)
Filter Wheel #2 Position ---------- 



************************************************************
HL scan start time = 06:10:39
Dark Count =  .2 


Time (GMT)  Wavelength (Ang)  Step Number  Raw Counts  Counts/Second

  371.40        3331.00           6581          37.00       160.42
  371.81        3331.25           6584          37.00       160.42
  371.84        3331.50           6588          38.00       164.78
  371.87        3331.75           6592          41.00       177.86
  371.89        3332.00           6595          38.00       164.78
  371.92        3332.25           6599          46.00       199.65
  371.95        3332.50           6603          42.00       182.22
  371.98        3332.75           6607          43.00       186.57
  372.01        3333.00           6610          38.00       164.78
  372.04        3333.25           6614          41.00       177.86
  372.07        3333.50           6618          44.00       190.93
  372.10        3333.75           6622          43.00       186.57
  372.13        3334.00           6625          42.00       182.22
  372.15        3334.25           6629          46.00       199.65
  372.18        3334.50           6633          45.00       195.29
  372.21        3334.75           6636          45.00       195.29
  372.24        3335.00           6640          44.00       190.93
  372.27        3335.25           6644          45.00       195.29
  372.30        3335.50           6648          55.00       238.89
  372.32        3335.75           6651          55.00       238.89
  372.35        3336.00           6655          71.00       308.63
  372.38        3336.25           6659         320.00      1394.13
  372.41        3336.50           6663        1338.00      5832.76
  372.44        3336.75           6666        2107.00      9186.49
  372.46        3337.00           6670        3273.00     14272.89
  372.49        3337.25           6674        4276.00     18649.49
  372.52        3337.50           6677        5207.00     22712.94
  372.55        3337.75           6681        6300.00     27484.73
  372.57        3338.00           6685        7433.00     32432.59
  372.60        3338.25           6689        8408.00     36691.63
  372.63        3338.50           6692        9375.00     40916.80
  372.66        3338.75           6696       10617.00     46345.13
  372.69        3339.00           6700       11844.00     51709.62
  372.71        3339.25           6704       12976.00     56660.32
  372.74        3339.50           6707       13610.00     59433.69
  372.77        3339.75           6711       14826.00     64754.27
  372.80        3340.00           6715       15909.00     69494.35
  372.82        3340.25           6719       16982.00     74191.99
  372.85        3340.50           6722       17585.00     76832.52
  372.88        3340.75           6726       18842.00     82338.28
  372.91        3341.00           6730       19946.00     87175.38
  372.94        3341.25           6733       19872.00     86851.11
  372.96        3341.50           6737       20032.00     87552.24
  372.99        3341.75           6741       20008.00     87447.08
  373.02        3342.00           6745       19100.00     83468.56
  373.05        3342.25           6748       18196.00     79508.53
  373.07        3342.50           6752       17003.00     74283.94
  373.10        3342.75           6756       16106.00     70356.72
  373.13        3343.00           6760       15107.00     65984.02
  373.16        3343.25           6763       14372.00     62767.60
  373.19        3343.50           6767       13304.00     58095.07
  373.21        3343.75           6771       11855.00     51757.72
  373.24        3344.00           6775       10741.00     46887.18
  373.27        3344.25           6778        9852.00     43001.39
  373.30        3344.50           6782        8650.00     37748.92
  373.33        3344.75           6786        7495.00     32703.39
  373.35        3345.00           6790        6462.00     28192.10
  373.38        3345.25           6793        5511.00     24040.00
  373.41        3345.50           6797        4477.00     19526.69
  373.44        3345.75           6801        3429.00     14953.53
  373.47        3346.00           6805        2259.00      9849.47
  373.50        3346.25           6808        1419.00      6185.98
  373.52        3346.50           6812         366.00      1594.67
  373.56        3346.75           6816          82.00       356.59
  373.59        3347.00           6819          52.00       225.81
  373.62        3347.25           6823          53.00       230.17
  373.65        3347.50           6827          46.00       199.65
  373.67        3347.75           6831          47.00       204.01
  373.70        3348.00           6834          48.00       208.37
  373.73        3348.25           6838          43.00       186.57
  373.76        3348.50           6842          44.00       190.93
  373.78        3348.75           6846          48.00       208.37
  373.81        3349.00           6849          44.00       190.93
  373.84        3349.25           6853          42.00       182.22
  373.87        3349.50           6857          46.00       199.65
  373.90        3349.75           6861          42.00       182.22
  373.93        3350.00           6864          42.00       182.22
  373.96        3350.25           6868          45.00       195.29
  373.98        3350.50           6872          41.00       177.86
  374.01        3350.75           6876          55.00       238.89
  374.04        3351.00           6879          46.00       199.65
HL scan finished at 06:15:31
end
