************************************************************
  HL Scan of (1) Internal mercury lamp
************************************************************
Integration time is 0.2294 seconds per sample
dh020217DelftKZ 51.997-4.386 2.375pr1000
************************************************************
Dead Time -------------------------  3E-08 
Number of Cycles Used -------------  4 
Starting Wavelength (Angstroms) ---  3331 
Final Wavelength (Angstoms) -------  3351 
Wavelength Increment (Angstroms) --  .25 
Filter Wheel #1 Position ---------- (1) Ground quartz diffuser (ND=2.32)
Filter Wheel #2 Position ---------- 



************************************************************
HL scan start time = 00:34:31
Dark Count =  0 


Time (GMT)  Wavelength (Ang)  Step Number  Raw Counts  Counts/Second

   35.28        3331.00           6581          45.00       196.17
   35.69        3331.25           6584          44.00       191.81
   35.72        3331.50           6588          43.00       187.45
   35.74        3331.75           6592          50.00       217.96
   35.77        3332.00           6595          44.00       191.81
   35.80        3332.25           6599          44.00       191.81
   35.83        3332.50           6603          46.00       200.52
   35.85        3332.75           6607          49.00       213.60
   35.88        3333.00           6610          49.00       213.60
   35.91        3333.25           6614          51.00       222.32
   35.93        3333.50           6618          56.00       244.12
   35.96        3333.75           6622          43.00       187.45
   35.99        3334.00           6625          51.00       222.32
   36.02        3334.25           6629          49.00       213.60
   36.04        3334.50           6633          53.00       231.04
   36.07        3334.75           6636          46.00       200.52
   36.10        3335.00           6640          59.00       257.19
   36.13        3335.25           6644          56.00       244.12
   36.15        3335.50           6648          64.00       278.99
   36.18        3335.75           6651          69.00       300.79
   36.21        3336.00           6655          77.00       335.66
   36.24        3336.25           6659         306.00      1333.97
   36.26        3336.50           6663        1566.00      6827.90
   36.29        3336.75           6666        2727.00     11891.78
   36.32        3337.00           6670        4228.00     18440.89
   36.35        3337.25           6674        5902.00     25747.87
   36.37        3337.50           6677        7403.00     32302.43
   36.40        3337.75           6681        9192.00     40118.01
   36.43        3338.00           6685       10649.00     46485.89
   36.46        3338.25           6689       12480.00     54491.81
   36.48        3338.50           6692       13675.00     59718.93
   36.51        3338.75           6696       15427.00     67385.44
   36.54        3339.00           6700       17490.00     76417.36
   36.57        3339.25           6704       19232.00     84047.75
   36.59        3339.50           6707       20481.00     89520.83
   36.62        3339.75           6711       22090.00     96574.08
   36.65        3340.00           6715       23860.00    104336.50
   36.68        3340.25           6719       25313.00    110711.50
   36.70        3340.50           6722       26387.00    115425.20
   36.73        3340.75           6726       27941.00    122247.90
   36.76        3341.00           6730       29735.00    130127.80
   36.79        3341.25           6733       30308.00    132645.40
   36.81        3341.50           6737       30316.00    132680.50
   36.84        3341.75           6741       30236.00    132329.00
   36.87        3342.00           6745       29307.00    128247.50
   36.90        3342.25           6748       28285.00    123758.60
   36.93        3342.50           6752       26444.00    115675.40
   36.95        3342.75           6756       24764.00    108302.50
   36.98        3343.00           6760       23328.00    102003.00
   37.01        3343.25           6763       22088.00     96565.31
   37.03        3343.50           6767       20392.00     89130.78
   37.06        3343.75           6771       18746.00     81918.60
   37.09        3344.00           6775       16750.00     73177.04
   37.12        3344.25           6778       15268.00     66689.53
   37.15        3344.50           6782       13361.00     58345.28
   37.17        3344.75           6786       11803.00     51531.22
   37.20        3345.00           6790        9958.00     43465.54
   37.23        3345.25           6793        8714.00     38029.42
   37.25        3345.50           6797        7158.00     31232.39
   37.28        3345.75           6801        5504.00     24010.32
   37.31        3346.00           6805        3888.00     16957.19
   37.34        3346.25           6808        2626.00     11451.19
   37.36        3346.50           6812         911.00      3971.70
   37.39        3346.75           6816         175.00       762.88
   37.42        3347.00           6819          77.00       335.66
   37.45        3347.25           6823          66.00       287.71
   37.47        3347.50           6827          51.00       222.32
   37.50        3347.75           6831          60.00       261.55
   37.53        3348.00           6834          56.00       244.12
   37.56        3348.25           6838          55.00       239.76
   37.58        3348.50           6842          47.00       204.88
   37.61        3348.75           6846          49.00       213.60
   37.64        3349.00           6849          45.00       196.17
   37.67        3349.25           6853          49.00       213.60
   37.69        3349.50           6857          49.00       213.60
   37.72        3349.75           6861          42.00       183.09
   37.75        3350.00           6864          49.00       213.60
   37.78        3350.25           6868          48.00       209.24
   37.80        3350.50           6872          45.00       196.17
   37.83        3350.75           6876          52.00       226.68
   37.86        3351.00           6879          53.00       231.04
HL scan finished at 00:39:20
end
************************************************************
  HL Scan of (1) Internal mercury lamp
************************************************************
Integration time is 0.2294 seconds per sample
dh020217DelftKZ 51.997-4.386 2.428648pr1000
************************************************************
Dead Time -------------------------  3E-08 
Number of Cycles Used -------------  4 
Starting Wavelength (Angstroms) ---  3331 
Final Wavelength (Angstoms) -------  3351 
Wavelength Increment (Angstroms) --  .25 
Filter Wheel #1 Position ---------- (1) Ground quartz diffuser (ND=2.32)
Filter Wheel #2 Position ---------- 



************************************************************
HL scan start time = 06:08:04
Dark Count =  .1 


Time (GMT)  Wavelength (Ang)  Step Number  Raw Counts  Counts/Second

  368.83        3331.00           6581          46.00       200.09
  369.24        3331.25           6584          42.00       182.65
  369.26        3331.50           6588          42.00       182.65
  369.29        3331.75           6592          42.00       182.65
  369.32        3332.00           6595          46.00       200.09
  369.35        3332.25           6599          46.00       200.09
  369.38        3332.50           6603          43.00       187.01
  369.41        3332.75           6607          46.00       200.09
  369.44        3333.00           6610          46.00       200.09
  369.47        3333.25           6614          42.00       182.65
  369.50        3333.50           6618          39.00       169.57
  369.52        3333.75           6622          40.00       173.93
  369.55        3334.00           6625          46.00       200.09
  369.58        3334.25           6629          46.00       200.09
  369.61        3334.50           6633          47.00       204.45
  369.63        3334.75           6636          47.00       204.45
  369.66        3335.00           6640          45.00       195.73
  369.69        3335.25           6644          55.00       239.32
  369.72        3335.50           6648          46.00       200.09
  369.74        3335.75           6651          54.00       234.96
  369.77        3336.00           6655          69.00       300.35
  369.80        3336.25           6659         184.00       801.68
  369.83        3336.50           6663        1192.00      5196.54
  369.85        3336.75           6666        2103.00      9169.48
  369.88        3337.00           6670        3145.00     13714.88
  369.91        3337.25           6674        4555.00     19867.55
  369.94        3337.50           6677        5569.00     24293.64
  369.97        3337.75           6681        7042.00     30725.35
  369.99        3338.00           6685        8652.00     37758.10
  370.02        3338.25           6689       10023.00     43749.19
  370.05        3338.50           6692       11048.00     48229.72
  370.08        3338.75           6696       12466.00     54430.14
  370.10        3339.00           6700       13807.00     60295.99
  370.13        3339.25           6704       15124.00     66058.86
  370.16        3339.50           6707       15977.00     69792.45
  370.19        3339.75           6711       17066.00     74560.24
  370.22        3340.00           6715       18554.00     81077.10
  370.24        3340.25           6719       20084.00     87780.56
  370.27        3340.50           6722       21032.00     91935.43
  370.30        3340.75           6726       22239.00     97226.96
  370.33        3341.00           6730       23569.00    103059.70
  370.36        3341.25           6733       23789.00    104024.70
  370.38        3341.50           6737       23932.00    104651.90
  370.41        3341.75           6741       23712.00    103686.90
  370.44        3342.00           6745       23159.00    101261.40
  370.47        3342.25           6748       22265.00     97340.94
  370.49        3342.50           6752       20811.00     90966.75
  370.52        3342.75           6756       19602.00     85668.46
  370.55        3343.00           6760       18112.00     79141.03
  370.58        3343.25           6763       17125.00     74818.58
  370.61        3343.50           6767       15898.00     69446.63
  370.63        3343.75           6771       14523.00     63428.79
  370.66        3344.00           6775       13113.00     57260.01
  370.70        3344.25           6778       12092.00     52794.55
  370.72        3344.50           6782       10634.00     46419.88
  370.75        3344.75           6786        9398.00     41017.75
  370.79        3345.00           6790        8130.00     35477.58
  370.81        3345.25           6793        7052.00     30769.02
  370.84        3345.50           6797        5535.00     24145.21
  370.87        3345.75           6801        4053.00     17676.77
  370.90        3346.00           6805        2852.00     12436.64
  370.92        3346.25           6808        2018.00      8798.75
  370.95        3346.50           6812         765.00      3334.68
  370.98        3346.75           6816         158.00       688.33
  371.01        3347.00           6819          76.00       330.87
  371.03        3347.25           6823          64.00       278.56
  371.06        3347.50           6827          54.00       234.96
  371.09        3347.75           6831          53.00       230.60
  371.12        3348.00           6834          49.00       213.17
  371.15        3348.25           6838          44.00       191.37
  371.17        3348.50           6842          42.00       182.65
  371.20        3348.75           6846          50.00       217.53
  371.23        3349.00           6849          42.00       182.65
  371.26        3349.25           6853          41.00       178.29
  371.28        3349.50           6857          43.00       187.01
  371.31        3349.75           6861          38.00       165.21
  371.34        3350.00           6864          43.00       187.01
  371.37        3350.25           6868          44.00       191.37
  371.39        3350.50           6872          40.00       173.93
  371.42        3350.75           6876          45.00       195.73
  371.45        3351.00           6879          43.00       187.01
HL scan finished at 06:12:56
end
