************************************************************
  HL Scan of (1) Internal mercury lamp
************************************************************
Integration time is 0.2294 seconds per sample
dh010217DelftKZ 51.997-4.386 2.214056pr1000
************************************************************
Dead Time -------------------------  3E-08 
Number of Cycles Used -------------  4 
Starting Wavelength (Angstroms) ---  3331 
Final Wavelength (Angstoms) -------  3351 
Wavelength Increment (Angstroms) --  .25 
Filter Wheel #1 Position ---------- (1) Ground quartz diffuser (ND=2.32)
Filter Wheel #2 Position ---------- 



************************************************************
HL scan start time = 06:09:25
Dark Count =  0 


Time (GMT)  Wavelength (Ang)  Step Number  Raw Counts  Counts/Second

  370.17        3331.00           6581          35.00       152.57
  370.58        3331.25           6584          38.00       165.65
  370.61        3331.50           6588          39.00       170.01
  370.64        3331.75           6592          41.00       178.73
  370.67        3332.00           6595          41.00       178.73
  370.69        3332.25           6599          35.00       152.57
  370.72        3332.50           6603          40.00       174.37
  370.75        3332.75           6607          39.00       170.01
  370.78        3333.00           6610          36.00       156.93
  370.81        3333.25           6614          38.00       165.65
  370.83        3333.50           6618          37.00       161.29
  370.86        3333.75           6622          43.00       187.45
  370.89        3334.00           6625          39.00       170.01
  370.92        3334.25           6629          40.00       174.37
  370.94        3334.50           6633          42.00       183.09
  370.97        3334.75           6636          40.00       174.37
  371.00        3335.00           6640          39.00       170.01
  371.03        3335.25           6644          55.00       239.76
  371.05        3335.50           6648          52.00       226.68
  371.08        3335.75           6651          50.00       217.96
  371.11        3336.00           6655          56.00       244.12
  371.14        3336.25           6659         144.00       627.74
  371.16        3336.50           6663         832.00      3627.25
  371.19        3336.75           6666        1695.00      7390.48
  371.22        3337.00           6670        2692.00     11739.10
  371.25        3337.25           6674        3671.00     16010.30
  371.27        3337.50           6677        4467.00     19483.92
  371.30        3337.75           6681        5547.00     24198.03
  371.33        3338.00           6685        6686.00     29171.11
  371.36        3338.25           6689        7809.00     34075.79
  371.38        3338.50           6692        8601.00     37535.70
  371.41        3338.75           6696        9587.00     41844.13
  371.44        3339.00           6700       10675.00     46599.54
  371.47        3339.25           6704       11757.00     51330.08
  371.50        3339.50           6707       12719.00     55537.10
  371.52        3339.75           6711       13795.00     60243.92
  371.55        3340.00           6715       14829.00     64768.27
  371.58        3340.25           6719       15784.00     68948.05
  371.61        3340.50           6722       16591.00     72480.88
  371.63        3340.75           6726       17705.00     77358.93
  371.66        3341.00           6730       18351.00     80188.31
  371.69        3341.25           6733       18823.00     82255.93
  371.72        3341.50           6737       18779.00     82063.16
  371.75        3341.75           6741       18754.00     81953.65
  371.77        3342.00           6745       18245.00     79724.02
  371.80        3342.25           6748       17628.00     77021.71
  371.83        3342.50           6752       16577.00     72419.60
  371.86        3342.75           6756       15564.00     67985.07
  371.89        3343.00           6760       14431.00     63026.64
  371.92        3343.25           6763       13730.00     59959.55
  371.94        3343.50           6767       12800.00     55891.37
  371.97        3343.75           6771       11742.00     51264.49
  372.00        3344.00           6775       10604.00     46289.17
  372.03        3344.25           6778        9744.00     42530.26
  372.06        3344.50           6782        8422.00     36753.67
  372.08        3344.75           6786        7348.00     32062.21
  372.11        3345.00           6790        6269.00     27350.25
  372.14        3345.25           6793        5431.00     23691.64
  372.17        3345.50           6797        4264.00     18598.00
  372.19        3345.75           6801        3309.00     14430.83
  372.22        3346.00           6805        2424.00     10570.05
  372.25        3346.25           6808        1592.00      6941.29
  372.28        3346.50           6812         658.00      2868.60
  372.31        3346.75           6816         140.00       610.30
  372.34        3347.00           6819          57.00       248.48
  372.36        3347.25           6823          51.00       222.32
  372.39        3347.50           6827          49.00       213.60
  372.42        3347.75           6831          42.00       183.09
  372.45        3348.00           6834          43.00       187.45
  372.47        3348.25           6838          42.00       183.09
  372.50        3348.50           6842          44.00       191.81
  372.53        3348.75           6846          40.00       174.37
  372.56        3349.00           6849          42.00       183.09
  372.59        3349.25           6853          41.00       178.73
  372.62        3349.50           6857          41.00       178.73
  372.64        3349.75           6861          45.00       196.17
  372.67        3350.00           6864          40.00       174.37
  372.70        3350.25           6868          42.00       183.09
  372.73        3350.50           6872          48.00       209.24
  372.75        3350.75           6876          43.00       187.45
  372.78        3351.00           6879          39.00       170.01
HL scan finished at 06:14:16
end
