************************************************************
  HL Scan of (1) Internal mercury lamp
************************************************************
Integration time is 0.2294 seconds per sample
dh300117DelftKZ 51.997-4.386 2.321352pr1000
************************************************************
Dead Time -------------------------  3E-08 
Number of Cycles Used -------------  4 
Starting Wavelength (Angstroms) ---  3331 
Final Wavelength (Angstoms) -------  3351 
Wavelength Increment (Angstroms) --  .25 
Filter Wheel #1 Position ---------- (1) Ground quartz diffuser (ND=2.32)
Filter Wheel #2 Position ---------- 



************************************************************
HL scan start time = 06:11:54
Dark Count =  .1 


Time (GMT)  Wavelength (Ang)  Step Number  Raw Counts  Counts/Second

  372.66        3331.00           6581          42.00       182.65
  373.07        3331.25           6584          41.00       178.29
  373.10        3331.50           6588          45.00       195.73
  373.13        3331.75           6592          42.00       182.65
  373.16        3332.00           6595          42.00       182.65
  373.18        3332.25           6599          37.00       160.86
  373.21        3332.50           6603          41.00       178.29
  373.24        3332.75           6607          45.00       195.73
  373.27        3333.00           6610          45.00       195.73
  373.29        3333.25           6614          36.00       156.50
  373.32        3333.50           6618          44.00       191.37
  373.35        3333.75           6622          44.00       191.37
  373.38        3334.00           6625          37.00       160.86
  373.41        3334.25           6629          43.00       187.01
  373.43        3334.50           6633          43.00       187.01
  373.46        3334.75           6636          47.00       204.45
  373.49        3335.00           6640          53.00       230.60
  373.52        3335.25           6644          57.00       248.04
  373.54        3335.50           6648          59.00       256.76
  373.57        3335.75           6651          55.00       239.32
  373.60        3336.00           6655          70.00       304.71
  373.63        3336.25           6659         209.00       910.66
  373.66        3336.50           6663         962.00      4193.64
  373.69        3336.75           6666        1768.00      7708.41
  373.72        3337.00           6670        2970.00     12951.41
  373.75        3337.25           6674        4272.00     18632.47
  373.77        3337.50           6677        5398.00     23547.14
  373.80        3337.75           6681        6787.00     29611.74
  373.83        3338.00           6685        7966.00     34761.17
  373.86        3338.25           6689        9269.00     40454.04
  373.88        3338.50           6692       10308.00     44994.88
  373.91        3338.75           6696       11539.00     50376.43
  373.94        3339.00           6700       12569.00     54880.61
  373.97        3339.25           6704       13857.00     60514.74
  374.00        3339.50           6707       14725.00     64312.72
  374.02        3339.75           6711       16119.00     70414.06
  374.05        3340.00           6715       17412.00     76075.35
  374.08        3340.25           6719       18524.00     80945.68
  374.11        3340.50           6722       19348.00     84555.55
  374.13        3340.75           6726       20534.00     89752.68
  374.16        3341.00           6730       21758.00     95118.03
  374.19        3341.25           6733       22066.00     96468.41
  374.22        3341.50           6737       22041.00     96358.80
  374.25        3341.75           6741       22052.00     96407.03
  374.27        3342.00           6745       21393.00     93517.89
  374.30        3342.25           6748       20533.00     89748.29
  374.33        3342.50           6752       19416.00     84853.49
  374.36        3342.75           6756       17976.00     78545.38
  374.38        3343.00           6760       16708.00     72992.71
  374.41        3343.25           6763       15896.00     69437.88
  374.44        3343.50           6767       14643.00     63953.89
  374.47        3343.75           6771       13424.00     58620.44
  374.50        3344.00           6775       12187.00     53209.98
  374.52        3344.25           6778       11261.00     49160.95
  374.55        3344.50           6782        9851.00     42997.46
  374.58        3344.75           6786        8713.00     38024.61
  374.61        3345.00           6790        7370.00     32157.86
  374.63        3345.25           6793        6375.00     27812.65
  374.66        3345.50           6797        5047.00     22014.97
  374.69        3345.75           6801        3887.00     16952.39
  374.72        3346.00           6805        2771.00     12083.28
  374.74        3346.25           6808        1829.00      7974.45
  374.77        3346.50           6812         670.00      2920.48
  374.80        3346.75           6816         156.00       679.61
  374.83        3347.00           6819          77.00       335.23
  374.85        3347.25           6823          54.00       234.96
  374.88        3347.50           6827          48.00       208.81
  374.91        3347.75           6831          50.00       217.53
  374.94        3348.00           6834          46.00       200.09
  374.96        3348.25           6838          44.00       191.37
  374.99        3348.50           6842          47.00       204.45
  375.02        3348.75           6846          40.00       173.93
  375.05        3349.00           6849          41.00       178.29
  375.07        3349.25           6853          50.00       217.53
  375.10        3349.50           6857          47.00       204.45
  375.13        3349.75           6861          41.00       178.29
  375.16        3350.00           6864          43.00       187.01
  375.19        3350.25           6868          32.00       139.06
  375.21        3350.50           6872          43.00       187.01
  375.24        3350.75           6876          46.00       200.09
  375.27        3351.00           6879          38.00       165.21
HL scan finished at 06:16:45
end
