************************************************************
  HL Scan of (1) Internal mercury lamp
************************************************************
Integration time is 0.2294 seconds per sample
dh120217DelftKZ 51.997-4.386 2.160408pr1000
************************************************************
Dead Time -------------------------  3E-08 
Number of Cycles Used -------------  4 
Starting Wavelength (Angstroms) ---  3331 
Final Wavelength (Angstoms) -------  3351 
Wavelength Increment (Angstroms) --  .25 
Filter Wheel #1 Position ---------- (1) Ground quartz diffuser (ND=2.32)
Filter Wheel #2 Position ---------- 



************************************************************
HL scan start time = 05:52:51
Dark Count =  .1 


Time (GMT)  Wavelength (Ang)  Step Number  Raw Counts  Counts/Second

  353.62        3331.00           6581          39.00       169.57
  354.04        3331.25           6584          45.00       195.73
  354.06        3331.50           6588          41.00       178.29
  354.09        3331.75           6592          38.00       165.21
  354.12        3332.00           6595          44.00       191.37
  354.15        3332.25           6599          40.00       173.93
  354.17        3332.50           6603          40.00       173.93
  354.20        3332.75           6607          39.00       169.57
  354.23        3333.00           6610          39.00       169.57
  354.26        3333.25           6614          40.00       173.93
  354.28        3333.50           6618          38.00       165.21
  354.31        3333.75           6622          38.00       165.21
  354.34        3334.00           6625          40.00       173.93
  354.37        3334.25           6629          44.00       191.37
  354.39        3334.50           6633          45.00       195.73
  354.42        3334.75           6636          37.00       160.86
  354.45        3335.00           6640          48.00       208.81
  354.48        3335.25           6644          47.00       204.45
  354.50        3335.50           6648          52.00       226.24
  354.53        3335.75           6651          56.00       243.68
  354.56        3336.00           6655          67.00       291.63
  354.59        3336.25           6659         153.00       666.53
  354.62        3336.50           6663         998.00      4350.61
  354.65        3336.75           6666        1801.00      7852.33
  354.68        3337.00           6670        2799.00     12205.43
  354.70        3337.25           6674        3938.00     17174.93
  354.73        3337.50           6677        4800.00     20936.86
  354.76        3337.75           6681        5909.00     25777.99
  354.79        3338.00           6685        6883.00     30030.97
  354.81        3338.25           6689        7824.00     34140.88
  354.84        3338.50           6692        8649.00     37744.99
  354.87        3338.75           6696        9792.00     42739.60
  354.90        3339.00           6700       10891.00     47543.35
  354.92        3339.25           6704       12043.00     52580.27
  354.95        3339.50           6707       12799.00     55886.57
  354.99        3339.75           6711       13745.00     60024.73
  355.02        3340.00           6715       14861.00     64907.89
  355.05        3340.25           6719       16054.00     70129.52
  355.07        3340.50           6722       16743.00     73145.96
  355.10        3340.75           6726       17498.00     76451.96
  355.13        3341.00           6730       18625.00     81388.11
  355.16        3341.25           6733       18816.00     82224.81
  355.19        3341.50           6737       18839.00     82325.58
  355.22        3341.75           6741       18742.00     81900.65
  355.25        3342.00           6745       18237.00     79688.53
  355.27        3342.25           6748       17612.00     76951.21
  355.30        3342.50           6752       16411.00     71692.40
  355.33        3342.75           6756       15255.00     66632.20
  355.36        3343.00           6760       14393.00     62859.94
  355.38        3343.25           6763       13535.00     59106.03
  355.41        3343.50           6767       12555.00     54819.38
  355.44        3343.75           6771       11488.00     50153.44
  355.47        3344.00           6775       10299.00     44955.54
  355.49        3344.25           6778        9347.00     40794.89
  355.52        3344.50           6782        8310.00     36263.93
  355.55        3344.75           6786        7229.00     31542.04
  355.58        3345.00           6790        6272.00     27362.91
  355.61        3345.25           6793        5493.00     23961.86
  355.63        3345.50           6797        4355.00     18994.69
  355.66        3345.75           6801        3368.00     14687.81
  355.69        3346.00           6805        2379.00     10373.32
  355.72        3346.25           6808        1587.00      6919.05
  355.74        3346.50           6812         500.00      2179.31
  355.77        3346.75           6816         107.00       466.00
  355.80        3347.00           6819          54.00       234.96
  355.83        3347.25           6823          54.00       234.96
  355.85        3347.50           6827          43.00       187.01
  355.88        3347.75           6831          42.00       182.65
  355.91        3348.00           6834          49.00       213.17
  355.94        3348.25           6838          43.00       187.01
  355.96        3348.50           6842          41.00       178.29
  355.99        3348.75           6846          43.00       187.01
  356.02        3349.00           6849          42.00       182.65
  356.05        3349.25           6853          39.00       169.57
  356.08        3349.50           6857          43.00       187.01
  356.11        3349.75           6861          40.00       173.93
  356.14        3350.00           6864          38.00       165.21
  356.17        3350.25           6868          43.00       187.01
  356.19        3350.50           6872          38.00       165.21
  356.22        3350.75           6876          41.00       178.29
  356.25        3351.00           6879          45.00       195.73
HL scan finished at 05:57:44
end
