************************************************************
  HL Scan of (1) Internal mercury lamp
************************************************************
Integration time is 0.2294 seconds per sample
dh110217DelftKZ 51.997-4.386 2.10676pr1000
************************************************************
Dead Time -------------------------  3E-08 
Number of Cycles Used -------------  4 
Starting Wavelength (Angstroms) ---  3331 
Final Wavelength (Angstoms) -------  3351 
Wavelength Increment (Angstroms) --  .25 
Filter Wheel #1 Position ---------- (1) Ground quartz diffuser (ND=2.32)
Filter Wheel #2 Position ---------- 



************************************************************
HL scan start time = 05:54:11
Dark Count =  .1 


Time (GMT)  Wavelength (Ang)  Step Number  Raw Counts  Counts/Second

  354.94        3331.00           6581          42.00       182.65
  355.35        3331.25           6584          38.00       165.21
  355.38        3331.50           6588          40.00       173.93
  355.41        3331.75           6592          42.00       182.65
  355.44        3332.00           6595          40.00       173.93
  355.47        3332.25           6599          33.00       143.42
  355.49        3332.50           6603          42.00       182.65
  355.52        3332.75           6607          39.00       169.57
  355.55        3333.00           6610          38.00       165.21
  355.58        3333.25           6614          38.00       165.21
  355.61        3333.50           6618          37.00       160.86
  355.63        3333.75           6622          39.00       169.57
  355.66        3334.00           6625          36.00       156.50
  355.69        3334.25           6629          40.00       173.93
  355.72        3334.50           6633          37.00       160.86
  355.74        3334.75           6636          43.00       187.01
  355.77        3335.00           6640          45.00       195.73
  355.80        3335.25           6644          46.00       200.09
  355.83        3335.50           6648          52.00       226.24
  355.85        3335.75           6651          59.00       256.76
  355.88        3336.00           6655          69.00       300.35
  355.91        3336.25           6659         277.00      1207.11
  355.94        3336.50           6663        1101.00      4799.73
  355.97        3336.75           6666        1746.00      7612.46
  355.99        3337.00           6670        2747.00     11978.58
  356.02        3337.25           6674        3856.00     16817.11
  356.05        3337.50           6677        4666.00     20352.00
  356.08        3337.75           6681        5816.00     25371.96
  356.10        3338.00           6685        6908.00     30140.14
  356.13        3338.25           6689        7937.00     34634.49
  356.16        3338.50           6692        8902.00     38850.40
  356.19        3338.75           6696       10053.00     43880.31
  356.21        3339.00           6700       10981.00     47936.81
  356.24        3339.25           6704       12143.00     53017.57
  356.27        3339.50           6707       13014.00     56826.97
  356.30        3339.75           6711       14137.00     61739.80
  356.33        3340.00           6715       15142.00     66137.65
  356.35        3340.25           6719       16113.00     70387.80
  356.38        3340.50           6722       16902.00     73842.15
  356.41        3340.75           6726       17978.00     78554.13
  356.44        3341.00           6730       18984.00     82960.80
  356.46        3341.25           6733       19253.00     84139.31
  356.49        3341.50           6737       19242.00     84091.13
  356.52        3341.75           6741       19152.00     83696.81
  356.55        3342.00           6745       18590.00     81234.78
  356.57        3342.25           6748       17752.00     77564.32
  356.60        3342.50           6752       16722.00     73054.01
  356.63        3342.75           6756       15813.00     69074.55
  356.66        3343.00           6760       14909.00     65117.93
  356.69        3343.25           6763       13941.00     60882.25
  356.72        3343.50           6767       12866.00     56179.62
  356.75        3343.75           6771       11671.00     50953.60
  356.77        3344.00           6775       10438.00     45563.11
  356.80        3344.25           6778        9610.00     41944.21
  356.83        3344.50           6782        8565.00     37377.99
  356.86        3344.75           6786        7335.00     32005.00
  356.88        3345.00           6790        6287.00     27428.40
  356.91        3345.25           6793        5450.00     23774.14
  356.94        3345.50           6797        4537.00     19788.99
  356.97        3345.75           6801        3391.00     14788.16
  356.99        3346.00           6805        2384.00     10395.13
  357.02        3346.25           6808        1506.00      6565.81
  357.05        3346.50           6812         479.00      2087.75
  357.08        3346.75           6816          98.00       426.77
  357.11        3347.00           6819          56.00       243.68
  357.13        3347.25           6823          52.00       226.24
  357.16        3347.50           6827          53.00       230.60
  357.19        3347.75           6831          43.00       187.01
  357.22        3348.00           6834          46.00       200.09
  357.24        3348.25           6838          42.00       182.65
  357.27        3348.50           6842          45.00       195.73
  357.30        3348.75           6846          49.00       213.17
  357.33        3349.00           6849          41.00       178.29
  357.35        3349.25           6853          42.00       182.65
  357.38        3349.50           6857          37.00       160.86
  357.41        3349.75           6861          48.00       208.81
  357.44        3350.00           6864          42.00       182.65
  357.46        3350.25           6868          42.00       182.65
  357.49        3350.50           6872          42.00       182.65
  357.52        3350.75           6876          32.00       139.06
  357.55        3351.00           6879          51.00       221.88
HL scan finished at 05:59:02
end
