************************************************************
  HL Scan of (1) Internal mercury lamp
************************************************************
Integration time is 0.2294 seconds per sample
dh130217DelftKZ 51.997-4.386 2.10676pr1000
************************************************************
Dead Time -------------------------  3E-08 
Number of Cycles Used -------------  4 
Starting Wavelength (Angstroms) ---  3331 
Final Wavelength (Angstoms) -------  3351 
Wavelength Increment (Angstroms) --  .25 
Filter Wheel #1 Position ---------- (1) Ground quartz diffuser (ND=2.32)
Filter Wheel #2 Position ---------- 



************************************************************
HL scan start time = 05:51:15
Dark Count =  0 


Time (GMT)  Wavelength (Ang)  Step Number  Raw Counts  Counts/Second

  352.01        3331.00           6581          41.00       178.73
  352.42        3331.25           6584          39.00       170.01
  352.44        3331.50           6588          42.00       183.09
  352.47        3331.75           6592          43.00       187.45
  352.50        3332.00           6595          39.00       170.01
  352.53        3332.25           6599          42.00       183.09
  352.55        3332.50           6603          38.00       165.65
  352.59        3332.75           6607          40.00       174.37
  352.62        3333.00           6610          46.00       200.52
  352.65        3333.25           6614          32.00       139.49
  352.67        3333.50           6618          44.00       191.81
  352.70        3333.75           6622          38.00       165.65
  352.73        3334.00           6625          42.00       183.09
  352.76        3334.25           6629          40.00       174.37
  352.78        3334.50           6633          44.00       191.81
  352.81        3334.75           6636          44.00       191.81
  352.84        3335.00           6640          41.00       178.73
  352.87        3335.25           6644          45.00       196.17
  352.90        3335.50           6648          51.00       222.32
  352.93        3335.75           6651          53.00       231.04
  352.96        3336.00           6655          71.00       309.51
  352.98        3336.25           6659         224.00       976.49
  353.01        3336.50           6663         928.00      4045.83
  353.04        3336.75           6666        1615.00      7041.59
  353.07        3337.00           6670        2813.00     12266.94
  353.09        3337.25           6674        3995.00     17424.10
  353.12        3337.50           6677        4860.00     21199.18
  353.15        3337.75           6681        5810.00     25346.21
  353.18        3338.00           6685        6808.00     29703.88
  353.20        3338.25           6689        7971.00     34783.45
  353.23        3338.50           6692        9032.00     39418.87
  353.26        3338.75           6696        9949.00     43426.20
  353.29        3339.00           6700       10955.00     47823.58
  353.32        3339.25           6704       12046.00     52593.82
  353.34        3339.50           6707       12855.00     56131.94
  353.37        3339.75           6711       14088.00     61525.85
  353.40        3340.00           6715       15228.00     66514.46
  353.43        3340.25           6719       16271.00     71079.91
  353.45        3340.50           6722       17017.00     74346.12
  353.48        3340.75           6726       18244.00     79719.65
  353.51        3341.00           6730       19089.00     83421.25
  353.54        3341.25           6733       19401.00     84788.21
  353.56        3341.50           6737       19354.00     84582.28
  353.59        3341.75           6741       19319.00     84428.92
  353.62        3342.00           6745       18693.00     81686.43
  353.65        3342.25           6748       17703.00     77350.16
  353.68        3342.50           6752       16775.00     73286.50
  353.71        3342.75           6756       15814.00     69079.37
  353.74        3343.00           6760       14868.00     64938.94
  353.77        3343.25           6763       13974.00     61027.06
  353.79        3343.50           6767       12898.00     56320.01
  353.82        3343.75           6771       11901.00     51959.75
  353.85        3344.00           6775       10843.00     47333.95
  353.88        3344.25           6778        9964.00     43491.76
  353.90        3344.50           6782        8685.00     37902.71
  353.93        3344.75           6786        7510.00     32769.78
  353.96        3345.00           6790        6282.00     27407.01
  353.99        3345.25           6793        5487.00     23936.10
  354.02        3345.50           6797        4380.00     19104.23
  354.05        3345.75           6801        3152.00     13745.86
  354.07        3346.00           6805        2162.00      9427.25
  354.11        3346.25           6808        1432.00      6243.54
  354.14        3346.50           6812         518.00      2258.22
  354.16        3346.75           6816         121.00       527.47
  354.19        3347.00           6819          59.00       257.19
  354.22        3347.25           6823          54.00       235.40
  354.25        3347.50           6827          46.00       200.52
  354.27        3347.75           6831          47.00       204.88
  354.30        3348.00           6834          43.00       187.45
  354.33        3348.25           6838          43.00       187.45
  354.36        3348.50           6842          42.00       183.09
  354.38        3348.75           6846          41.00       178.73
  354.41        3349.00           6849          44.00       191.81
  354.44        3349.25           6853          37.00       161.29
  354.47        3349.50           6857          43.00       187.45
  354.50        3349.75           6861          41.00       178.73
  354.52        3350.00           6864          35.00       152.57
  354.55        3350.25           6868          40.00       174.37
  354.58        3350.50           6872          45.00       196.17
  354.60        3350.75           6876          42.00       183.09
  354.63        3351.00           6879          45.00       196.17
HL scan finished at 05:56:07
end
