************************************************************
  HL Scan of (1) Internal mercury lamp
************************************************************
Integration time is 0.2294 seconds per sample
dh170217DelftKZ 51.997-4.386 2.375pr1000
************************************************************
Dead Time -------------------------  3E-08 
Number of Cycles Used -------------  4 
Starting Wavelength (Angstroms) ---  3331 
Final Wavelength (Angstoms) -------  3351 
Wavelength Increment (Angstroms) --  .25 
Filter Wheel #1 Position ---------- (1) Ground quartz diffuser (ND=2.32)
Filter Wheel #2 Position ---------- 



************************************************************
HL scan start time = 05:43:53
Dark Count =  0 


Time (GMT)  Wavelength (Ang)  Step Number  Raw Counts  Counts/Second

  344.65        3331.00           6581          35.00       152.57
  345.06        3331.25           6584          41.00       178.73
  345.09        3331.50           6588          41.00       178.73
  345.11        3331.75           6592          45.00       196.17
  345.14        3332.00           6595          42.00       183.09
  345.17        3332.25           6599          48.00       209.24
  345.20        3332.50           6603          39.00       170.01
  345.23        3332.75           6607          36.00       156.93
  345.26        3333.00           6610          36.00       156.93
  345.28        3333.25           6614          49.00       213.60
  345.31        3333.50           6618          43.00       187.45
  345.34        3333.75           6622          37.00       161.29
  345.37        3334.00           6625          37.00       161.29
  345.39        3334.25           6629          45.00       196.17
  345.42        3334.50           6633          44.00       191.81
  345.45        3334.75           6636          47.00       204.88
  345.48        3335.00           6640          49.00       213.60
  345.51        3335.25           6644          45.00       196.17
  345.53        3335.50           6648          49.00       213.60
  345.56        3335.75           6651          60.00       261.55
  345.59        3336.00           6655          61.00       265.91
  345.62        3336.25           6659         233.00      1015.72
  345.64        3336.50           6663        1254.00      5467.33
  345.67        3336.75           6666        2232.00      9732.57
  345.70        3337.00           6670        3326.00     14505.00
  345.73        3337.25           6674        4506.00     19654.13
  345.76        3337.50           6677        5437.00     23717.83
  345.78        3337.75           6681        6680.00     29144.92
  345.81        3338.00           6685        8205.00     35805.66
  345.84        3338.25           6689        9507.00     41494.52
  345.87        3338.50           6692       10375.00     45288.17
  345.89        3338.75           6696       11615.00     50709.17
  345.93        3339.00           6700       12876.00     56223.79
  345.96        3339.25           6704       14040.00     61315.83
  345.98        3339.50           6707       14952.00     65306.56
  346.01        3339.75           6711       16197.00     70755.96
  346.04        3340.00           6715       17439.00     76194.03
  346.07        3340.25           6719       18675.00     81607.57
  346.10        3340.50           6722       19699.00     86093.92
  346.12        3340.75           6726       21047.00     92001.62
  346.15        3341.00           6730       21878.00     95644.57
  346.18        3341.25           6733       21952.00     95969.02
  346.21        3341.50           6737       21967.00     96034.78
  346.23        3341.75           6741       21979.00     96087.40
  346.26        3342.00           6745       21237.00     92834.48
  346.29        3342.25           6748       20517.00     89678.61
  346.32        3342.50           6752       19325.00     84455.21
  346.35        3342.75           6756       17825.00     77884.47
  346.37        3343.00           6760       16616.00     72590.35
  346.40        3343.25           6763       15549.00     67919.43
  346.43        3343.50           6767       14318.00     62532.20
  346.46        3343.75           6771       12925.00     56438.11
  346.48        3344.00           6775       11593.00     50612.98
  346.51        3344.25           6778       10855.00     47386.41
  346.54        3344.50           6782        9671.00     42211.23
  346.57        3344.75           6786        8586.00     37470.17
  346.60        3345.00           6790        7387.00     32232.55
  346.62        3345.25           6793        6463.00     28197.34
  346.65        3345.50           6797        5057.00     22059.06
  346.68        3345.75           6801        3712.00     16189.20
  346.71        3346.00           6805        2399.00     10461.00
  346.74        3346.25           6808        1497.00      6527.00
  346.77        3346.50           6812         469.00      2044.59
  346.79        3346.75           6816         111.00       483.88
  346.82        3347.00           6819          53.00       231.04
  346.85        3347.25           6823          57.00       248.48
  346.88        3347.50           6827          47.00       204.88
  346.91        3347.75           6831          45.00       196.17
  346.93        3348.00           6834          51.00       222.32
  346.96        3348.25           6838          48.00       209.24
  346.99        3348.50           6842          41.00       178.73
  347.02        3348.75           6846          42.00       183.09
  347.04        3349.00           6849          43.00       187.45
  347.07        3349.25           6853          42.00       183.09
  347.10        3349.50           6857          45.00       196.17
  347.13        3349.75           6861          41.00       178.73
  347.15        3350.00           6864          44.00       191.81
  347.18        3350.25           6868          48.00       209.24
  347.21        3350.50           6872          38.00       165.65
  347.24        3350.75           6876          45.00       196.17
  347.27        3351.00           6879          49.00       213.60
HL scan finished at 05:48:45
end
