************************************************************
  HL Scan of (1) Internal mercury lamp
************************************************************
Integration time is 0.2294 seconds per sample
dh100217DelftKZ 51.997-4.386 2.10676pr1000
************************************************************
Dead Time -------------------------  3E-08 
Number of Cycles Used -------------  4 
Starting Wavelength (Angstroms) ---  3331 
Final Wavelength (Angstoms) -------  3351 
Wavelength Increment (Angstroms) --  .25 
Filter Wheel #1 Position ---------- (1) Ground quartz diffuser (ND=2.32)
Filter Wheel #2 Position ---------- 



************************************************************
HL scan start time = 05:56:23
Dark Count =  .1 


Time (GMT)  Wavelength (Ang)  Step Number  Raw Counts  Counts/Second

  357.14        3331.00           6581          39.00       169.57
  357.54        3331.25           6584          39.00       169.57
  357.57        3331.50           6588          38.00       165.21
  357.60        3331.75           6592          45.00       195.73
  357.63        3332.00           6595          40.00       173.93
  357.65        3332.25           6599          41.00       178.29
  357.68        3332.50           6603          37.00       160.86
  357.71        3332.75           6607          34.00       147.78
  357.74        3333.00           6610          41.00       178.29
  357.76        3333.25           6614          37.00       160.86
  357.79        3333.50           6618          47.00       204.45
  357.82        3333.75           6622          47.00       204.45
  357.85        3334.00           6625          36.00       156.50
  357.88        3334.25           6629          39.00       169.57
  357.90        3334.50           6633          45.00       195.73
  357.93        3334.75           6636          52.00       226.24
  357.96        3335.00           6640          52.00       226.24
  357.99        3335.25           6644          59.00       256.76
  358.02        3335.50           6648          51.00       221.88
  358.05        3335.75           6651          52.00       226.24
  358.07        3336.00           6655          60.00       261.12
  358.10        3336.25           6659         287.00      1250.70
  358.13        3336.50           6663        1178.00      5135.49
  358.16        3336.75           6666        1927.00      8401.86
  358.18        3337.00           6670        2830.00     12340.66
  358.21        3337.25           6674        3885.00     16943.66
  358.24        3337.50           6677        4686.00     20439.29
  358.27        3337.75           6681        6113.00     26668.67
  358.29        3338.00           6685        7280.00     31764.78
  358.32        3338.25           6689        8431.00     36792.55
  358.35        3338.50           6692        9314.00     40650.68
  358.38        3338.75           6696       10315.00     45025.48
  358.41        3339.00           6700       11496.00     50188.42
  358.43        3339.25           6704       12699.00     55449.19
  358.46        3339.50           6707       13380.00     58427.97
  358.49        3339.75           6711       14431.00     63026.21
  358.52        3340.00           6715       15462.00     67538.19
  358.54        3340.25           6719       16648.00     72730.01
  358.57        3340.50           6722       17502.00     76469.48
  358.60        3340.75           6726       18766.00     82005.78
  358.63        3341.00           6730       19654.00     85896.30
  358.66        3341.25           6733       19908.00     87009.30
  358.68        3341.50           6737       20141.00     88030.34
  358.71        3341.75           6741       20021.00     87504.48
  358.74        3342.00           6745       19482.00     85142.66
  358.77        3342.25           6748       18751.00     81940.06
  358.79        3342.50           6752       17644.00     77091.35
  358.82        3342.75           6756       16411.00     71692.40
  358.85        3343.00           6760       15241.00     66570.93
  358.88        3343.25           6763       14412.00     62943.07
  358.91        3343.50           6767       13175.00     57531.21
  358.94        3343.75           6771       12253.00     53498.62
  358.97        3344.00           6775       11228.00     49016.67
  358.99        3344.25           6778       10108.00     44120.71
  359.02        3344.50           6782        9064.00     39558.26
  359.05        3344.75           6786        7968.00     34769.90
  359.08        3345.00           6790        6862.00     29939.26
  359.11        3345.25           6793        5922.00     25834.75
  359.13        3345.50           6797        4617.00     20138.14
  359.16        3345.75           6801        3433.00     14971.41
  359.19        3346.00           6805        2332.00     10168.31
  359.22        3346.25           6808        1513.00      6596.34
  359.24        3346.50           6812         458.00      1996.20
  359.27        3346.75           6816          99.00       431.13
  359.30        3347.00           6819          61.00       265.48
  359.33        3347.25           6823          47.00       204.45
  359.35        3347.50           6827          49.00       213.17
  359.38        3347.75           6831          42.00       182.65
  359.41        3348.00           6834          48.00       208.81
  359.44        3348.25           6838          45.00       195.73
  359.46        3348.50           6842          41.00       178.29
  359.49        3348.75           6846          44.00       191.37
  359.52        3349.00           6849          46.00       200.09
  359.55        3349.25           6853          38.00       165.21
  359.58        3349.50           6857          42.00       182.65
  359.60        3349.75           6861          42.00       182.65
  359.63        3350.00           6864          41.00       178.29
  359.66        3350.25           6868          40.00       173.93
  359.68        3350.50           6872          41.00       178.29
  359.71        3350.75           6876          43.00       187.01
  359.74        3351.00           6879          41.00       178.29
HL scan finished at 06:01:13
end
