************************************************************
  HL Scan of (1) Internal mercury lamp
************************************************************
Integration time is 0.2294 seconds per sample
dh150217DelftKZ 51.997-4.386 2.267704pr1000
************************************************************
Dead Time -------------------------  3E-08 
Number of Cycles Used -------------  4 
Starting Wavelength (Angstroms) ---  3331 
Final Wavelength (Angstoms) -------  3351 
Wavelength Increment (Angstroms) --  .25 
Filter Wheel #1 Position ---------- (1) Ground quartz diffuser (ND=2.32)
Filter Wheel #2 Position ---------- 



************************************************************
HL scan start time = 05:47:31
Dark Count =  .2 


Time (GMT)  Wavelength (Ang)  Step Number  Raw Counts  Counts/Second

  348.27        3331.00           6581          43.00       186.57
  348.68        3331.25           6584          42.00       182.22
  348.70        3331.50           6588          42.00       182.22
  348.73        3331.75           6592          42.00       182.22
  348.76        3332.00           6595          38.00       164.78
  348.79        3332.25           6599          43.00       186.57
  348.82        3332.50           6603          37.00       160.42
  348.85        3332.75           6607          40.00       173.50
  348.88        3333.00           6610          45.00       195.29
  348.90        3333.25           6614          37.00       160.42
  348.93        3333.50           6618          45.00       195.29
  348.96        3333.75           6622          43.00       186.57
  348.99        3334.00           6625          39.00       169.14
  349.02        3334.25           6629          42.00       182.22
  349.04        3334.50           6633          45.00       195.29
  349.07        3334.75           6636          43.00       186.57
  349.10        3335.00           6640          48.00       208.37
  349.13        3335.25           6644          47.00       204.01
  349.15        3335.50           6648          56.00       243.25
  349.18        3335.75           6651          55.00       238.89
  349.21        3336.00           6655          72.00       312.99
  349.24        3336.25           6659         354.00      1542.36
  349.27        3336.50           6663        1321.00      5758.62
  349.29        3336.75           6666        2126.00      9269.36
  349.32        3337.00           6670        3112.00     13570.48
  349.35        3337.25           6674        4176.00     18213.09
  349.38        3337.50           6677        4981.00     21726.45
  349.41        3337.75           6681        6259.00     27305.71
  349.44        3338.00           6685        7347.00     32056.97
  349.47        3338.25           6689        8587.00     37473.67
  349.49        3338.50           6692        9251.00     40374.94
  349.52        3338.75           6696       10404.00     45414.06
  349.55        3339.00           6700       11443.00     49956.24
  349.58        3339.25           6704       12728.00     55575.59
  349.60        3339.50           6707       13322.00     58173.80
  349.63        3339.75           6711       14641.00     63944.70
  349.66        3340.00           6715       15970.00     69761.37
  349.69        3340.25           6719       16962.00     74104.41
  349.71        3340.50           6722       17974.00     78536.18
  349.74        3340.75           6726       18941.00     82771.99
  349.77        3341.00           6730       19972.00     87289.31
  349.80        3341.25           6733       20065.00     87696.86
  349.83        3341.50           6737       20084.00     87780.12
  349.85        3341.75           6741       20096.00     87832.71
  349.88        3342.00           6745       19647.00     85865.21
  349.91        3342.25           6748       18782.00     82075.43
  349.94        3342.50           6752       17643.00     77086.53
  349.96        3342.75           6756       16208.00     70803.25
  349.99        3343.00           6760       14985.00     65450.10
  350.02        3343.25           6763       14295.00     62430.69
  350.05        3343.50           6767       13154.00     57438.91
  350.08        3343.75           6771       12080.00     52741.62
  350.10        3344.00           6775       10793.00     47114.50
  350.13        3344.25           6778        9893.00     43180.58
  350.16        3344.50           6782        8916.00     38911.13
  350.19        3344.75           6786        7840.00     34210.33
  350.21        3345.00           6790        6715.00     29296.88
  350.24        3345.25           6793        5862.00     25572.36
  350.27        3345.50           6797        4559.00     19884.57
  350.30        3345.75           6801        3336.00     14547.76
  350.33        3346.00           6805        2171.00      9465.64
  350.35        3346.25           6808        1278.00      5571.11
  350.38        3346.50           6812         285.00      1241.55
  350.41        3346.75           6816          94.00       408.90
  350.44        3347.00           6819          64.00       278.12
  350.46        3347.25           6823          50.00       217.09
  350.49        3347.50           6827          48.00       208.37
  350.52        3347.75           6831          45.00       195.29
  350.55        3348.00           6834          43.00       186.57
  350.57        3348.25           6838          46.00       199.65
  350.60        3348.50           6842          43.00       186.57
  350.63        3348.75           6846          39.00       169.14
  350.66        3349.00           6849          37.00       160.42
  350.68        3349.25           6853          36.00       156.06
  350.71        3349.50           6857          49.00       212.73
  350.74        3349.75           6861          39.00       169.14
  350.77        3350.00           6864          37.00       160.42
  350.79        3350.25           6868          45.00       195.29
  350.82        3350.50           6872          40.00       173.50
  350.85        3350.75           6876          35.00       151.70
  350.88        3351.00           6879          44.00       190.93
HL scan finished at 05:52:21
end
