************************************************************
  HL Scan of (1) Internal mercury lamp
************************************************************
Integration time is 0.2294 seconds per sample
dh050317DelftKZ 51.997-4.386 2.375pr1000
************************************************************
Dead Time -------------------------  3E-08 
Number of Cycles Used -------------  4 
Starting Wavelength (Angstroms) ---  3331 
Final Wavelength (Angstoms) -------  3351 
Wavelength Increment (Angstroms) --  .25 
Filter Wheel #1 Position ---------- (1) Ground quartz diffuser (ND=2.32)
Filter Wheel #2 Position ---------- 



************************************************************
HL scan start time = 05:10:20
Dark Count =  0 


Time (GMT)  Wavelength (Ang)  Step Number  Raw Counts  Counts/Second

  311.08        3331.00           6581          43.00       187.45
  311.49        3331.25           6584          35.00       152.57
  311.52        3331.50           6588          38.00       165.65
  311.55        3331.75           6592          40.00       174.37
  311.58        3332.00           6595          44.00       191.81
  311.60        3332.25           6599          42.00       183.09
  311.63        3332.50           6603          42.00       183.09
  311.66        3332.75           6607          37.00       161.29
  311.69        3333.00           6610          37.00       161.29
  311.71        3333.25           6614          40.00       174.37
  311.74        3333.50           6618          42.00       183.09
  311.77        3333.75           6622          41.00       178.73
  311.80        3334.00           6625          42.00       183.09
  311.82        3334.25           6629          46.00       200.52
  311.85        3334.50           6633          47.00       204.88
  311.88        3334.75           6636          41.00       178.73
  311.91        3335.00           6640          50.00       217.96
  311.94        3335.25           6644          53.00       231.04
  311.96        3335.50           6648          51.00       222.32
  311.99        3335.75           6651          47.00       204.88
  312.02        3336.00           6655          67.00       292.07
  312.05        3336.25           6659         346.00      1508.35
  312.08        3336.50           6663        1354.00      5903.40
  312.10        3336.75           6666        2285.00      9963.75
  312.13        3337.00           6670        3468.00     15124.56
  312.16        3337.25           6674        4703.00     20513.93
  312.19        3337.50           6677        5502.00     24001.58
  312.22        3337.75           6681        6540.00     28533.57
  312.25        3338.00           6685        7649.00     33376.91
  312.28        3338.25           6689        8972.00     39156.70
  312.30        3338.50           6692       10026.00     43762.74
  312.33        3338.75           6696       11265.00     49178.87
  312.36        3339.00           6700       12434.00     54290.62
  312.39        3339.25           6704       13674.00     59714.55
  312.41        3339.50           6707       14500.00     63328.57
  312.44        3339.75           6711       16034.00     70042.41
  312.47        3340.00           6715       17035.00     74424.93
  312.50        3340.25           6719       18279.00     79872.95
  312.52        3340.50           6722       19219.00     83990.80
  312.55        3340.75           6726       20324.00     88832.77
  312.58        3341.00           6730       21372.00     93426.27
  312.61        3341.25           6733       21663.00     94701.97
  312.64        3341.50           6737       21717.00     94938.72
  312.66        3341.75           6741       21727.00     94982.56
  312.69        3342.00           6745       20808.00     90954.04
  312.72        3342.25           6748       20011.00     87461.09
  312.75        3342.50           6752       18895.00     82571.34
  312.78        3342.75           6756       17746.00     77538.49
  312.80        3343.00           6760       16441.00     71824.18
  312.83        3343.25           6763       15572.00     68020.09
  312.86        3343.50           6767       14102.00     61587.10
  312.89        3343.75           6771       12821.00     55983.22
  312.91        3344.00           6775       11692.00     51045.85
  312.94        3344.25           6778       10962.00     47854.18
  312.97        3344.50           6782        9776.00     42670.11
  313.00        3344.75           6786        8567.00     37387.16
  313.03        3345.00           6790        7262.00     31686.60
  313.05        3345.25           6793        6404.00     27939.71
  313.08        3345.50           6797        5180.00     22595.96
  313.11        3345.75           6801        3801.00     16577.56
  313.14        3346.00           6805        2430.00     10596.22
  313.16        3346.25           6808        1479.00      6448.50
  313.19        3346.50           6812         391.00      1704.53
  313.22        3346.75           6816         100.00       435.93
  313.25        3347.00           6819          57.00       248.48
  313.28        3347.25           6823          49.00       213.60
  313.30        3347.50           6827          51.00       222.32
  313.33        3347.75           6831          51.00       222.32
  313.36        3348.00           6834          43.00       187.45
  313.39        3348.25           6838          49.00       213.60
  313.42        3348.50           6842          45.00       196.17
  313.45        3348.75           6846          41.00       178.73
  313.48        3349.00           6849          43.00       187.45
  313.50        3349.25           6853          46.00       200.52
  313.53        3349.50           6857          38.00       165.65
  313.56        3349.75           6861          42.00       183.09
  313.59        3350.00           6864          37.00       161.29
  313.61        3350.25           6868          38.00       165.65
  313.64        3350.50           6872          38.00       165.65
  313.67        3350.75           6876          43.00       187.45
  313.70        3351.00           6879          49.00       213.60
HL scan finished at 05:15:10
end
