************************************************************
  HL Scan of (1) Internal mercury lamp
************************************************************
Integration time is 0.2294 seconds per sample
dh020317DelftKZ 51.997-4.386 2.321352pr1000
************************************************************
Dead Time -------------------------  3E-08 
Number of Cycles Used -------------  4 
Starting Wavelength (Angstroms) ---  3331 
Final Wavelength (Angstoms) -------  3351 
Wavelength Increment (Angstroms) --  .25 
Filter Wheel #1 Position ---------- (1) Ground quartz diffuser (ND=2.32)
Filter Wheel #2 Position ---------- 



************************************************************
HL scan start time = 00:33:21
Dark Count =  .1 


Time (GMT)  Wavelength (Ang)  Step Number  Raw Counts  Counts/Second

   34.11        3331.00           6581          42.00       182.65
   34.52        3331.25           6584          49.00       213.17
   34.55        3331.50           6588          47.00       204.45
   34.58        3331.75           6592          50.00       217.53
   34.61        3332.00           6595          44.00       191.37
   34.63        3332.25           6599          46.00       200.09
   34.66        3332.50           6603          40.00       173.93
   34.69        3332.75           6607          42.00       182.65
   34.72        3333.00           6610          45.00       195.73
   34.75        3333.25           6614          49.00       213.17
   34.78        3333.50           6618          47.00       204.45
   34.81        3333.75           6622          45.00       195.73
   34.83        3334.00           6625          47.00       204.45
   34.86        3334.25           6629          45.00       195.73
   34.89        3334.50           6633          50.00       217.53
   34.92        3334.75           6636          52.00       226.24
   34.94        3335.00           6640          50.00       217.53
   34.97        3335.25           6644          59.00       256.76
   35.00        3335.50           6648          48.00       208.81
   35.03        3335.75           6651          60.00       261.12
   35.05        3336.00           6655          70.00       304.71
   35.08        3336.25           6659         293.00      1276.86
   35.11        3336.50           6663        1689.00      7363.88
   35.14        3336.75           6666        2904.00     12663.49
   35.17        3337.00           6670        4438.00     19356.92
   35.20        3337.25           6674        6039.00     26345.58
   35.23        3337.50           6677        7322.00     31948.22
   35.25        3337.75           6681        8693.00     37937.23
   35.28        3338.00           6685       10150.00     44304.28
   35.31        3338.25           6689       11592.00     50608.17
   35.34        3338.50           6692       12708.00     55488.55
   35.37        3338.75           6696       14518.00     63406.90
   35.40        3339.00           6700       16246.00     70970.03
   35.43        3339.25           6704       17988.00     78597.93
   35.45        3339.50           6707       19070.00     83337.56
   35.48        3339.75           6711       20556.00     89849.10
   35.51        3340.00           6715       22185.00     96990.18
   35.54        3340.25           6719       23614.00    103257.00
   35.56        3340.50           6722       24797.00    108446.90
   35.59        3340.75           6726       26164.00    114445.90
   35.62        3341.00           6730       27616.00    120820.30
   35.65        3341.25           6733       27983.00    122431.90
   35.68        3341.50           6737       27956.00    122313.30
   35.70        3341.75           6741       28096.00    122928.10
   35.73        3342.00           6745       26918.00    117755.70
   35.76        3342.25           6748       25855.00    113089.70
   35.79        3342.50           6752       24107.00    105419.60
   35.81        3342.75           6756       22555.00     98612.57
   35.84        3343.00           6760       21081.00     92150.21
   35.87        3343.25           6763       19742.00     86281.91
   35.90        3343.50           6767       18289.00     79916.31
   35.93        3343.75           6771       16528.00     72204.63
   35.95        3344.00           6775       15124.00     66058.86
   35.98        3344.25           6778       13864.00     60545.37
   36.01        3344.50           6782       12325.00     53813.49
   36.05        3344.75           6786       10897.00     47569.59
   36.08        3345.00           6790        9350.00     40808.00
   36.10        3345.25           6793        8030.00     35040.74
   36.13        3345.50           6797        6498.00     28349.73
   36.16        3345.75           6801        4936.00     21530.47
   36.19        3346.00           6805        3370.00     14696.54
   36.22        3346.25           6808        2120.00      9243.63
   36.24        3346.50           6812         586.00      2554.25
   36.27        3346.75           6816         112.00       487.80
   36.30        3347.00           6819          59.00       256.76
   36.33        3347.25           6823          61.00       265.48
   36.35        3347.50           6827          58.00       252.40
   36.38        3347.75           6831          46.00       200.09
   36.41        3348.00           6834          54.00       234.96
   36.45        3348.25           6838          52.00       226.24
   36.48        3348.50           6842          47.00       204.45
   36.50        3348.75           6846          46.00       200.09
   36.53        3349.00           6849          45.00       195.73
   36.56        3349.25           6853          46.00       200.09
   36.59        3349.50           6857          43.00       187.01
   36.61        3349.75           6861          46.00       200.09
   36.64        3350.00           6864          45.00       195.73
   36.67        3350.25           6868          41.00       178.29
   36.70        3350.50           6872          42.00       182.65
   36.72        3350.75           6876          47.00       204.45
   36.75        3351.00           6879          42.00       182.65
HL scan finished at 00:38:14
end
************************************************************
  HL Scan of (1) Internal mercury lamp
************************************************************
Integration time is 0.2294 seconds per sample
dh020317DelftKZ 51.997-4.386 2.321352pr1000
************************************************************
Dead Time -------------------------  3E-08 
Number of Cycles Used -------------  4 
Starting Wavelength (Angstroms) ---  3331 
Final Wavelength (Angstoms) -------  3351 
Wavelength Increment (Angstroms) --  .25 
Filter Wheel #1 Position ---------- (1) Ground quartz diffuser (ND=2.32)
Filter Wheel #2 Position ---------- 



************************************************************
HL scan start time = 05:17:02
Dark Count =  .1 


Time (GMT)  Wavelength (Ang)  Step Number  Raw Counts  Counts/Second

  317.79        3331.00           6581          46.00       200.09
  318.20        3331.25           6584          39.00       169.57
  318.23        3331.50           6588          42.00       182.65
  318.25        3331.75           6592          41.00       178.29
  318.28        3332.00           6595          45.00       195.73
  318.31        3332.25           6599          40.00       173.93
  318.34        3332.50           6603          42.00       182.65
  318.36        3332.75           6607          40.00       173.93
  318.39        3333.00           6610          39.00       169.57
  318.42        3333.25           6614          39.00       169.57
  318.45        3333.50           6618          42.00       182.65
  318.47        3333.75           6622          43.00       187.01
  318.50        3334.00           6625          47.00       204.45
  318.53        3334.25           6629          41.00       178.29
  318.56        3334.50           6633          37.00       160.86
  318.59        3334.75           6636          44.00       191.37
  318.61        3335.00           6640          50.00       217.53
  318.64        3335.25           6644          48.00       208.81
  318.67        3335.50           6648          51.00       221.88
  318.70        3335.75           6651          60.00       261.12
  318.72        3336.00           6655          71.00       309.07
  318.75        3336.25           6659         363.00      1582.03
  318.78        3336.50           6663        1265.00      5514.86
  318.81        3336.75           6666        2073.00      9038.63
  318.84        3337.00           6670        3187.00     13898.12
  318.87        3337.25           6674        4544.00     19819.54
  318.90        3337.50           6677        5536.00     24149.58
  318.92        3337.75           6681        6630.00     28926.14
  318.95        3338.00           6685        7712.00     33651.66
  318.98        3338.25           6689        8853.00     38636.31
  319.01        3338.50           6692        9738.00     42503.60
  319.03        3338.75           6696       11059.00     48277.81
  319.06        3339.00           6700       12327.00     53822.24
  319.09        3339.25           6704       13341.00     58257.36
  319.12        3339.50           6707       14362.00     62724.29
  319.15        3339.75           6711       15562.00     67975.88
  319.17        3340.00           6715       16960.00     74096.09
  319.20        3340.25           6719       18281.00     79881.27
  319.23        3340.50           6722       19011.00     83079.10
  319.26        3340.75           6726       20285.00     88661.41
  319.28        3341.00           6730       21335.00     93263.62
  319.31        3341.25           6733       21544.00     94179.85
  319.34        3341.50           6737       21572.00     94302.60
  319.37        3341.75           6741       21555.00     94228.07
  319.40        3342.00           6745       20930.00     91488.33
  319.42        3342.25           6748       20075.00     87741.12
  319.45        3342.50           6752       18567.00     81134.04
  319.48        3342.75           6756       17323.00     75685.61
  319.51        3343.00           6760       16247.00     70974.41
  319.53        3343.25           6763       15503.00     67717.65
  319.56        3343.50           6767       14145.00     61774.81
  319.59        3343.75           6771       12939.00     56498.91
  319.62        3344.00           6775       11851.00     51740.67
  319.65        3344.25           6778       10987.00     47963.04
  319.67        3344.50           6782        9876.00     43106.71
  319.70        3344.75           6786        8519.00     37177.02
  319.73        3345.00           6790        7096.00     30961.18
  319.76        3345.25           6793        6137.00     26773.46
  319.78        3345.50           6797        4751.00     20722.99
  319.81        3345.75           6801        3601.00     15704.43
  319.84        3346.00           6805        2264.00      9871.71
  319.87        3346.25           6808        1357.00      5916.05
  319.89        3346.50           6812         370.00      1612.55
  319.93        3346.75           6816         114.00       496.52
  319.96        3347.00           6819          53.00       230.60
  319.98        3347.25           6823          52.00       226.24
  320.01        3347.50           6827          49.00       213.17
  320.04        3347.75           6831          49.00       213.17
  320.07        3348.00           6834          49.00       213.17
  320.09        3348.25           6838          46.00       200.09
  320.13        3348.50           6842          46.00       200.09
  320.16        3348.75           6846          47.00       204.45
  320.18        3349.00           6849          38.00       165.21
  320.21        3349.25           6853          37.00       160.86
  320.24        3349.50           6857          48.00       208.81
  320.27        3349.75           6861          38.00       165.21
  320.29        3350.00           6864          41.00       178.29
  320.32        3350.25           6868          45.00       195.73
  320.35        3350.50           6872          44.00       191.37
  320.38        3350.75           6876          43.00       187.01
  320.40        3351.00           6879          41.00       178.29
HL scan finished at 05:21:53
end
