************************************************************
  HL Scan of (1) Internal mercury lamp
************************************************************
Integration time is 0.2294 seconds per sample
dh070317DelftKZ 51.997-4.386 2.375pr1000
************************************************************
Dead Time -------------------------  3E-08 
Number of Cycles Used -------------  4 
Starting Wavelength (Angstroms) ---  3331 
Final Wavelength (Angstoms) -------  3351 
Wavelength Increment (Angstroms) --  .25 
Filter Wheel #1 Position ---------- (1) Ground quartz diffuser (ND=2.32)
Filter Wheel #2 Position ---------- 



************************************************************
HL scan start time = 05:05:30
Dark Count =  .1 


Time (GMT)  Wavelength (Ang)  Step Number  Raw Counts  Counts/Second

  306.26        3331.00           6581          44.00       191.37
  306.67        3331.25           6584          37.00       160.86
  306.70        3331.50           6588          41.00       178.29
  306.73        3331.75           6592          44.00       191.37
  306.76        3332.00           6595          38.00       165.21
  306.78        3332.25           6599          43.00       187.01
  306.81        3332.50           6603          48.00       208.81
  306.84        3332.75           6607          43.00       187.01
  306.87        3333.00           6610          39.00       169.57
  306.89        3333.25           6614          41.00       178.29
  306.92        3333.50           6618          44.00       191.37
  306.95        3333.75           6622          36.00       156.50
  306.98        3334.00           6625          43.00       187.01
  307.00        3334.25           6629          49.00       213.17
  307.03        3334.50           6633          42.00       182.65
  307.06        3334.75           6636          37.00       160.86
  307.09        3335.00           6640          45.00       195.73
  307.12        3335.25           6644          49.00       213.17
  307.14        3335.50           6648          55.00       239.32
  307.17        3335.75           6651          59.00       256.76
  307.20        3336.00           6655          69.00       300.35
  307.23        3336.25           6659         257.00      1119.92
  307.25        3336.50           6663        1426.00      6216.94
  307.28        3336.75           6666        2476.00     10796.43
  307.31        3337.00           6670        3748.00     16345.85
  307.34        3337.25           6674        5084.00     22176.48
  307.37        3337.50           6677        6009.00     26214.60
  307.39        3337.75           6681        7292.00     31817.19
  307.42        3338.00           6685        8474.00     36980.42
  307.45        3338.25           6689        9642.00     42084.05
  307.48        3338.50           6692       10591.00     46231.91
  307.50        3338.75           6696       11940.00     52129.85
  307.53        3339.00           6700       13338.00     58244.23
  307.56        3339.25           6704       14873.00     64960.39
  307.59        3339.50           6707       15832.00     69157.73
  307.61        3339.75           6711       17082.00     74630.28
  307.64        3340.00           6715       18431.00     80538.31
  307.67        3340.25           6719       19845.00     86733.24
  307.70        3340.50           6722       20704.00     90497.76
  307.73        3340.75           6726       21736.00     95021.58
  307.75        3341.00           6730       22863.00     99963.24
  307.78        3341.25           6733       23086.00    100941.20
  307.81        3341.50           6737       23267.00    101735.10
  307.84        3341.75           6741       23083.00    100928.10
  307.87        3342.00           6745       22224.00     97161.18
  307.90        3342.25           6748       21213.00     92728.83
  307.93        3342.50           6752       19799.00     86531.68
  307.96        3342.75           6756       18464.00     80682.85
  307.99        3343.00           6760       17197.00     75133.85
  308.02        3343.25           6763       16455.00     71885.03
  308.04        3343.50           6767       15140.00     66128.88
  308.07        3343.75           6771       13628.00     59512.87
  308.10        3344.00           6775       12487.00     54521.98
  308.13        3344.25           6778       11458.00     50022.27
  308.15        3344.50           6782       10145.00     44282.42
  308.18        3344.75           6786        8895.00     38819.82
  308.21        3345.00           6790        7614.00     33223.60
  308.24        3345.25           6793        6544.00     28550.60
  308.27        3345.50           6797        5157.00     22495.12
  308.29        3345.75           6801        3954.00     17244.75
  308.32        3346.00           6805        2777.00     12109.46
  308.35        3346.25           6808        1782.00      7769.47
  308.38        3346.50           6812         491.00      2140.07
  308.40        3346.75           6816          89.00       387.54
  308.43        3347.00           6819          52.00       226.24
  308.46        3347.25           6823          55.00       239.32
  308.49        3347.50           6827          49.00       213.17
  308.51        3347.75           6831          50.00       217.53
  308.54        3348.00           6834          49.00       213.17
  308.57        3348.25           6838          48.00       208.81
  308.60        3348.50           6842          53.00       230.60
  308.62        3348.75           6846          45.00       195.73
  308.65        3349.00           6849          48.00       208.81
  308.68        3349.25           6853          38.00       165.21
  308.71        3349.50           6857          47.00       204.45
  308.73        3349.75           6861          50.00       217.53
  308.76        3350.00           6864          44.00       191.37
  308.79        3350.25           6868          41.00       178.29
  308.82        3350.50           6872          43.00       187.01
  308.85        3350.75           6876          46.00       200.09
  308.87        3351.00           6879          40.00       173.93
HL scan finished at 05:10:21
end
