************************************************************
  HL Scan of (1) Internal mercury lamp
************************************************************
Integration time is 0.2294 seconds per sample
dh060317DelftKZ 51.997-4.386 2.321352pr1000
************************************************************
Dead Time -------------------------  3E-08 
Number of Cycles Used -------------  4 
Starting Wavelength (Angstroms) ---  3331 
Final Wavelength (Angstoms) -------  3351 
Wavelength Increment (Angstroms) --  .25 
Filter Wheel #1 Position ---------- (1) Ground quartz diffuser (ND=2.32)
Filter Wheel #2 Position ---------- 



************************************************************
HL scan start time = 05:07:48
Dark Count =  0 


Time (GMT)  Wavelength (Ang)  Step Number  Raw Counts  Counts/Second

  308.56        3331.00           6581          37.00       161.29
  308.97        3331.25           6584          39.00       170.01
  309.00        3331.50           6588          39.00       170.01
  309.03        3331.75           6592          47.00       204.88
  309.06        3332.00           6595          41.00       178.73
  309.08        3332.25           6599          41.00       178.73
  309.11        3332.50           6603          44.00       191.81
  309.14        3332.75           6607          46.00       200.52
  309.17        3333.00           6610          39.00       170.01
  309.19        3333.25           6614          37.00       161.29
  309.22        3333.50           6618          40.00       174.37
  309.25        3333.75           6622          43.00       187.45
  309.28        3334.00           6625          46.00       200.52
  309.31        3334.25           6629          42.00       183.09
  309.34        3334.50           6633          43.00       187.45
  309.36        3334.75           6636          43.00       187.45
  309.39        3335.00           6640          46.00       200.52
  309.42        3335.25           6644          53.00       231.04
  309.45        3335.50           6648          45.00       196.17
  309.48        3335.75           6651          59.00       257.19
  309.50        3336.00           6655          70.00       305.15
  309.53        3336.25           6659         343.00      1495.27
  309.56        3336.50           6663        1372.00      5981.89
  309.59        3336.75           6666        2260.00      9854.70
  309.61        3337.00           6670        3529.00     15390.71
  309.64        3337.25           6674        4814.00     20998.40
  309.67        3337.50           6677        5663.00     24704.44
  309.70        3337.75           6681        6830.00     29799.95
  309.72        3338.00           6685        7898.00     34464.56
  309.75        3338.25           6689        9096.00     39698.52
  309.78        3338.50           6692        9974.00     43535.46
  309.81        3338.75           6696       11345.00     49528.64
  309.84        3339.00           6700       12801.00     55895.74
  309.86        3339.25           6704       14013.00     61197.69
  309.89        3339.50           6707       14852.00     64868.93
  309.92        3339.75           6711       16139.00     70502.05
  309.95        3340.00           6715       17314.00     75646.63
  309.98        3340.25           6719       18510.00     80884.79
  310.01        3340.50           6722       19461.00     85051.09
  310.04        3340.75           6726       20519.00     89687.38
  310.06        3341.00           6730       21601.00     94430.18
  310.09        3341.25           6733       22027.00     96297.85
  310.12        3341.50           6737       22017.00     96254.00
  310.15        3341.75           6741       21993.00     96148.79
  310.18        3342.00           6745       21177.00     92571.46
  310.21        3342.25           6748       20227.00     88407.66
  310.24        3342.50           6752       18937.00     82755.33
  310.26        3342.75           6756       17768.00     77634.83
  310.29        3343.00           6760       16645.00     72717.31
  310.32        3343.25           6763       15803.00     69031.22
  310.35        3343.50           6767       14468.00     63188.55
  310.38        3343.75           6771       13015.00     56831.77
  310.40        3344.00           6775       11803.00     51531.22
  310.43        3344.25           6778       11064.00     48300.11
  310.46        3344.50           6782        9693.00     42307.37
  310.49        3344.75           6786        8572.00     37409.01
  310.51        3345.00           6790        7268.00     31712.81
  310.54        3345.25           6793        6384.00     27852.38
  310.57        3345.50           6797        5239.00     22853.50
  310.60        3345.75           6801        3953.00     17240.82
  310.63        3346.00           6805        2553.00     11132.75
  310.65        3346.25           6808        1540.00      6714.52
  310.68        3346.50           6812         379.00      1652.22
  310.71        3346.75           6816          94.00       409.77
  310.74        3347.00           6819          64.00       278.99
  310.76        3347.25           6823          53.00       231.04
  310.79        3347.50           6827          57.00       248.48
  310.82        3347.75           6831          50.00       217.96
  310.85        3348.00           6834          51.00       222.32
  310.88        3348.25           6838          42.00       183.09
  310.91        3348.50           6842          44.00       191.81
  310.94        3348.75           6846          39.00       170.01
  310.97        3349.00           6849          45.00       196.17
  310.99        3349.25           6853          36.00       156.93
  311.02        3349.50           6857          38.00       165.65
  311.05        3349.75           6861          44.00       191.81
  311.08        3350.00           6864          44.00       191.81
  311.10        3350.25           6868          37.00       161.29
  311.14        3350.50           6872          42.00       183.09
  311.17        3350.75           6876          40.00       174.37
  311.19        3351.00           6879          40.00       174.37
HL scan finished at 05:12:40
end
