************************************************************
  HL Scan of (1) Internal mercury lamp
************************************************************
Integration time is 0.2294 seconds per sample
dh040317DelftKZ 51.997-4.386 2.535944pr1000
************************************************************
Dead Time -------------------------  3E-08 
Number of Cycles Used -------------  4 
Starting Wavelength (Angstroms) ---  3331 
Final Wavelength (Angstoms) -------  3351 
Wavelength Increment (Angstroms) --  .25 
Filter Wheel #1 Position ---------- (1) Ground quartz diffuser (ND=2.32)
Filter Wheel #2 Position ---------- 



************************************************************
HL scan start time = 05:12:38
Dark Count =  .1 


Time (GMT)  Wavelength (Ang)  Step Number  Raw Counts  Counts/Second

  313.40        3331.00           6581          48.00       208.81
  313.80        3331.25           6584          49.00       213.17
  313.83        3331.50           6588          42.00       182.65
  313.86        3331.75           6592          40.00       173.93
  313.89        3332.00           6595          47.00       204.45
  313.92        3332.25           6599          37.00       160.86
  313.94        3332.50           6603          45.00       195.73
  313.97        3332.75           6607          45.00       195.73
  314.00        3333.00           6610          41.00       178.29
  314.03        3333.25           6614          45.00       195.73
  314.05        3333.50           6618          46.00       200.09
  314.08        3333.75           6622          41.00       178.29
  314.11        3334.00           6625          41.00       178.29
  314.14        3334.25           6629          46.00       200.09
  314.17        3334.50           6633          51.00       221.88
  314.20        3334.75           6636          50.00       217.53
  314.23        3335.00           6640          54.00       234.96
  314.25        3335.25           6644          57.00       248.04
  314.28        3335.50           6648          57.00       248.04
  314.31        3335.75           6651          62.00       269.84
  314.34        3336.00           6655          94.00       409.33
  314.36        3336.25           6659         435.00      1895.92
  314.39        3336.50           6663        1697.00      7398.77
  314.42        3336.75           6666        2874.00     12532.61
  314.45        3337.00           6670        4526.00     19740.98
  314.47        3337.25           6674        5912.00     25791.09
  314.50        3337.50           6677        6992.00     30506.99
  314.53        3337.75           6681        8360.00     36482.37
  314.56        3338.00           6685        9672.00     42215.17
  314.59        3338.25           6689       11309.00     49370.81
  314.62        3338.50           6692       12651.00     55239.25
  314.65        3338.75           6696       14143.00     61766.05
  314.67        3339.00           6700       15592.00     68107.20
  314.70        3339.25           6704       17063.00     74547.10
  314.73        3339.50           6707       18158.00     79342.52
  314.76        3339.75           6711       19856.00     86781.44
  314.79        3340.00           6715       21317.00     93184.74
  314.81        3340.25           6719       22917.00    100200.10
  314.84        3340.50           6722       24003.00    104963.40
  314.87        3340.75           6726       25141.00    109956.30
  314.90        3341.00           6730       26588.00    116307.00
  314.93        3341.25           6733       26926.00    117790.80
  314.95        3341.50           6737       27014.00    118177.20
  314.98        3341.75           6741       27033.00    118260.60
  315.01        3342.00           6745       25771.00    112721.00
  315.04        3342.25           6748       24824.00    108565.30
  315.06        3342.50           6752       23401.00    102322.80
  315.09        3342.75           6756       21986.00     96117.66
  315.12        3343.00           6760       20521.00     89695.71
  315.15        3343.25           6763       19161.00     83736.25
  315.18        3343.50           6767       17470.00     76329.35
  315.20        3343.75           6771       15886.00     69394.11
  315.23        3344.00           6775       14489.00     63280.00
  315.26        3344.25           6778       13450.00     58734.18
  315.29        3344.50           6782       12054.00     52628.37
  315.31        3344.75           6786       10530.00     45965.27
  315.34        3345.00           6790        8983.00     39204.33
  315.37        3345.25           6793        7879.00     34381.13
  315.40        3345.50           6797        6326.00     27598.69
  315.42        3345.75           6801        4516.00     19697.34
  315.45        3346.00           6805        2887.00     12589.32
  315.48        3346.25           6808        1737.00      7573.21
  315.51        3346.50           6812         444.00      1935.16
  315.54        3346.75           6816         114.00       496.52
  315.56        3347.00           6819          64.00       278.56
  315.59        3347.25           6823          61.00       265.48
  315.62        3347.50           6827          50.00       217.53
  315.65        3347.75           6831          54.00       234.96
  315.68        3348.00           6834          51.00       221.88
  315.71        3348.25           6838          51.00       221.88
  315.74        3348.50           6842          52.00       226.24
  315.76        3348.75           6846          43.00       187.01
  315.79        3349.00           6849          47.00       204.45
  315.82        3349.25           6853          43.00       187.01
  315.85        3349.50           6857          44.00       191.37
  315.87        3349.75           6861          44.00       191.37
  315.90        3350.00           6864          46.00       200.09
  315.93        3350.25           6868          46.00       200.09
  315.96        3350.50           6872          48.00       208.81
  315.99        3350.75           6876          47.00       204.45
  316.01        3351.00           6879          44.00       191.37
HL scan finished at 05:17:29
end
