************************************************************
  HL Scan of (1) Internal mercury lamp
************************************************************
Integration time is 0.2294 seconds per sample
dh080317DelftKZ 51.997-4.386 2.321352pr1000
************************************************************
Dead Time -------------------------  3E-08 
Number of Cycles Used -------------  4 
Starting Wavelength (Angstroms) ---  3331 
Final Wavelength (Angstoms) -------  3351 
Wavelength Increment (Angstroms) --  .25 
Filter Wheel #1 Position ---------- (1) Ground quartz diffuser (ND=2.32)
Filter Wheel #2 Position ---------- 



************************************************************
HL scan start time = 05:03:06
Dark Count =  0 


Time (GMT)  Wavelength (Ang)  Step Number  Raw Counts  Counts/Second

  303.87        3331.00           6581          44.00       191.81
  304.27        3331.25           6584          46.00       200.52
  304.30        3331.50           6588          43.00       187.45
  304.33        3331.75           6592          42.00       183.09
  304.36        3332.00           6595          37.00       161.29
  304.39        3332.25           6599          43.00       187.45
  304.41        3332.50           6603          38.00       165.65
  304.44        3332.75           6607          41.00       178.73
  304.47        3333.00           6610          42.00       183.09
  304.50        3333.25           6614          37.00       161.29
  304.52        3333.50           6618          41.00       178.73
  304.55        3333.75           6622          40.00       174.37
  304.58        3334.00           6625          43.00       187.45
  304.61        3334.25           6629          38.00       165.65
  304.63        3334.50           6633          44.00       191.81
  304.66        3334.75           6636          50.00       217.96
  304.69        3335.00           6640          45.00       196.17
  304.72        3335.25           6644          52.00       226.68
  304.75        3335.50           6648          54.00       235.40
  304.78        3335.75           6651          65.00       283.35
  304.80        3336.00           6655          64.00       278.99
  304.83        3336.25           6659         248.00      1081.12
  304.86        3336.50           6663        1211.00      5279.83
  304.89        3336.75           6666        2251.00      9815.45
  304.92        3337.00           6670        3550.00     15482.34
  304.94        3337.25           6674        4718.00     20579.40
  304.97        3337.50           6677        5592.00     24394.48
  305.00        3337.75           6681        6895.00     30083.81
  305.03        3338.00           6685        7980.00     34822.76
  305.06        3338.25           6689        9089.00     39667.93
  305.09        3338.50           6692        9856.00     43019.74
  305.12        3338.75           6696       11188.00     48842.23
  305.15        3339.00           6700       12555.00     54819.82
  305.17        3339.25           6704       13836.00     60423.30
  305.20        3339.50           6707       14799.00     64636.99
  305.23        3339.75           6711       16035.00     70046.78
  305.26        3340.00           6715       17361.00     75852.46
  305.29        3340.25           6719       18366.00     80254.03
  305.31        3340.50           6722       19381.00     84700.57
  305.34        3340.75           6726       20350.00     88946.71
  305.37        3341.00           6730       21274.00     92996.66
  305.40        3341.25           6733       21631.00     94561.69
  305.43        3341.50           6737       21545.00     94184.68
  305.46        3341.75           6741       21382.00     93470.11
  305.49        3342.00           6745       20691.00     90441.22
  305.52        3342.25           6748       19663.00     85936.18
  305.55        3342.50           6752       18583.00     81204.56
  305.57        3342.75           6756       17248.00     75357.62
  305.60        3343.00           6760       15970.00     69762.25
  305.63        3343.25           6763       15183.00     66317.52
  305.66        3343.50           6767       14024.00     61245.82
  305.68        3343.75           6771       12701.00     55458.37
  305.71        3344.00           6775       11674.00     50967.15
  305.74        3344.25           6778       10657.00     46520.86
  305.77        3344.50           6782        9450.00     41245.43
  305.80        3344.75           6786        8226.00     35897.40
  305.82        3345.00           6790        7005.00     30564.19
  305.85        3345.25           6793        6135.00     26765.16
  305.88        3345.50           6797        4860.00     21199.18
  305.91        3345.75           6801        3689.00     16088.85
  305.94        3346.00           6805        2537.00     11062.96
  305.96        3346.25           6808        1674.00      7298.90
  305.99        3346.50           6812         458.00      1996.63
  306.03        3346.75           6816          89.00       387.97
  306.06        3347.00           6819          57.00       248.48
  306.09        3347.25           6823          55.00       239.76
  306.12        3347.50           6827          52.00       226.68
  306.14        3347.75           6831          50.00       217.96
  306.17        3348.00           6834          49.00       213.60
  306.20        3348.25           6838          45.00       196.17
  306.23        3348.50           6842          45.00       196.17
  306.25        3348.75           6846          40.00       174.37
  306.28        3349.00           6849          34.00       148.21
  306.31        3349.25           6853          45.00       196.17
  306.34        3349.50           6857          38.00       165.65
  306.36        3349.75           6861          39.00       170.01
  306.39        3350.00           6864          49.00       213.60
  306.42        3350.25           6868          41.00       178.73
  306.45        3350.50           6872          40.00       174.37
  306.48        3350.75           6876          47.00       204.88
  306.50        3351.00           6879          40.00       174.37
HL scan finished at 05:07:59
end
