************************************************************
  HL Scan of (1) Internal mercury lamp
************************************************************
Integration time is 0.2294 seconds per sample
dh030317DelftKZ 51.997-4.386 2.214056pr1000
************************************************************
Dead Time -------------------------  3E-08 
Number of Cycles Used -------------  4 
Starting Wavelength (Angstroms) ---  3331 
Final Wavelength (Angstoms) -------  3351 
Wavelength Increment (Angstroms) --  .25 
Filter Wheel #1 Position ---------- (1) Ground quartz diffuser (ND=2.32)
Filter Wheel #2 Position ---------- 



************************************************************
HL scan start time = 05:14:53
Dark Count =  .1 


Time (GMT)  Wavelength (Ang)  Step Number  Raw Counts  Counts/Second

  315.64        3331.00           6581          44.00       191.37
  316.04        3331.25           6584          45.00       195.73
  316.07        3331.50           6588          43.00       187.01
  316.10        3331.75           6592          42.00       182.65
  316.13        3332.00           6595          43.00       187.01
  316.15        3332.25           6599          45.00       195.73
  316.18        3332.50           6603          36.00       156.50
  316.21        3332.75           6607          39.00       169.57
  316.24        3333.00           6610          38.00       165.21
  316.27        3333.25           6614          41.00       178.29
  316.29        3333.50           6618          41.00       178.29
  316.32        3333.75           6622          38.00       165.21
  316.35        3334.00           6625          35.00       152.14
  316.38        3334.25           6629          39.00       169.57
  316.41        3334.50           6633          42.00       182.65
  316.44        3334.75           6636          40.00       173.93
  316.46        3335.00           6640          43.00       187.01
  316.49        3335.25           6644          49.00       213.17
  316.52        3335.50           6648          48.00       208.81
  316.55        3335.75           6651          54.00       234.96
  316.57        3336.00           6655          67.00       291.63
  316.60        3336.25           6659         348.00      1516.63
  316.63        3336.50           6663        1326.00      5780.86
  316.66        3336.75           6666        2076.00      9051.72
  316.69        3337.00           6670        3066.00     13370.23
  316.71        3337.25           6674        4030.00     17576.40
  316.74        3337.50           6677        4782.00     20858.30
  316.77        3337.75           6681        5825.00     25411.26
  316.80        3338.00           6685        6980.00     30454.58
  316.82        3338.25           6689        8141.00     35525.63
  316.85        3338.50           6692        8963.00     39116.94
  316.88        3338.75           6696        9945.00     43408.28
  316.91        3339.00           6700       11184.00     48824.30
  316.94        3339.25           6704       12265.00     53551.09
  316.96        3339.50           6707       13061.00     57032.55
  316.99        3339.75           6711       14111.00     61626.04
  317.02        3340.00           6715       15112.00     66006.34
  317.05        3340.25           6719       16402.00     71652.99
  317.07        3340.50           6722       16968.00     74131.11
  317.10        3340.75           6726       18141.00     79268.05
  317.13        3341.00           6730       18986.00     82969.56
  317.16        3341.25           6733       19149.00     83683.68
  317.19        3341.50           6737       19262.00     84178.75
  317.21        3341.75           6741       19237.00     84069.22
  317.24        3342.00           6745       18592.00     81243.56
  317.27        3342.25           6748       17975.00     78541.00
  317.30        3342.50           6752       16838.00     73561.91
  317.33        3342.75           6756       15678.00     68483.63
  317.35        3343.00           6760       14489.00     63280.00
  317.38        3343.25           6763       13608.00     59425.38
  317.41        3343.50           6767       12460.00     54403.89
  317.44        3343.75           6771       11402.00     49777.42
  317.46        3344.00           6775       10473.00     45716.10
  317.49        3344.25           6778        9565.00     41747.55
  317.52        3344.50           6782        8555.00     37334.30
  317.55        3344.75           6786        7622.00     33258.54
  317.58        3345.00           6790        6438.00     28087.74
  317.60        3345.25           6793        5617.00     24503.19
  317.63        3345.50           6797        4417.00     19265.27
  317.66        3345.75           6801        3183.00     13880.67
  317.68        3346.00           6805        2041.00      8899.06
  317.71        3346.25           6808        1313.00      5724.17
  317.74        3346.50           6812         326.00      1420.72
  317.77        3346.75           6816          72.00       313.43
  317.80        3347.00           6819          54.00       234.96
  317.82        3347.25           6823          49.00       213.17
  317.85        3347.50           6827          51.00       221.88
  317.88        3347.75           6831          47.00       204.45
  317.91        3348.00           6834          51.00       221.88
  317.93        3348.25           6838          47.00       204.45
  317.96        3348.50           6842          44.00       191.37
  317.99        3348.75           6846          47.00       204.45
  318.02        3349.00           6849          41.00       178.29
  318.04        3349.25           6853          40.00       173.93
  318.07        3349.50           6857          43.00       187.01
  318.10        3349.75           6861          42.00       182.65
  318.13        3350.00           6864          41.00       178.29
  318.16        3350.25           6868          36.00       156.50
  318.18        3350.50           6872          39.00       169.57
  318.21        3350.75           6876          41.00       178.29
  318.24        3351.00           6879          39.00       169.57
HL scan finished at 05:19:43
end
