************************************************************
  HL Scan of (1) Internal mercury lamp
************************************************************
Integration time is 0.2294 seconds per sample
dh120317DelftKZ 51.997-4.386 2.267704pr1000
************************************************************
Dead Time -------------------------  3E-08 
Number of Cycles Used -------------  4 
Starting Wavelength (Angstroms) ---  3331 
Final Wavelength (Angstoms) -------  3351 
Wavelength Increment (Angstroms) --  .25 
Filter Wheel #1 Position ---------- (1) Ground quartz diffuser (ND=2.32)
Filter Wheel #2 Position ---------- 



************************************************************
HL scan start time = 04:53:13
Dark Count =  .1 


Time (GMT)  Wavelength (Ang)  Step Number  Raw Counts  Counts/Second

  293.97        3331.00           6581          40.00       173.93
  294.38        3331.25           6584          40.00       173.93
  294.41        3331.50           6588          40.00       173.93
  294.43        3331.75           6592          36.00       156.50
  294.46        3332.00           6595          40.00       173.93
  294.49        3332.25           6599          39.00       169.57
  294.52        3332.50           6603          40.00       173.93
  294.55        3332.75           6607          40.00       173.93
  294.57        3333.00           6610          42.00       182.65
  294.60        3333.25           6614          41.00       178.29
  294.63        3333.50           6618          34.00       147.78
  294.66        3333.75           6622          48.00       208.81
  294.68        3334.00           6625          38.00       165.21
  294.71        3334.25           6629          38.00       165.21
  294.74        3334.50           6633          44.00       191.37
  294.77        3334.75           6636          42.00       182.65
  294.80        3335.00           6640          43.00       187.01
  294.82        3335.25           6644          48.00       208.81
  294.85        3335.50           6648          48.00       208.81
  294.88        3335.75           6651          56.00       243.68
  294.91        3336.00           6655          66.00       287.27
  294.94        3336.25           6659         232.00      1010.93
  294.96        3336.50           6663        1054.00      4594.79
  294.99        3336.75           6666        1664.00      7254.85
  295.02        3337.00           6670        2836.00     12366.84
  295.05        3337.25           6674        3998.00     17436.75
  295.08        3337.50           6677        4792.00     20901.94
  295.11        3337.75           6681        6017.00     26249.52
  295.14        3338.00           6685        7073.00     30860.73
  295.16        3338.25           6689        8150.00     35564.95
  295.19        3338.50           6692        9038.00     39444.64
  295.22        3338.75           6696       10106.00     44111.96
  295.25        3339.00           6700       11064.00     48299.67
  295.27        3339.25           6704       12257.00     53516.11
  295.30        3339.50           6707       13115.00     57268.76
  295.33        3339.75           6711       14222.00     62111.71
  295.36        3340.00           6715       15242.00     66575.30
  295.39        3340.25           6719       16482.00     72003.24
  295.42        3340.50           6722       17251.00     75370.32
  295.44        3340.75           6726       18255.00     79767.38
  295.47        3341.00           6730       19050.00     83249.95
  295.50        3341.25           6733       19189.00     83858.93
  295.53        3341.50           6737       19326.00     84459.16
  295.56        3341.75           6741       19291.00     84305.81
  295.58        3342.00           6745       18719.00     81799.88
  295.61        3342.25           6748       17774.00     77660.68
  295.64        3342.50           6752       16723.00     73058.40
  295.67        3342.75           6756       15582.00     68063.43
  295.70        3343.00           6760       14403.00     62903.69
  295.73        3343.25           6763       13758.00     60081.62
  295.75        3343.50           6767       12486.00     54517.60
  295.78        3343.75           6771       11375.00     49659.37
  295.81        3344.00           6775       10390.00     45353.30
  295.84        3344.25           6778        9602.00     41909.24
  295.87        3344.50           6782        8646.00     37731.88
  295.89        3344.75           6786        7457.00     32537.85
  295.92        3345.00           6790        6347.00     27690.39
  295.96        3345.25           6793        5461.00     23822.16
  295.99        3345.50           6797        4308.00     18789.58
  296.01        3345.75           6801        3286.00     14330.05
  296.04        3346.00           6805        2222.00      9688.52
  296.08        3346.25           6808        1450.00      6321.60
  296.11        3346.50           6812         432.00      1882.84
  296.14        3346.75           6816         105.00       457.29
  296.16        3347.00           6819          61.00       265.48
  296.19        3347.25           6823          54.00       234.96
  296.22        3347.50           6827          45.00       195.73
  296.25        3347.75           6831          49.00       213.17
  296.27        3348.00           6834          47.00       204.45
  296.30        3348.25           6838          44.00       191.37
  296.33        3348.50           6842          39.00       169.57
  296.36        3348.75           6846          40.00       173.93
  296.39        3349.00           6849          37.00       160.86
  296.41        3349.25           6853          42.00       182.65
  296.44        3349.50           6857          42.00       182.65
  296.47        3349.75           6861          43.00       187.01
  296.50        3350.00           6864          43.00       187.01
  296.53        3350.25           6868          37.00       160.86
  296.56        3350.50           6872          37.00       160.86
  296.59        3350.75           6876          45.00       195.73
  296.62        3351.00           6879          44.00       191.37
HL scan finished at 04:58:06
end
