************************************************************
  HL Scan of (1) Internal mercury lamp
************************************************************
Integration time is 0.2294 seconds per sample
dh150317DelftKZ 51.997-4.386 2.535944pr1000
************************************************************
Dead Time -------------------------  3E-08 
Number of Cycles Used -------------  4 
Starting Wavelength (Angstroms) ---  3331 
Final Wavelength (Angstoms) -------  3351 
Wavelength Increment (Angstroms) --  .25 
Filter Wheel #1 Position ---------- (1) Ground quartz diffuser (ND=2.32)
Filter Wheel #2 Position ---------- 



************************************************************
HL scan start time = 04:45:32
Dark Count =  .2 


Time (GMT)  Wavelength (Ang)  Step Number  Raw Counts  Counts/Second

  286.29        3331.00           6581          41.00       177.86
  286.70        3331.25           6584          41.00       177.86
  286.72        3331.50           6588          45.00       195.29
  286.75        3331.75           6592          45.00       195.29
  286.78        3332.00           6595          43.00       186.57
  286.81        3332.25           6599          43.00       186.57
  286.83        3332.50           6603          48.00       208.37
  286.86        3332.75           6607          45.00       195.29
  286.89        3333.00           6610          45.00       195.29
  286.92        3333.25           6614          41.00       177.86
  286.94        3333.50           6618          44.00       190.93
  286.98        3333.75           6622          41.00       177.86
  287.01        3334.00           6625          47.00       204.01
  287.04        3334.25           6629          49.00       212.73
  287.06        3334.50           6633          46.00       199.65
  287.09        3334.75           6636          53.00       230.17
  287.12        3335.00           6640          50.00       217.09
  287.15        3335.25           6644          51.00       221.45
  287.18        3335.50           6648          58.00       251.96
  287.20        3335.75           6651          67.00       291.20
  287.23        3336.00           6655          73.00       317.35
  287.26        3336.25           6659         220.00       958.18
  287.29        3336.50           6663        1154.00      5030.40
  287.32        3336.75           6666        2314.00     10089.37
  287.35        3337.00           6670        3912.00     17061.04
  287.38        3337.25           6674        5392.00     23520.51
  287.41        3337.50           6677        6418.00     27999.97
  287.43        3337.75           6681        7739.00     33769.16
  287.46        3338.00           6685        9148.00     39924.86
  287.49        3338.25           6689       10662.00     46541.84
  287.52        3338.50           6692       11854.00     51753.35
  287.55        3338.75           6696       13175.00     57530.78
  287.57        3339.00           6700       14744.00     64395.43
  287.60        3339.25           6704       16356.00     71451.18
  287.63        3339.50           6707       17505.00     76482.18
  287.66        3339.75           6711       18975.00     82920.94
  287.68        3340.00           6715       20478.00     89506.81
  287.71        3340.25           6719       22147.00     96823.12
  287.75        3340.50           6722       23259.00    101699.50
  287.77        3340.75           6726       24580.00    107494.30
  287.80        3341.00           6730       25709.00    112448.50
  287.83        3341.25           6733       26165.00    114449.80
  287.86        3341.50           6737       26079.00    114072.40
  287.88        3341.75           6741       26098.00    114155.80
  287.91        3342.00           6745       25440.00    111267.90
  287.94        3342.25           6748       24092.00    105353.40
  287.97        3342.50           6752       22740.00     99423.41
  288.00        3342.75           6756       21359.00     93368.41
  288.02        3343.00           6760       20010.00     87455.84
  288.05        3343.25           6763       18801.00     82158.66
  288.08        3343.50           6767       17392.00     75987.33
  288.11        3343.75           6771       16087.00     70273.55
  288.14        3344.00           6775       14740.00     64377.92
  288.17        3344.25           6778       13427.00     58633.12
  288.20        3344.50           6782       11962.00     52225.62
  288.22        3344.75           6786       10482.00     45755.01
  288.25        3345.00           6790        8870.00     38710.14
  288.28        3345.25           6793        7651.00     33384.77
  288.31        3345.50           6797        6128.00     26733.72
  288.34        3345.75           6801        4491.00     19587.79
  288.36        3346.00           6805        3085.00     13452.68
  288.39        3346.25           6808        2132.00      9295.53
  288.42        3346.50           6812         777.00      3386.57
  288.45        3346.75           6816         171.00       744.57
  288.47        3347.00           6819          63.00       273.76
  288.50        3347.25           6823          57.00       247.60
  288.53        3347.50           6827          55.00       238.89
  288.56        3347.75           6831          48.00       208.37
  288.59        3348.00           6834          45.00       195.29
  288.62        3348.25           6838          47.00       204.01
  288.64        3348.50           6842          48.00       208.37
  288.67        3348.75           6846          42.00       182.22
  288.70        3349.00           6849          47.00       204.01
  288.73        3349.25           6853          43.00       186.57
  288.76        3349.50           6857          38.00       164.78
  288.79        3349.75           6861          44.00       190.93
  288.81        3350.00           6864          46.00       199.65
  288.84        3350.25           6868          48.00       208.37
  288.87        3350.50           6872          46.00       199.65
  288.90        3350.75           6876          43.00       186.57
  288.93        3351.00           6879          40.00       173.50
HL scan finished at 04:50:25
end
