************************************************************
  HL Scan of (1) Internal mercury lamp
************************************************************
Integration time is 0.2294 seconds per sample
dh130317DelftKZ 51.997-4.386 2.321352pr1000
************************************************************
Dead Time -------------------------  3E-08 
Number of Cycles Used -------------  4 
Starting Wavelength (Angstroms) ---  3331 
Final Wavelength (Angstoms) -------  3351 
Wavelength Increment (Angstroms) --  .25 
Filter Wheel #1 Position ---------- (1) Ground quartz diffuser (ND=2.32)
Filter Wheel #2 Position ---------- 



************************************************************
HL scan start time = 04:50:41
Dark Count =  0 


Time (GMT)  Wavelength (Ang)  Step Number  Raw Counts  Counts/Second

  291.44        3331.00           6581          46.00       200.52
  291.85        3331.25           6584          45.00       196.17
  291.87        3331.50           6588          40.00       174.37
  291.90        3331.75           6592          39.00       170.01
  291.93        3332.00           6595          35.00       152.57
  291.96        3332.25           6599          44.00       191.81
  291.98        3332.50           6603          36.00       156.93
  292.01        3332.75           6607          44.00       191.81
  292.04        3333.00           6610          37.00       161.29
  292.06        3333.25           6614          37.00       161.29
  292.09        3333.50           6618          34.00       148.21
  292.12        3333.75           6622          47.00       204.88
  292.15        3334.00           6625          36.00       156.93
  292.18        3334.25           6629          42.00       183.09
  292.21        3334.50           6633          48.00       209.24
  292.24        3334.75           6636          39.00       170.01
  292.26        3335.00           6640          47.00       204.88
  292.29        3335.25           6644          44.00       191.81
  292.32        3335.50           6648          52.00       226.68
  292.35        3335.75           6651          54.00       235.40
  292.37        3336.00           6655          67.00       292.07
  292.40        3336.25           6659         319.00      1390.64
  292.43        3336.50           6663        1193.00      5201.34
  292.46        3336.75           6666        1982.00      8642.17
  292.49        3337.00           6670        3231.00     14090.52
  292.51        3337.25           6674        4514.00     19689.05
  292.54        3337.50           6677        5264.00     22962.63
  292.57        3337.75           6681        6446.00     28123.11
  292.60        3338.00           6685        7550.00     32944.49
  292.63        3338.25           6689        8763.00     38243.51
  292.65        3338.50           6692        9836.00     42932.33
  292.68        3338.75           6696       11167.00     48750.41
  292.71        3339.00           6700       12341.00     53883.90
  292.74        3339.25           6704       13607.00     59421.44
  292.76        3339.50           6707       14465.00     63175.42
  292.79        3339.75           6711       15671.00     68453.43
  292.82        3340.00           6715       16636.00     72677.91
  292.85        3340.25           6719       17775.00     77665.50
  292.88        3340.50           6722       18589.00     81230.85
  292.90        3340.75           6726       19756.00     86343.68
  292.93        3341.00           6730       20863.00     91195.09
  292.96        3341.25           6733       21043.00     91984.09
  292.99        3341.50           6737       21074.00     92119.98
  293.01        3341.75           6741       20999.00     91791.22
  293.04        3342.00           6745       20189.00     88241.14
  293.07        3342.25           6748       19473.00     85103.66
  293.10        3342.50           6752       18390.00     80359.15
  293.12        3342.75           6756       17123.00     74810.26
  293.15        3343.00           6760       15936.00     69613.41
  293.18        3343.25           6763       15165.00     66238.73
  293.21        3343.50           6767       13775.00     60156.42
  293.24        3343.75           6771       12367.00     53997.61
  293.27        3344.00           6775       11262.00     49165.76
  293.30        3344.25           6778       10450.00     45616.01
  293.32        3344.50           6782        9259.00     40410.78
  293.35        3344.75           6786        8035.00     35063.02
  293.38        3345.00           6790        6913.00     30162.42
  293.41        3345.25           6793        6083.00     26538.12
  293.44        3345.50           6797        4868.00     21234.10
  293.46        3345.75           6801        3639.00     15870.68
  293.49        3346.00           6805        2333.00     10173.11
  293.52        3346.25           6808        1445.00      6300.23
  293.55        3346.50           6812         380.00      1656.58
  293.57        3346.75           6816         101.00       440.28
  293.60        3347.00           6819          56.00       244.12
  293.63        3347.25           6823          52.00       226.68
  293.66        3347.50           6827          54.00       235.40
  293.68        3347.75           6831          38.00       165.65
  293.71        3348.00           6834          51.00       222.32
  293.74        3348.25           6838          45.00       196.17
  293.77        3348.50           6842          41.00       178.73
  293.80        3348.75           6846          41.00       178.73
  293.82        3349.00           6849          42.00       183.09
  293.85        3349.25           6853          43.00       187.45
  293.88        3349.50           6857          35.00       152.57
  293.91        3349.75           6861          39.00       170.01
  293.93        3350.00           6864          41.00       178.73
  293.96        3350.25           6868          45.00       196.17
  293.99        3350.50           6872          35.00       152.57
  294.02        3350.75           6876          37.00       161.29
  294.05        3351.00           6879          41.00       178.73
HL scan finished at 04:55:32
end
