************************************************************
  HL Scan of (1) Internal mercury lamp
************************************************************
Integration time is 0.2294 seconds per sample
dh160317DelftKZ 51.997-4.386 2.375pr1000
************************************************************
Dead Time -------------------------  3E-08 
Number of Cycles Used -------------  4 
Starting Wavelength (Angstroms) ---  3331 
Final Wavelength (Angstoms) -------  3351 
Wavelength Increment (Angstroms) --  .25 
Filter Wheel #1 Position ---------- (1) Ground quartz diffuser (ND=2.32)
Filter Wheel #2 Position ---------- 



************************************************************
HL scan start time = 00:32:27
Dark Count =  .1 


Time (GMT)  Wavelength (Ang)  Step Number  Raw Counts  Counts/Second

   33.21        3331.00           6581          50.00       217.53
   33.62        3331.25           6584          43.00       187.01
   33.64        3331.50           6588          56.00       243.68
   33.67        3331.75           6592          46.00       200.09
   33.70        3332.00           6595          43.00       187.01
   33.73        3332.25           6599          45.00       195.73
   33.75        3332.50           6603          40.00       173.93
   33.78        3332.75           6607          47.00       204.45
   33.81        3333.00           6610          48.00       208.81
   33.84        3333.25           6614          53.00       230.60
   33.87        3333.50           6618          43.00       187.01
   33.90        3333.75           6622          38.00       165.21
   33.94        3334.00           6625          52.00       226.24
   33.97        3334.25           6629          54.00       234.96
   34.00        3334.50           6633          44.00       191.37
   34.02        3334.75           6636          54.00       234.96
   34.05        3335.00           6640          49.00       213.17
   34.08        3335.25           6644          57.00       248.04
   34.11        3335.50           6648          57.00       248.04
   34.13        3335.75           6651          62.00       269.84
   34.16        3336.00           6655          92.00       400.62
   34.19        3336.25           6659         435.00      1895.92
   34.22        3336.50           6663        1870.00      8153.26
   34.24        3336.75           6666        3057.00     13330.96
   34.27        3337.00           6670        4808.00     20971.78
   34.30        3337.25           6674        6209.00     27087.83
   34.33        3337.50           6677        7310.00     31895.81
   34.35        3337.75           6681        8942.00     39025.18
   34.38        3338.00           6685       10523.00     45934.67
   34.41        3338.25           6689       12364.00     53984.05
   34.44        3338.50           6692       13490.00     58909.17
   34.47        3338.75           6696       15201.00     66395.86
   34.49        3339.00           6700       16748.00     73167.85
   34.52        3339.25           6704       18391.00     80363.09
   34.55        3339.50           6707       19826.00     86649.99
   34.58        3339.75           6711       21367.00     93403.91
   34.61        3340.00           6715       22879.00    100033.40
   34.64        3340.25           6719       24609.00    107622.00
   34.67        3340.50           6722       25711.00    112457.70
   34.69        3340.75           6726       27269.00    119296.70
   34.72        3341.00           6730       28878.00    126362.60
   34.75        3341.25           6733       29087.00    127280.60
   34.78        3341.50           6737       29149.00    127553.00
   34.80        3341.75           6741       28925.00    126569.10
   34.83        3342.00           6745       27914.00    122128.90
   34.86        3342.25           6748       26939.00    117847.90
   34.89        3342.50           6752       25593.00    111939.80
   34.92        3342.75           6756       23807.00    104103.60
   34.94        3343.00           6760       21942.00     95924.74
   34.97        3343.25           6763       20502.00     89612.43
   35.00        3343.50           6767       18918.00     82671.66
   35.03        3343.75           6771       17195.00     75125.10
   35.05        3344.00           6775       15651.00     68365.45
   35.08        3344.25           6778       14528.00     63450.66
   35.11        3344.50           6782       12939.00     56498.91
   35.14        3344.75           6786       11412.00     49821.14
   35.17        3345.00           6790        9833.00     42918.79
   35.19        3345.25           6793        8481.00     37011.00
   35.22        3345.50           6797        6812.00     29720.91
   35.25        3345.75           6801        4941.00     21552.29
   35.28        3346.00           6805        3189.00     13906.85
   35.30        3346.25           6808        1944.00      8476.00
   35.33        3346.50           6812         532.00      2318.82
   35.36        3346.75           6816         121.00       527.04
   35.39        3347.00           6819          62.00       269.84
   35.41        3347.25           6823          62.00       269.84
   35.44        3347.50           6827          57.00       248.04
   35.47        3347.75           6831          51.00       221.88
   35.50        3348.00           6834          49.00       213.17
   35.52        3348.25           6838          47.00       204.45
   35.55        3348.50           6842          46.00       200.09
   35.58        3348.75           6846          45.00       195.73
   35.61        3349.00           6849          52.00       226.24
   35.64        3349.25           6853          48.00       208.81
   35.67        3349.50           6857          49.00       213.17
   35.70        3349.75           6861          48.00       208.81
   35.73        3350.00           6864          49.00       213.17
   35.76        3350.25           6868          44.00       191.37
   35.78        3350.50           6872          50.00       217.53
   35.81        3350.75           6876          51.00       221.88
   35.84        3351.00           6879          43.00       187.01
HL scan finished at 00:37:19
end
************************************************************
  HL Scan of (1) Internal mercury lamp
************************************************************
Integration time is 0.2294 seconds per sample
dh160317DelftKZ 51.997-4.386 2.375pr1000
************************************************************
Dead Time -------------------------  3E-08 
Number of Cycles Used -------------  4 
Starting Wavelength (Angstroms) ---  3331 
Final Wavelength (Angstoms) -------  3351 
Wavelength Increment (Angstroms) --  .25 
Filter Wheel #1 Position ---------- (1) Ground quartz diffuser (ND=2.32)
Filter Wheel #2 Position ---------- 



************************************************************
HL scan start time = 04:43:08
Dark Count =  0 


Time (GMT)  Wavelength (Ang)  Step Number  Raw Counts  Counts/Second

  283.89        3331.00           6581          42.00       183.09
  284.30        3331.25           6584          40.00       174.37
  284.33        3331.50           6588          44.00       191.81
  284.35        3331.75           6592          41.00       178.73
  284.38        3332.00           6595          39.00       170.01
  284.41        3332.25           6599          40.00       174.37
  284.44        3332.50           6603          38.00       165.65
  284.46        3332.75           6607          38.00       165.65
  284.49        3333.00           6610          42.00       183.09
  284.52        3333.25           6614          50.00       217.96
  284.55        3333.50           6618          46.00       200.52
  284.57        3333.75           6622          42.00       183.09
  284.60        3334.00           6625          47.00       204.88
  284.63        3334.25           6629          48.00       209.24
  284.66        3334.50           6633          34.00       148.21
  284.68        3334.75           6636          45.00       196.17
  284.71        3335.00           6640          45.00       196.17
  284.74        3335.25           6644          48.00       209.24
  284.77        3335.50           6648          60.00       261.55
  284.80        3335.75           6651          55.00       239.76
  284.83        3336.00           6655          76.00       331.30
  284.86        3336.25           6659         304.00      1325.25
  284.89        3336.50           6663        1249.00      5445.53
  284.92        3336.75           6666        2157.00      9405.44
  284.95        3337.00           6670        3586.00     15639.42
  284.98        3337.25           6674        4823.00     21037.69
  285.00        3337.50           6677        5780.00     25215.23
  285.03        3337.75           6681        6876.00     30000.84
  285.06        3338.00           6685        8080.00     35259.60
  285.09        3338.25           6689        9416.00     41096.85
  285.12        3338.50           6692       10292.00     44925.37
  285.14        3338.75           6696       11670.00     50949.66
  285.17        3339.00           6700       12988.00     56713.68
  285.20        3339.25           6704       14228.00     62138.40
  285.23        3339.50           6707       15280.00     66742.05
  285.26        3339.75           6711       16704.00     72975.63
  285.29        3340.00           6715       17988.00     78598.37
  285.32        3340.25           6719       19339.00     84516.55
  285.34        3340.50           6722       20222.00     88385.76
  285.37        3340.75           6726       21357.00     93360.51
  285.40        3341.00           6730       22261.00     97323.85
  285.43        3341.25           6733       22486.00     98310.44
  285.45        3341.50           6737       22585.00     98744.57
  285.48        3341.75           6741       22521.00     98463.92
  285.51        3342.00           6745       21672.00     94741.43
  285.54        3342.25           6748       20800.00     90918.97
  285.57        3342.50           6752       19360.00     84608.55
  285.60        3342.75           6756       18441.00     80582.54
  285.63        3343.00           6760       17007.00     74302.33
  285.66        3343.25           6763       15982.00     69814.78
  285.68        3343.50           6767       14827.00     64759.52
  285.71        3343.75           6771       13629.00     59517.69
  285.74        3344.00           6775       12447.00     54347.48
  285.77        3344.25           6778       11419.00     49852.19
  285.79        3344.50           6782       10060.00     43911.34
  285.82        3344.75           6786        8770.00     38274.10
  285.85        3345.00           6790        7355.00     32092.79
  285.88        3345.25           6793        6389.00     27874.22
  285.91        3345.50           6797        4999.00     21805.89
  285.93        3345.75           6801        3594.00     15674.33
  285.96        3346.00           6805        2432.00     10604.94
  285.99        3346.25           6808        1613.00      7032.87
  286.02        3346.50           6812         515.00      2245.14
  286.04        3346.75           6816         124.00       540.55
  286.07        3347.00           6819          67.00       292.07
  286.10        3347.25           6823          56.00       244.12
  286.13        3347.50           6827          59.00       257.19
  286.15        3347.75           6831          43.00       187.45
  286.18        3348.00           6834          45.00       196.17
  286.21        3348.25           6838          40.00       174.37
  286.24        3348.50           6842          41.00       178.73
  286.27        3348.75           6846          43.00       187.45
  286.29        3349.00           6849          44.00       191.81
  286.32        3349.25           6853          35.00       152.57
  286.35        3349.50           6857          44.00       191.81
  286.38        3349.75           6861          48.00       209.24
  286.40        3350.00           6864          39.00       170.01
  286.43        3350.25           6868          41.00       178.73
  286.46        3350.50           6872          40.00       174.37
  286.49        3350.75           6876          41.00       178.73
  286.51        3351.00           6879          42.00       183.09
HL scan finished at 04:47:59
end
