************************************************************
  HL Scan of (1) Internal mercury lamp
************************************************************
Integration time is 0.2294 seconds per sample
dh170317DelftKZ 51.997-4.386 2.482296pr1000
************************************************************
Dead Time -------------------------  3E-08 
Number of Cycles Used -------------  4 
Starting Wavelength (Angstroms) ---  3331 
Final Wavelength (Angstoms) -------  3351 
Wavelength Increment (Angstroms) --  .25 
Filter Wheel #1 Position ---------- (1) Ground quartz diffuser (ND=2.32)
Filter Wheel #2 Position ---------- 



************************************************************
HL scan start time = 04:40:18
Dark Count =  0 


Time (GMT)  Wavelength (Ang)  Step Number  Raw Counts  Counts/Second

  281.07        3331.00           6581          42.00       183.09
  281.47        3331.25           6584          37.00       161.29
  281.50        3331.50           6588          44.00       191.81
  281.53        3331.75           6592          38.00       165.65
  281.56        3332.00           6595          46.00       200.52
  281.59        3332.25           6599          49.00       213.60
  281.61        3332.50           6603          41.00       178.73
  281.64        3332.75           6607          42.00       183.09
  281.67        3333.00           6610          42.00       183.09
  281.70        3333.25           6614          42.00       183.09
  281.73        3333.50           6618          42.00       183.09
  281.76        3333.75           6622          39.00       170.01
  281.78        3334.00           6625          45.00       196.17
  281.81        3334.25           6629          44.00       191.81
  281.84        3334.50           6633          47.00       204.88
  281.87        3334.75           6636          47.00       204.88
  281.89        3335.00           6640          48.00       209.24
  281.92        3335.25           6644          56.00       244.12
  281.95        3335.50           6648          51.00       222.32
  281.98        3335.75           6651          55.00       239.76
  282.00        3336.00           6655          76.00       331.30
  282.03        3336.25           6659         392.00      1708.89
  282.06        3336.50           6663        1441.00      6282.79
  282.09        3336.75           6666        2300.00     10029.17
  282.12        3337.00           6670        3624.00     15805.23
  282.14        3337.25           6674        5273.00     23001.92
  282.17        3337.50           6677        6454.00     28158.04
  282.20        3337.75           6681        7666.00     33451.17
  282.23        3338.00           6685        8881.00     38759.08
  282.26        3338.25           6689       10245.00     44719.94
  282.28        3338.50           6692       11306.00     49358.13
  282.31        3338.75           6696       12853.00     56123.19
  282.34        3339.00           6700       14086.00     61517.10
  282.37        3339.25           6704       15443.00     67455.46
  282.40        3339.50           6707       16647.00     72726.07
  282.42        3339.75           6711       17953.00     78445.08
  282.45        3340.00           6715       19553.00     85454.19
  282.48        3340.25           6719       21009.00     91835.06
  282.51        3340.50           6722       21831.00     95438.51
  282.53        3340.75           6726       23297.00    101867.10
  282.56        3341.00           6730       24601.00    107587.30
  282.59        3341.25           6733       24685.00    107955.90
  282.62        3341.50           6737       24696.00    108004.10
  282.65        3341.75           6741       24735.00    108175.30
  282.67        3342.00           6745       24125.00    105499.00
  282.70        3342.25           6748       22986.00    100503.10
  282.73        3342.50           6752       21448.00     93759.44
  282.76        3342.75           6756       19912.00     87027.27
  282.78        3343.00           6760       18825.00     82264.68
  282.81        3343.25           6763       17746.00     77538.49
  282.84        3343.50           6767       16158.00     70585.24
  282.87        3343.75           6771       14886.00     65017.72
  282.90        3344.00           6775       13714.00     59889.55
  282.92        3344.25           6778       12667.00     55309.66
  282.95        3344.50           6782       11324.00     49436.82
  282.98        3344.75           6786        9806.00     42801.22
  283.01        3345.00           6790        8262.00     36054.67
  283.03        3345.25           6793        7029.00     30669.01
  283.06        3345.50           6797        5589.00     24381.39
  283.09        3345.75           6801        4153.00     18113.59
  283.12        3346.00           6805        2594.00     11311.60
  283.14        3346.25           6808        1582.00      6897.68
  283.17        3346.50           6812         516.00      2249.50
  283.21        3346.75           6816         119.00       518.75
  283.23        3347.00           6819          70.00       305.15
  283.26        3347.25           6823          51.00       222.32
  283.29        3347.50           6827          59.00       257.19
  283.32        3347.75           6831          49.00       213.60
  283.34        3348.00           6834          46.00       200.52
  283.37        3348.25           6838          56.00       244.12
  283.40        3348.50           6842          52.00       226.68
  283.43        3348.75           6846          46.00       200.52
  283.45        3349.00           6849          50.00       217.96
  283.48        3349.25           6853          42.00       183.09
  283.51        3349.50           6857          41.00       178.73
  283.54        3349.75           6861          51.00       222.32
  283.56        3350.00           6864          42.00       183.09
  283.59        3350.25           6868          44.00       191.81
  283.62        3350.50           6872          41.00       178.73
  283.65        3350.75           6876          38.00       165.65
  283.68        3351.00           6879          48.00       209.24
HL scan finished at 04:45:09
end
