************************************************************
  HL Scan of (1) Internal mercury lamp
************************************************************
Integration time is 0.2294 seconds per sample
dh180317DelftKZ 51.997-4.386 2.482296pr1000
************************************************************
Dead Time -------------------------  3E-08 
Number of Cycles Used -------------  4 
Starting Wavelength (Angstroms) ---  3331 
Final Wavelength (Angstoms) -------  3351 
Wavelength Increment (Angstroms) --  .25 
Filter Wheel #1 Position ---------- (1) Ground quartz diffuser (ND=2.32)
Filter Wheel #2 Position ---------- 



************************************************************
HL scan start time = 04:37:44
Dark Count =  .2 


Time (GMT)  Wavelength (Ang)  Step Number  Raw Counts  Counts/Second

  278.50        3331.00           6581          38.00       164.78
  278.90        3331.25           6584          39.00       169.14
  278.93        3331.50           6588          44.00       190.93
  278.96        3331.75           6592          39.00       169.14
  278.99        3332.00           6595          44.00       190.93
  279.02        3332.25           6599          46.00       199.65
  279.05        3332.50           6603          38.00       164.78
  279.08        3332.75           6607          42.00       182.22
  279.10        3333.00           6610          40.00       173.50
  279.13        3333.25           6614          42.00       182.22
  279.16        3333.50           6618          41.00       177.86
  279.19        3333.75           6622          44.00       190.93
  279.21        3334.00           6625          43.00       186.57
  279.24        3334.25           6629          46.00       199.65
  279.27        3334.50           6633          46.00       199.65
  279.30        3334.75           6636          45.00       195.29
  279.32        3335.00           6640          45.00       195.29
  279.35        3335.25           6644          53.00       230.17
  279.38        3335.50           6648          54.00       234.53
  279.41        3335.75           6651          63.00       273.76
  279.43        3336.00           6655          68.00       295.56
  279.46        3336.25           6659         377.00      1642.63
  279.49        3336.50           6663        1541.00      6718.01
  279.52        3336.75           6666        2529.00     11027.19
  279.54        3337.00           6670        3833.00     16716.32
  279.58        3337.25           6674        5040.00     21983.98
  279.61        3337.50           6677        5947.00     25943.46
  279.64        3337.75           6681        7297.00     31838.59
  279.67        3338.00           6685        8733.00     38111.56
  279.69        3338.25           6689       10203.00     44535.49
  279.72        3338.50           6692       11135.00     48609.64
  279.75        3338.75           6696       12509.00     54617.76
  279.78        3339.00           6700       13889.00     60654.30
  279.81        3339.25           6704       15326.00     66942.50
  279.84        3339.50           6707       16287.00     71149.09
  279.87        3339.75           6711       17503.00     76473.41
  279.90        3340.00           6715       18965.00     82877.13
  279.93        3340.25           6719       20517.00     89677.74
  279.95        3340.50           6722       21158.00     92487.31
  279.98        3340.75           6726       22623.00     98910.34
  280.01        3341.00           6730       23895.00    104489.20
  280.04        3341.25           6733       24094.00    105362.20
  280.07        3341.50           6737       24258.00    106081.60
  280.09        3341.75           6741       24142.00    105572.70
  280.12        3342.00           6745       23311.00    101927.60
  280.15        3342.25           6748       22513.00     98427.97
  280.18        3342.50           6752       21194.00     92645.11
  280.20        3342.75           6756       19770.00     86404.16
  280.23        3343.00           6760       18248.00     79736.28
  280.26        3343.25           6763       17115.00     74774.35
  280.29        3343.50           6767       15864.00     69297.36
  280.32        3343.75           6771       14409.00     62929.51
  280.34        3344.00           6775       13266.00     57928.84
  280.37        3344.25           6778       12237.00     53428.20
  280.40        3344.50           6782       10812.00     47197.56
  280.43        3344.75           6786        9618.00     41978.73
  280.45        3345.00           6790        8283.00     36145.54
  280.48        3345.25           6793        7230.00     31545.97
  280.51        3345.50           6797        5630.00     24559.50
  280.54        3345.75           6801        4141.00     18060.35
  280.57        3346.00           6805        2695.00     11751.31
  280.60        3346.25           6808        1643.00      7162.83
  280.63        3346.50           6812         458.00      1995.76
  280.65        3346.75           6816          94.00       408.90
  280.68        3347.00           6819          55.00       238.89
  280.71        3347.25           6823          58.00       251.96
  280.74        3347.50           6827          48.00       208.37
  280.76        3347.75           6831          49.00       212.73
  280.79        3348.00           6834          46.00       199.65
  280.82        3348.25           6838          44.00       190.93
  280.85        3348.50           6842          40.00       173.50
  280.87        3348.75           6846          36.00       156.06
  280.90        3349.00           6849          44.00       190.93
  280.93        3349.25           6853          42.00       182.22
  280.96        3349.50           6857          44.00       190.93
  280.98        3349.75           6861          41.00       177.86
  281.02        3350.00           6864          45.00       195.29
  281.05        3350.25           6868          45.00       195.29
  281.07        3350.50           6872          45.00       195.29
  281.10        3350.75           6876          36.00       156.06
  281.13        3351.00           6879          40.00       173.50
HL scan finished at 04:42:36
end
