************************************************************
  HL Scan of (1) Internal mercury lamp
************************************************************
Integration time is 0.2294 seconds per sample
dh140317DelftKZ 51.997-4.386 2.375pr1000
************************************************************
Dead Time -------------------------  3E-08 
Number of Cycles Used -------------  4 
Starting Wavelength (Angstroms) ---  3331 
Final Wavelength (Angstoms) -------  3351 
Wavelength Increment (Angstroms) --  .25 
Filter Wheel #1 Position ---------- (1) Ground quartz diffuser (ND=2.32)
Filter Wheel #2 Position ---------- 



************************************************************
HL scan start time = 04:48:10
Dark Count =  .1 


Time (GMT)  Wavelength (Ang)  Step Number  Raw Counts  Counts/Second

  288.92        3331.00           6581          41.00       178.29
  289.33        3331.25           6584          40.00       173.93
  289.36        3331.50           6588          45.00       195.73
  289.39        3331.75           6592          45.00       195.73
  289.41        3332.00           6595          45.00       195.73
  289.44        3332.25           6599          39.00       169.57
  289.47        3332.50           6603          37.00       160.86
  289.50        3332.75           6607          37.00       160.86
  289.52        3333.00           6610          36.00       156.50
  289.55        3333.25           6614          43.00       187.01
  289.58        3333.50           6618          36.00       156.50
  289.61        3333.75           6622          44.00       191.37
  289.63        3334.00           6625          50.00       217.53
  289.66        3334.25           6629          41.00       178.29
  289.69        3334.50           6633          41.00       178.29
  289.72        3334.75           6636          44.00       191.37
  289.74        3335.00           6640          51.00       221.88
  289.77        3335.25           6644          56.00       243.68
  289.80        3335.50           6648          53.00       230.60
  289.83        3335.75           6651          52.00       226.24
  289.86        3336.00           6655          65.00       282.91
  289.88        3336.25           6659         220.00       958.62
  289.91        3336.50           6663        1247.00      5436.37
  289.94        3336.75           6666        2145.00      9352.67
  289.97        3337.00           6670        3251.00     14177.35
  289.99        3337.25           6674        4398.00     19182.35
  290.02        3337.50           6677        5466.00     23843.99
  290.05        3337.75           6681        6747.00     29437.06
  290.08        3338.00           6685        7855.00     34276.29
  290.11        3338.25           6689        9022.00     39374.74
  290.14        3338.50           6692       10047.00     43854.09
  290.17        3338.75           6696       11322.00     49427.65
  290.20        3339.00           6700       12744.00     55646.00
  290.22        3339.25           6704       14044.00     61332.89
  290.25        3339.50           6707       15100.00     65953.82
  290.28        3339.75           6711       16410.00     71688.02
  290.31        3340.00           6715       17844.00     77967.25
  290.34        3340.25           6719       19020.00     83118.53
  290.37        3340.50           6722       19702.00     86106.62
  290.40        3340.75           6726       20840.00     91093.85
  290.42        3341.00           6730       21994.00     96152.74
  290.45        3341.25           6733       22523.00     98472.26
  290.48        3341.50           6737       22420.00     98020.61
  290.51        3341.75           6741       22532.00     98511.72
  290.53        3342.00           6745       21828.00     95424.93
  290.56        3342.25           6748       21018.00     91874.06
  290.59        3342.50           6752       19671.00     85970.80
  290.62        3342.75           6756       18454.00     80639.05
  290.65        3343.00           6760       17312.00     75637.43
  290.67        3343.25           6763       16448.00     71854.38
  290.70        3343.50           6767       15093.00     65923.20
  290.73        3343.75           6771       13775.00     60155.98
  290.76        3344.00           6775       12517.00     54653.19
  290.78        3344.25           6778       11418.00     49847.38
  290.81        3344.50           6782       10172.00     44400.43
  290.84        3344.75           6786        8919.00     38924.68
  290.87        3345.00           6790        7595.00     33140.60
  290.89        3345.25           6793        6516.00     28428.33
  290.92        3345.50           6797        5319.00     23202.28
  290.95        3345.75           6801        4122.00     17977.87
  290.98        3346.00           6805        2908.00     12680.94
  291.01        3346.25           6808        1992.00      8685.35
  291.03        3346.50           6812         698.00      3042.56
  291.06        3346.75           6816         129.00       561.91
  291.09        3347.00           6819          66.00       287.27
  291.12        3347.25           6823          55.00       239.32
  291.14        3347.50           6827          50.00       217.53
  291.17        3347.75           6831          50.00       217.53
  291.20        3348.00           6834          52.00       226.24
  291.23        3348.25           6838          43.00       187.01
  291.26        3348.50           6842          47.00       204.45
  291.28        3348.75           6846          40.00       173.93
  291.31        3349.00           6849          39.00       169.57
  291.34        3349.25           6853          47.00       204.45
  291.37        3349.50           6857          43.00       187.01
  291.39        3349.75           6861          44.00       191.37
  291.42        3350.00           6864          44.00       191.37
  291.45        3350.25           6868          47.00       204.45
  291.48        3350.50           6872          35.00       152.14
  291.51        3350.75           6876          40.00       173.93
  291.54        3351.00           6879          43.00       187.01
HL scan finished at 04:53:01
end
