************************************************************
  HL Scan of (1) Internal mercury lamp
************************************************************
Integration time is 0.2294 seconds per sample
dh230318Delft 51.9969-4.3863 3.126073pr1000
************************************************************
Dead Time -------------------------  2.7E-08 
Number of Cycles Used -------------  4 
Starting Wavelength (Angstroms) ---  3331 
Final Wavelength (Angstoms) -------  3351 
Wavelength Increment (Angstroms) --  .25 
Filter Wheel #1 Position ---------- (1) Ground quartz diffuser (ND=2.32)
Filter Wheel #2 Position ---------- 



************************************************************
HL scan start time = 09:10:25
Dark Count =  .1 


Time (GMT)  Wavelength (Ang)  Step Number  Raw Counts  Counts/Second

  551.18        3331.00           6581          47.00       204.45
  551.59        3331.25           6584          50.00       217.53
  551.62        3331.50           6588          55.00       239.32
  551.65        3331.75           6592          48.00       208.81
  551.67        3332.00           6595          52.00       226.24
  551.71        3332.25           6599          53.00       230.60
  551.73        3332.50           6603          45.00       195.73
  551.76        3332.75           6607          53.00       230.60
  551.79        3333.00           6610          49.00       213.17
  551.82        3333.25           6614          54.00       234.96
  551.85        3333.50           6618          52.00       226.24
  551.88        3333.75           6622          50.00       217.53
  551.91        3334.00           6625          51.00       221.88
  551.94        3334.25           6629          56.00       243.68
  551.97        3334.50           6633          52.00       226.24
  552.00        3334.75           6636          51.00       221.88
  552.03        3335.00           6640          61.00       265.48
  552.06        3335.25           6644          60.00       261.12
  552.09        3335.50           6648          62.00       269.84
  552.12        3335.75           6651          71.00       309.07
  552.15        3336.00           6655          89.00       387.54
  552.18        3336.25           6659         278.00      1211.46
  552.21        3336.50           6663        1924.00      8388.56
  552.24        3336.75           6666        3815.00     16637.38
  552.27        3337.00           6670        6451.00     28142.12
  552.30        3337.25           6674        8817.00     38474.56
  552.33        3337.50           6677       10594.00     46238.60
  552.36        3337.75           6681       12975.00     56646.74
  552.39        3338.00           6685       15691.00     68526.41
  552.42        3338.25           6689       18127.00     79187.88
  552.44        3338.50           6692       19563.00     85475.59
  552.47        3338.75           6696       22054.00     96387.84
  552.50        3339.00           6700       24447.00    106876.90
  552.53        3339.25           6704       27154.00    118749.40
  552.56        3339.50           6707       29311.00    128215.10
  552.59        3339.75           6711       31525.00    137936.10
  552.62        3340.00           6715       33792.00    147895.00
  552.65        3340.25           6719       35905.00    157182.20
  552.68        3340.50           6722       38170.00    167142.70
  552.71        3340.75           6726       40291.00    176474.90
  552.74        3341.00           6730       41962.00    183830.40
  552.77        3341.25           6733       42759.00    187339.70
  552.80        3341.50           6737       42974.00    188286.50
  552.83        3341.75           6741       42988.00    188348.20
  552.86        3342.00           6745       41548.00    182007.80
  552.89        3342.25           6748       39721.00    173966.50
  552.92        3342.50           6752       37344.00    163509.70
  552.95        3342.75           6756       34753.00    152118.30
  552.98        3343.00           6760       32499.00    142214.20
  553.01        3343.25           6763       30650.00    134093.60
  553.04        3343.50           6767       28487.00    124598.50
  553.07        3343.75           6771       26236.00    114722.30
  553.10        3344.00           6775       23839.00    104211.30
  553.13        3344.25           6778       21741.00     95016.34
  553.16        3344.50           6782       19238.00     84052.35
  553.19        3344.75           6786       16772.00     73256.79
  553.22        3345.00           6790       14225.00     62113.24
  553.25        3345.25           6793       12475.00     54460.59
  553.28        3345.50           6797       10016.00     43712.85
  553.31        3345.75           6801        7765.00     33879.71
  553.34        3346.00           6805        5437.00     23715.70
  553.37        3346.25           6808        3721.00     16227.25
  553.40        3346.50           6812        1462.00      6373.81
  553.43        3346.75           6816         266.00      1159.15
  553.45        3347.00           6819         102.00       444.21
  553.48        3347.25           6823          75.00       326.51
  553.51        3347.50           6827          76.00       330.87
  553.54        3347.75           6831          70.00       304.71
  553.57        3348.00           6834          62.00       269.84
  553.60        3348.25           6838          62.00       269.84
  553.63        3348.50           6842          60.00       261.12
  553.66        3348.75           6846          61.00       265.48
  553.69        3349.00           6849          54.00       234.96
  553.72        3349.25           6853          58.00       252.40
  553.75        3349.50           6857          49.00       213.17
  553.78        3349.75           6861          47.00       204.45
  553.81        3350.00           6864          46.00       200.09
  553.84        3350.25           6868          49.00       213.17
  553.87        3350.50           6872          52.00       226.24
  553.90        3350.75           6876          55.00       239.32
  553.93        3351.00           6879          53.00       230.60
HL scan finished at 09:15:25
end
************************************************************
  HL Scan of (1) Internal mercury lamp
************************************************************
Integration time is 0.2294 seconds per sample
dh230318Delft 51.9969-4.3863 3.287017pr1000
************************************************************
Dead Time -------------------------  2.7E-08 
Number of Cycles Used -------------  4 
Starting Wavelength (Angstroms) ---  3331 
Final Wavelength (Angstoms) -------  3351 
Wavelength Increment (Angstroms) --  .25 
Filter Wheel #1 Position ---------- (1) Ground quartz diffuser (ND=2.32)
Filter Wheel #2 Position ---------- 



************************************************************
HL scan start time = 10:57:34
Dark Count =  .3 


Time (GMT)  Wavelength (Ang)  Step Number  Raw Counts  Counts/Second

  658.34        3331.00           6581          48.00       207.93
  658.75        3331.25           6584          48.00       207.93
  658.78        3331.50           6588          49.00       212.29
  658.81        3331.75           6592          49.00       212.29
  658.84        3332.00           6595          58.00       251.53
  658.87        3332.25           6599          50.00       216.65
  658.90        3332.50           6603          52.00       225.37
  658.93        3332.75           6607          55.00       238.45
  658.96        3333.00           6610          55.00       238.45
  658.99        3333.25           6614          51.00       221.01
  659.02        3333.50           6618          55.00       238.45
  659.05        3333.75           6622          50.00       216.65
  659.08        3334.00           6625          52.00       225.37
  659.11        3334.25           6629          49.00       212.29
  659.14        3334.50           6633          54.00       234.09
  659.16        3334.75           6636          47.00       203.58
  659.19        3335.00           6640          62.00       268.96
  659.23        3335.25           6644          59.00       255.89
  659.25        3335.50           6648          73.00       316.92
  659.28        3335.75           6651          84.00       364.87
  659.31        3336.00           6655         105.00       456.41
  659.34        3336.25           6659         570.00      2483.60
  659.37        3336.50           6663        2596.00     11318.63
  659.40        3336.75           6666        4446.00     19389.84
  659.43        3337.00           6670        6953.00     30333.03
  659.46        3337.25           6674        9521.00     41549.20
  659.49        3337.50           6677       11399.00     49755.99
  659.52        3337.75           6681       13521.00     59033.43
  659.55        3338.00           6685       15916.00     69510.02
  659.58        3338.25           6689       18787.00     82076.63
  659.61        3338.50           6692       21150.00     92426.09
  659.64        3338.75           6696       23814.00    104100.80
  659.67        3339.00           6700       26092.00    114089.80
  659.70        3339.25           6704       28527.00    124773.20
  659.73        3339.50           6707       30390.00    132951.10
  659.76        3339.75           6711       33039.00    144585.60
  659.79        3340.00           6715       35465.00    155247.00
  659.82        3340.25           6719       37634.00    164784.30
  659.85        3340.50           6722       39653.00    173666.40
  659.88        3340.75           6726       42015.00    184062.90
  659.91        3341.00           6730       44290.00    194081.90
  659.94        3341.25           6733       45108.00    197685.70
  659.97        3341.50           6737       45489.00    199364.50
  660.00        3341.75           6741       45199.00    198086.70
  660.03        3342.00           6745       43582.00    190963.30
  660.06        3342.25           6748       41931.00    183693.00
  660.09        3342.50           6752       39427.00    172671.90
  660.12        3342.75           6756       37145.00    162633.70
  660.15        3343.00           6760       34770.00    152192.10
  660.18        3343.25           6763       32743.00    143285.20
  660.21        3343.50           6767       30119.00    131761.30
  660.24        3343.75           6771       27393.00    119797.10
  660.27        3344.00           6775       24762.00    108257.10
  660.30        3344.25           6778       22835.00     99809.59
  660.33        3344.50           6782       20569.00     89880.89
  660.36        3344.75           6786       17799.00     77751.11
  660.39        3345.00           6790       15086.00     65878.63
  660.42        3345.25           6793       13475.00     58832.27
  660.45        3345.50           6797       11043.00     48200.01
  660.48        3345.75           6801        8159.00     35599.60
  660.51        3346.00           6805        5410.00     23596.99
  660.54        3346.25           6808        3202.00     13962.11
  660.57        3346.50           6812         972.00      4236.32
  660.60        3346.75           6816         246.00      1071.09
  660.63        3347.00           6819         114.00       495.65
  660.66        3347.25           6823          90.00       391.02
  660.69        3347.50           6827          76.00       329.99
  660.72        3347.75           6831          70.00       303.84
  660.75        3348.00           6834          67.00       290.76
  660.78        3348.25           6838          60.00       260.25
  660.81        3348.50           6842          59.00       255.89
  660.84        3348.75           6846          60.00       260.25
  660.87        3349.00           6849          49.00       212.29
  660.90        3349.25           6853          51.00       221.01
  660.93        3349.50           6857          60.00       260.25
  660.95        3349.75           6861          50.00       216.65
  660.98        3350.00           6864          47.00       203.58
  661.01        3350.25           6868          59.00       255.89
  661.04        3350.50           6872          54.00       234.09
  661.07        3350.75           6876          56.00       242.81
  661.10        3351.00           6879          50.00       216.65
HL scan finished at 11:02:36
end
************************************************************
  HL Scan of (1) Internal mercury lamp
************************************************************
Integration time is 0.2294 seconds per sample
dh230318Delft 51.9969-4.3863 3.394313pr1000
************************************************************
Dead Time -------------------------  2.7E-08 
Number of Cycles Used -------------  4 
Starting Wavelength (Angstroms) ---  3331 
Final Wavelength (Angstoms) -------  3351 
Wavelength Increment (Angstroms) --  .25 
Filter Wheel #1 Position ---------- (1) Ground quartz diffuser (ND=2.32)
Filter Wheel #2 Position ---------- 



************************************************************
HL scan start time = 15:34:48
Dark Count =  .2 


Time (GMT)  Wavelength (Ang)  Step Number  Raw Counts  Counts/Second

  935.56        3331.00           6579          53.00       230.17
  935.97        3331.25           6582          54.00       234.53
  936.00        3331.50           6586          45.00       195.29
  936.03        3331.75           6590          50.00       217.09
  936.06        3332.00           6594          55.00       238.89
  936.09        3332.25           6597          50.00       217.09
  936.12        3332.50           6601          55.00       238.89
  936.15        3332.75           6605          46.00       199.65
  936.18        3333.00           6608          59.00       256.32
  936.21        3333.25           6612          53.00       230.17
  936.24        3333.50           6616          55.00       238.89
  936.27        3333.75           6620          58.00       251.96
  936.30        3334.00           6623          50.00       217.09
  936.33        3334.25           6627          50.00       217.09
  936.36        3334.50           6631          55.00       238.89
  936.39        3334.75           6635          52.00       225.81
  936.42        3335.00           6638          55.00       238.89
  936.45        3335.25           6642          63.00       273.76
  936.48        3335.50           6646          70.00       304.27
  936.50        3335.75           6649          78.00       339.15
  936.53        3336.00           6653          75.00       326.07
  936.56        3336.25           6657         109.00       474.29
  936.59        3336.50           6661         785.00      3421.41
  936.62        3336.75           6664        2484.00     10830.54
  936.65        3337.00           6668        4721.00     20590.34
  936.68        3337.25           6672        7116.00     31045.19
  936.71        3337.50           6676        9690.00     42288.01
  936.74        3337.75           6679       11739.00     51242.60
  936.77        3338.00           6683       14493.00     63285.03
  936.80        3338.25           6687       17514.00     76503.99
  936.83        3338.50           6690       19604.00     85654.72
  936.86        3338.75           6694       21952.00     95940.46
  936.89        3339.00           6698       24685.00    107920.00
  936.92        3339.25           6702       27398.00    119819.40
  936.95        3339.50           6705       29004.00    126867.20
  936.98        3339.75           6709       31581.00    138181.60
  937.01        3340.00           6713       33860.00    148193.40
  937.04        3340.25           6717       36746.00    160879.50
  937.07        3340.50           6720       38713.00    169531.00
  937.10        3340.75           6724       41118.00    180114.40
  937.13        3341.00           6728       43516.00    190673.10
  937.15        3341.25           6732       44865.00    196615.50
  937.18        3341.50           6735       45387.00    198915.50
  937.21        3341.75           6739       45615.00    199920.20
  937.24        3342.00           6743       45288.00    198479.30
  937.27        3342.25           6747       43612.00    191095.90
  937.30        3342.50           6750       41730.00    182808.60
  937.33        3342.75           6754       39218.00    171752.80
  937.36        3343.00           6758       36711.00    160725.60
  937.39        3343.25           6761       34319.00    150210.40
  937.42        3343.50           6765       31577.00    138164.00
  937.45        3343.75           6769       29243.00    127916.20
  937.48        3344.00           6773       26880.00    117546.90
  937.51        3344.25           6776       24617.00    107621.80
  937.54        3344.50           6780       22107.00     96619.65
  937.57        3344.75           6784       19785.00     86447.41
  937.60        3345.00           6788       17088.00     74639.38
  937.63        3345.25           6791       15103.00     65953.43
  937.66        3345.50           6795       12505.00     54591.31
  937.69        3345.75           6799        9732.00     42471.52
  937.72        3346.00           6803        7176.00     31307.19
  937.75        3346.25           6806        5291.00     23078.02
  937.78        3346.50           6810        2914.00     12706.19
  937.81        3346.75           6814         864.00      3765.86
  937.84        3347.00           6818         211.00       918.94
  937.87        3347.25           6821          99.00       430.69
  937.90        3347.50           6825          77.00       334.79
  937.93        3347.75           6829          78.00       339.15
  937.96        3348.00           6833          68.00       295.56
  937.99        3348.25           6836          69.00       299.92
  938.01        3348.50           6840          58.00       251.96
  938.04        3348.75           6844          54.00       234.53
  938.07        3349.00           6848          57.00       247.60
  938.10        3349.25           6851          53.00       230.17
  938.13        3349.50           6855          54.00       234.53
  938.16        3349.75           6859          58.00       251.96
  938.19        3350.00           6863          47.00       204.01
  938.22        3350.25           6866          55.00       238.89
  938.25        3350.50           6870          56.00       243.24
  938.28        3350.75           6874          52.00       225.81
  938.31        3351.00           6878          56.00       243.24
HL scan finished at 15:39:48
end
************************************************************
  HL Scan of (1) Internal mercury lamp
************************************************************
Integration time is 0.2294 seconds per sample
dh230318Delft 51.9969-4.3863 3.340665pr1000
************************************************************
Dead Time -------------------------  2.7E-08 
Number of Cycles Used -------------  4 
Starting Wavelength (Angstroms) ---  3331 
Final Wavelength (Angstoms) -------  3351 
Wavelength Increment (Angstroms) --  .25 
Filter Wheel #1 Position ---------- (1) Ground quartz diffuser (ND=2.32)
Filter Wheel #2 Position ---------- 



************************************************************
HL scan start time = 17:21:55
Dark Count =  .2 


Time (GMT)  Wavelength (Ang)  Step Number  Raw Counts  Counts/Second

 1042.68        3331.00           6579          44.00       190.93
 1043.09        3331.25           6582          50.00       217.09
 1043.12        3331.50           6586          46.00       199.65
 1043.15        3331.75           6590          49.00       212.73
 1043.17        3332.00           6594          49.00       212.73
 1043.20        3332.25           6597          57.00       247.60
 1043.23        3332.50           6601          50.00       217.09
 1043.26        3332.75           6605          56.00       243.24
 1043.29        3333.00           6608          43.00       186.57
 1043.32        3333.25           6612          48.00       208.37
 1043.35        3333.50           6616          59.00       256.32
 1043.38        3333.75           6620          52.00       225.81
 1043.41        3334.00           6623          53.00       230.17
 1043.44        3334.25           6627          53.00       230.17
 1043.47        3334.50           6631          50.00       217.09
 1043.50        3334.75           6635          62.00       269.40
 1043.53        3335.00           6638          60.00       260.68
 1043.56        3335.25           6642          63.00       273.76
 1043.59        3335.50           6646          69.00       299.92
 1043.62        3335.75           6649          66.00       286.84
 1043.65        3336.00           6653          79.00       343.51
 1043.68        3336.25           6657          99.00       430.69
 1043.71        3336.50           6661         593.00      2584.31
 1043.74        3336.75           6664        2164.00      9434.84
 1043.77        3337.00           6668        4437.00     19351.00
 1043.80        3337.25           6672        7374.00     32171.79
 1043.82        3337.50           6676       10028.00     43764.85
 1043.85        3337.75           6679       11963.00     52221.80
 1043.88        3338.00           6683       14492.00     63280.65
 1043.91        3338.25           6687       17273.00     75449.10
 1043.94        3338.50           6690       19365.00     84608.06
 1043.97        3338.75           6694       21628.00     94520.79
 1044.00        3339.00           6698       23957.00    104728.20
 1044.03        3339.25           6702       26404.00    115458.80
 1044.06        3339.50           6705       28335.00    123931.00
 1044.09        3339.75           6709       31161.00    136337.00
 1044.12        3340.00           6713       33919.00    148452.60
 1044.15        3340.25           6717       36478.00    159701.10
 1044.18        3340.50           6720       37998.00    166385.70
 1044.21        3340.75           6724       40376.00    176848.50
 1044.24        3341.00           6728       42910.00    188004.20
 1044.27        3341.25           6732       44306.00    194152.90
 1044.30        3341.50           6735       44960.00    197034.10
 1044.33        3341.75           6739       45143.00    197840.40
 1044.36        3342.00           6743       44796.00    196311.60
 1044.39        3342.25           6747       42862.00    187792.90
 1044.42        3342.50           6750       40696.00    178256.90
 1044.45        3342.75           6754       38648.00    169245.00
 1044.48        3343.00           6758       35907.00    157190.60
 1044.51        3343.25           6761       33781.00    147846.20
 1044.54        3343.50           6765       31312.00    137000.20
 1044.56        3343.75           6769       29007.00    126880.30
 1044.59        3344.00           6773       26955.00    117875.90
 1044.62        3344.25           6776       24945.00    109060.00
 1044.65        3344.50           6780       22145.00     96786.16
 1044.68        3344.75           6784       19248.00     84095.71
 1044.71        3345.00           6788       16773.00     73260.73
 1044.74        3345.25           6791       14613.00     63809.93
 1044.77        3345.50           6795       12343.00     53883.04
 1044.80        3345.75           6799       10046.00     43843.50
 1044.83        3346.00           6803        7238.00     31577.92
 1044.86        3346.25           6806        5409.00     23593.05
 1044.89        3346.50           6810        3197.00     13940.73
 1044.92        3346.75           6814        1073.00      4677.14
 1044.95        3347.00           6818         195.00       849.19
 1044.98        3347.25           6821          93.00       404.54
 1045.01        3347.50           6825          79.00       343.51
 1045.04        3347.75           6829          76.00       330.43
 1045.07        3348.00           6833          67.00       291.20
 1045.10        3348.25           6836          60.00       260.68
 1045.13        3348.50           6840          61.00       265.04
 1045.16        3348.75           6844          51.00       221.45
 1045.19        3349.00           6848          57.00       247.60
 1045.22        3349.25           6851          50.00       217.09
 1045.24        3349.50           6855          47.00       204.01
 1045.27        3349.75           6859          48.00       208.37
 1045.30        3350.00           6863          55.00       238.89
 1045.33        3350.25           6866          51.00       221.45
 1045.36        3350.50           6870          47.00       204.01
 1045.39        3350.75           6874          59.00       256.32
 1045.42        3351.00           6878          50.00       217.09
HL scan finished at 17:26:55
end
