************************************************************
  HL Scan of (1) Internal mercury lamp
************************************************************
Integration time is 0.2294 seconds per sample
dh260318Delft 51.9969-4.3863 3.287017pr1000
************************************************************
Dead Time -------------------------  2.7E-08 
Number of Cycles Used -------------  4 
Starting Wavelength (Angstroms) ---  3331 
Final Wavelength (Angstoms) -------  3351 
Wavelength Increment (Angstroms) --  .25 
Filter Wheel #1 Position ---------- (1) Ground quartz diffuser (ND=2.32)
Filter Wheel #2 Position ---------- 



************************************************************
HL scan start time = 06:15:52
Dark Count =  .4 


Time (GMT)  Wavelength (Ang)  Step Number  Raw Counts  Counts/Second

  376.63        3331.00           6579          53.00       229.30
  377.04        3331.25           6582          49.00       211.86
  377.07        3331.50           6586          52.00       224.94
  377.10        3331.75           6590          53.00       229.30
  377.13        3332.00           6594          51.00       220.58
  377.16        3332.25           6597          51.00       220.58
  377.19        3332.50           6601          41.00       176.98
  377.22        3332.75           6605          53.00       229.30
  377.24        3333.00           6608          51.00       220.58
  377.27        3333.25           6612          52.00       224.94
  377.30        3333.50           6616          52.00       224.94
  377.33        3333.75           6620          51.00       220.58
  377.36        3334.00           6623          51.00       220.58
  377.39        3334.25           6627          53.00       229.30
  377.42        3334.50           6631          46.00       198.78
  377.45        3334.75           6635          61.00       264.17
  377.48        3335.00           6638          67.00       290.32
  377.51        3335.25           6642          66.00       285.97
  377.54        3335.50           6646          73.00       316.48
  377.57        3335.75           6649          83.00       360.07
  377.60        3336.00           6653          82.00       355.71
  377.63        3336.25           6657         123.00       534.45
  377.66        3336.50           6661         688.00      2997.63
  377.69        3336.75           6664        2133.00      9298.76
  377.72        3337.00           6668        4892.00     21335.74
  377.75        3337.25           6672        7426.00     32397.99
  377.78        3337.50           6676        9912.00     43257.12
  377.81        3337.75           6679       11709.00     51110.59
  377.84        3338.00           6683       13934.00     60839.18
  377.87        3338.25           6687       16711.00     72988.51
  377.90        3338.50           6690       18741.00     81874.78
  377.93        3338.75           6694       21129.00     92333.65
  377.96        3339.00           6698       23568.00    103022.00
  377.99        3339.25           6702       25954.00    113484.10
  378.02        3339.50           6705       27982.00    122381.10
  378.05        3339.75           6709       31032.00    135769.70
  378.08        3340.00           6713       33465.00    146456.80
  378.11        3340.25           6717       35953.00    157392.00
  378.14        3340.50           6720       38118.00    166912.70
  378.17        3340.75           6724       40223.00    176174.30
  378.20        3341.00           6728       42387.00    185700.40
  378.22        3341.25           6732       44197.00    193671.80
  378.26        3341.50           6735       44581.00    195363.50
  378.29        3341.75           6739       44708.00    195923.00
  378.31        3342.00           6743       44600.00    195447.20
  378.35        3342.25           6747       42499.00    186193.50
  378.37        3342.50           6750       40583.00    177758.70
  378.40        3342.75           6754       38338.00    167880.40
  378.44        3343.00           6758       35976.00    157493.10
  378.46        3343.25           6761       34148.00    149458.10
  378.49        3343.50           6765       31414.00    137447.20
  378.52        3343.75           6769       29346.00    128367.40
  378.55        3344.00           6773       27094.00    118484.80
  378.58        3344.25           6776       24933.00    109006.50
  378.61        3344.50           6780       22260.00     97289.22
  378.64        3344.75           6784       19442.00     84944.38
  378.67        3345.00           6788       16611.00     72550.87
  378.70        3345.25           6791       14954.00     65300.74
  378.73        3345.50           6795       12315.00     53759.76
  378.76        3345.75           6799        9528.00     41579.35
  378.79        3346.00           6803        6907.00     30131.74
  378.82        3346.25           6806        5328.00     23238.64
  378.85        3346.50           6810        2952.00     12871.08
  378.88        3346.75           6814         960.00      4183.56
  378.91        3347.00           6818         202.00       878.84
  378.94        3347.25           6821         101.00       438.54
  378.97        3347.50           6825          84.00       364.43
  379.00        3347.75           6829          73.00       316.48
  379.03        3348.00           6833          59.00       255.45
  379.06        3348.25           6836          58.00       251.09
  379.09        3348.50           6840          63.00       272.89
  379.12        3348.75           6844          58.00       251.09
  379.15        3349.00           6848          61.00       264.17
  379.18        3349.25           6851          49.00       211.86
  379.21        3349.50           6855          53.00       229.30
  379.24        3349.75           6859          45.00       194.42
  379.26        3350.00           6863          48.00       207.50
  379.30        3350.25           6866          51.00       220.58
  379.33        3350.50           6870          52.00       224.94
  379.35        3350.75           6874          60.00       259.81
  379.38        3351.00           6878          59.00       255.45
HL scan finished at 06:20:53
end
************************************************************
  HL Scan of (1) Internal mercury lamp
************************************************************
Integration time is 0.2294 seconds per sample
dh260318Delft 51.9969-4.3863 3.287017pr1000
************************************************************
Dead Time -------------------------  2.7E-08 
Number of Cycles Used -------------  4 
Starting Wavelength (Angstroms) ---  3331 
Final Wavelength (Angstoms) -------  3351 
Wavelength Increment (Angstroms) --  .25 
Filter Wheel #1 Position ---------- (1) Ground quartz diffuser (ND=2.32)
Filter Wheel #2 Position ---------- 



************************************************************
HL scan start time = 08:03:04
Dark Count =  .2 


Time (GMT)  Wavelength (Ang)  Step Number  Raw Counts  Counts/Second

  483.83        3331.00           6579          56.00       243.24
  484.24        3331.25           6582          45.00       195.29
  484.27        3331.50           6586          55.00       238.89
  484.30        3331.75           6590          54.00       234.53
  484.33        3332.00           6594          51.00       221.45
  484.35        3332.25           6597          51.00       221.45
  484.38        3332.50           6601          49.00       212.73
  484.41        3332.75           6605          50.00       217.09
  484.44        3333.00           6608          52.00       225.81
  484.47        3333.25           6612          55.00       238.89
  484.50        3333.50           6616          44.00       190.93
  484.53        3333.75           6620          49.00       212.73
  484.56        3334.00           6623          54.00       234.53
  484.59        3334.25           6627          52.00       225.81
  484.62        3334.50           6631          50.00       217.09
  484.65        3334.75           6635          56.00       243.24
  484.68        3335.00           6638          66.00       286.84
  484.71        3335.25           6642          56.00       243.24
  484.74        3335.50           6646          66.00       286.84
  484.77        3335.75           6649          81.00       352.23
  484.80        3336.00           6653          87.00       378.38
  484.83        3336.25           6657         120.00       522.24
  484.86        3336.50           6661        1086.00      4733.82
  484.89        3336.75           6664        2734.00     11921.01
  484.92        3337.00           6668        4846.00     21135.86
  484.95        3337.25           6672        7196.00     31394.52
  484.98        3337.50           6676        9927.00     43323.53
  485.01        3337.75           6679       12101.00     52825.07
  485.04        3338.00           6683       14236.00     62160.92
  485.07        3338.25           6687       16839.00     73549.58
  485.10        3338.50           6690       19050.00     83228.68
  485.13        3338.75           6694       21570.00     94266.66
  485.16        3339.00           6698       24327.00    106350.30
  485.19        3339.25           6702       27021.00    118165.40
  485.22        3339.50           6705       28840.00    126147.30
  485.25        3339.75           6709       31605.00    138286.90
  485.28        3340.00           6713       34068.00    149107.40
  485.30        3340.25           6717       36417.00    159432.90
  485.33        3340.50           6720       37915.00    166020.70
  485.36        3340.75           6724       40254.00    176311.60
  485.39        3341.00           6728       42905.00    187982.20
  485.42        3341.25           6732       44866.00    196619.90
  485.45        3341.50           6735       45049.00    197426.20
  485.48        3341.75           6739       45054.00    197448.30
  485.51        3342.00           6743       44638.00    195615.50
  485.54        3342.25           6747       42723.00    187180.80
  485.57        3342.50           6750       41262.00    180748.30
  485.60        3342.75           6754       38738.00    169641.00
  485.63        3343.00           6758       36344.00    159111.90
  485.66        3343.25           6761       34482.00    150926.80
  485.69        3343.50           6765       31949.00    139797.80
  485.72        3343.75           6769       29407.00    128636.10
  485.75        3344.00           6773       26734.00    116906.40
  485.78        3344.25           6776       24571.00    107420.10
  485.81        3344.50           6780       22088.00     96536.38
  485.84        3344.75           6784       19377.00     84660.61
  485.87        3345.00           6788       16602.00     72512.37
  485.90        3345.25           6791       14674.00     64076.76
  485.93        3345.50           6795       12271.00     53568.28
  485.96        3345.75           6799        9891.00     43166.24
  485.99        3346.00           6803        7354.00     32084.45
  486.02        3346.25           6806        5416.00     23623.61
  486.05        3346.50           6810        2655.00     11576.42
  486.08        3346.75           6814         638.00      2780.51
  486.11        3347.00           6818         161.00       700.97
  486.14        3347.25           6821          98.00       426.33
  486.17        3347.50           6825          82.00       356.59
  486.20        3347.75           6829          75.00       326.07
  486.23        3348.00           6833          71.00       308.63
  486.26        3348.25           6836          68.00       295.56
  486.29        3348.50           6840          56.00       243.24
  486.32        3348.75           6844          49.00       212.73
  486.34        3349.00           6848          52.00       225.81
  486.37        3349.25           6851          46.00       199.65
  486.40        3349.50           6855          57.00       247.60
  486.43        3349.75           6859          55.00       238.89
  486.46        3350.00           6863          56.00       243.24
  486.49        3350.25           6866          54.00       234.53
  486.52        3350.50           6870          62.00       269.40
  486.55        3350.75           6874          58.00       251.96
  486.58        3351.00           6878          53.00       230.17
HL scan finished at 08:08:05
end
