************************************************************
  HL Scan of (1) Internal mercury lamp
************************************************************
Integration time is 0.2294 seconds per sample
dh250318Delft 51.9969-4.3863 3.287017pr1000
************************************************************
Dead Time -------------------------  2.7E-08 
Number of Cycles Used -------------  4 
Starting Wavelength (Angstroms) ---  3331 
Final Wavelength (Angstoms) -------  3351 
Wavelength Increment (Angstroms) --  .25 
Filter Wheel #1 Position ---------- (1) Ground quartz diffuser (ND=2.32)
Filter Wheel #2 Position ---------- 



************************************************************
HL scan start time = 06:18:10
Dark Count =  .5 


Time (GMT)  Wavelength (Ang)  Step Number  Raw Counts  Counts/Second

  378.94        3331.00           6579          52.00       224.50
  379.35        3331.25           6582          50.00       215.78
  379.38        3331.50           6586          54.00       233.22
  379.41        3331.75           6590          50.00       215.78
  379.44        3332.00           6594          50.00       215.78
  379.47        3332.25           6597          50.00       215.78
  379.50        3332.50           6601          51.00       220.14
  379.53        3332.75           6605          52.00       224.50
  379.55        3333.00           6608          45.00       193.99
  379.58        3333.25           6612          50.00       215.78
  379.61        3333.50           6616          55.00       237.58
  379.64        3333.75           6620          58.00       250.66
  379.67        3334.00           6623          60.00       259.37
  379.70        3334.25           6627          48.00       207.06
  379.73        3334.50           6631          53.00       228.86
  379.76        3334.75           6635          54.00       233.22
  379.79        3335.00           6638          64.00       276.81
  379.82        3335.25           6642          60.00       259.37
  379.85        3335.50           6646          65.00       281.17
  379.88        3335.75           6649          77.00       333.48
  379.91        3336.00           6653          88.00       381.43
  379.94        3336.25           6657         117.00       507.85
  379.97        3336.50           6661         502.00      2186.27
  380.00        3336.75           6664        1900.00      8282.15
  380.03        3337.00           6668        4372.00     19066.05
  380.06        3337.25           6672        7042.00     30720.76
  380.09        3337.50           6676        9898.00     43195.51
  380.12        3337.75           6679       11908.00     51980.05
  380.15        3338.00           6683       14398.00     62868.18
  380.18        3338.25           6687       17173.00     75010.09
  380.21        3338.50           6690       19194.00     83857.93
  380.24        3338.75           6694       21557.00     94208.38
  380.27        3339.00           6698       23971.00    104788.20
  380.30        3339.25           6702       26281.00    114917.90
  380.33        3339.50           6705       28344.00    123969.20
  380.36        3339.75           6709       31141.00    136247.90
  380.39        3340.00           6713       33881.00    148284.30
  380.41        3340.25           6717       36154.00    158275.20
  380.44        3340.50           6720       37996.00    166375.60
  380.47        3340.75           6724       40033.00    175337.70
  380.50        3341.00           6728       42684.00    187007.70
  380.53        3341.25           6732       44246.00    193887.20
  380.56        3341.50           6735       45064.00    197491.00
  380.59        3341.75           6739       44950.00    196988.70
  380.62        3342.00           6743       44495.00    194984.20
  380.65        3342.25           6747       42765.00    187364.40
  380.68        3342.50           6750       40554.00    177630.60
  380.71        3342.75           6754       38315.00    167778.80
  380.74        3343.00           6758       35757.00    156529.80
  380.77        3343.25           6761       33696.00    147471.40
  380.80        3343.50           6765       31264.00    136788.10
  380.83        3343.75           6769       29025.00    126958.00
  380.86        3344.00           6773       26710.00    116799.80
  380.89        3344.25           6776       24680.00    107896.70
  380.92        3344.50           6780       22204.00     97043.38
  380.95        3344.75           6784       19287.00     84265.18
  380.98        3345.00           6788       16756.00     73185.01
  381.01        3345.25           6791       14777.00     64526.01
  381.04        3345.50           6795       12236.00     53413.95
  381.07        3345.75           6799        9928.00     43326.60
  381.10        3346.00           6803        7318.00     31925.94
  381.13        3346.25           6806        5475.00     23879.82
  381.16        3346.50           6810        3086.00     13455.19
  381.19        3346.75           6814        1064.00      4636.59
  381.22        3347.00           6818         215.00       935.07
  381.25        3347.25           6821         104.00       451.18
  381.28        3347.50           6825          88.00       381.43
  381.31        3347.75           6829          67.00       289.89
  381.34        3348.00           6833          67.00       289.89
  381.37        3348.25           6836          64.00       276.81
  381.40        3348.50           6840          59.00       255.01
  381.43        3348.75           6844          61.00       263.73
  381.46        3349.00           6848          50.00       215.78
  381.48        3349.25           6851          55.00       237.58
  381.52        3349.50           6855          52.00       224.50
  381.54        3349.75           6859          62.00       268.09
  381.57        3350.00           6863          55.00       237.58
  381.61        3350.25           6866          48.00       207.06
  381.63        3350.50           6870          56.00       241.94
  381.66        3350.75           6874          56.00       241.94
  381.69        3351.00           6878          54.00       233.22
HL scan finished at 06:23:11
end
************************************************************
  HL Scan of (1) Internal mercury lamp
************************************************************
Integration time is 0.2294 seconds per sample
dh250318Delft 51.9969-4.3863 3.287017pr1000
************************************************************
Dead Time -------------------------  2.7E-08 
Number of Cycles Used -------------  4 
Starting Wavelength (Angstroms) ---  3331 
Final Wavelength (Angstoms) -------  3351 
Wavelength Increment (Angstroms) --  .25 
Filter Wheel #1 Position ---------- (1) Ground quartz diffuser (ND=2.32)
Filter Wheel #2 Position ---------- 



************************************************************
HL scan start time = 08:05:23
Dark Count =  .2 


Time (GMT)  Wavelength (Ang)  Step Number  Raw Counts  Counts/Second

  486.16        3331.00           6579          51.00       221.45
  486.57        3331.25           6582          50.00       217.09
  486.59        3331.50           6586          48.00       208.37
  486.62        3331.75           6590          53.00       230.17
  486.65        3332.00           6594          46.00       199.65
  486.68        3332.25           6597          51.00       221.45
  486.71        3332.50           6601          48.00       208.37
  486.74        3332.75           6605          50.00       217.09
  486.77        3333.00           6608          48.00       208.37
  486.80        3333.25           6612          46.00       199.65
  486.83        3333.50           6616          45.00       195.29
  486.86        3333.75           6620          49.00       212.73
  486.89        3334.00           6623          44.00       190.93
  486.92        3334.25           6627          44.00       190.93
  486.95        3334.50           6631          55.00       238.89
  486.98        3334.75           6635          66.00       286.84
  487.01        3335.00           6638          63.00       273.76
  487.04        3335.25           6642          64.00       278.12
  487.07        3335.50           6646          70.00       304.27
  487.10        3335.75           6649          75.00       326.07
  487.13        3336.00           6653          82.00       356.59
  487.16        3336.25           6657         144.00       626.86
  487.18        3336.50           6661        1344.00      5858.82
  487.21        3336.75           6664        3078.00     13421.60
  487.24        3337.00           6668        5527.00     24108.10
  487.27        3337.25           6672        7966.00     34757.10
  487.30        3337.50           6676       10386.00     45329.21
  487.33        3337.75           6679       12288.00     53642.59
  487.36        3338.00           6683       14541.00     63494.99
  487.39        3338.25           6687       16983.00     74179.81
  487.42        3338.50           6690       19012.00     83062.28
  487.45        3338.75           6694       22091.00     96549.53
  487.48        3339.00           6698       24683.00    107911.20
  487.51        3339.25           6702       26867.00    117489.80
  487.54        3339.50           6705       28553.00    124887.70
  487.57        3339.75           6709       31217.00    136583.00
  487.60        3340.00           6713       33917.00    148443.80
  487.63        3340.25           6717       36244.00    158672.20
  487.66        3340.50           6720       37676.00    164969.50
  487.69        3340.75           6724       40086.00    175572.30
  487.72        3341.00           6728       42559.00    186458.60
  487.75        3341.25           6732       44341.00    194307.10
  487.78        3341.50           6735       44497.00    194994.30
  487.81        3341.75           6739       44387.00    194509.70
  487.84        3342.00           6743       44147.00    193452.40
  487.87        3342.25           6747       41657.00    182487.20
  487.90        3342.50           6750       39928.00    174877.00
  487.93        3342.75           6754       37566.00    164485.70
  487.96        3343.00           6758       35395.00    154939.80
  487.99        3343.25           6761       33585.00    146985.00
  488.02        3343.50           6765       31052.00    135858.40
  488.05        3343.75           6769       28258.00    123593.10
  488.08        3344.00           6773       25672.00    112248.10
  488.11        3344.25           6776       23673.00    103483.20
  488.14        3344.50           6780       21445.00     93718.99
  488.17        3344.75           6784       18931.00     82707.60
  488.20        3345.00           6788       16202.00     70761.91
  488.22        3345.25           6791       14358.00     62694.53
  488.26        3345.50           6795       12092.00     52785.73
  488.29        3345.75           6799        9597.00     41881.68
  488.31        3346.00           6803        6742.00     29412.19
  488.34        3346.25           6806        4765.00     20782.36
  488.37        3346.50           6810        2160.00      9417.39
  488.40        3346.75           6814         500.00      2178.86
  488.43        3347.00           6818         138.00       600.71
  488.46        3347.25           6821          87.00       378.38
  488.49        3347.50           6825          79.00       343.51
  488.52        3347.75           6829          65.00       282.48
  488.55        3348.00           6833          69.00       299.92
  488.58        3348.25           6836          68.00       295.56
  488.61        3348.50           6840          62.00       269.40
  488.64        3348.75           6844          59.00       256.32
  488.67        3349.00           6848          60.00       260.68
  488.70        3349.25           6851          48.00       208.37
  488.73        3349.50           6855          60.00       260.68
  488.76        3349.75           6859          49.00       212.73
  488.79        3350.00           6863          57.00       247.60
  488.82        3350.25           6866          50.00       217.09
  488.85        3350.50           6870          55.00       238.89
  488.88        3350.75           6874          53.00       230.17
  488.91        3351.00           6878          48.00       208.37
HL scan finished at 08:10:24
end
************************************************************
  HL Scan of (1) Internal mercury lamp
************************************************************
Integration time is 0.2294 seconds per sample
dh250318Delft 51.9969-4.3863 3.287017pr1000
************************************************************
Dead Time -------------------------  2.7E-08 
Number of Cycles Used -------------  4 
Starting Wavelength (Angstroms) ---  3331 
Final Wavelength (Angstoms) -------  3351 
Wavelength Increment (Angstroms) --  .25 
Filter Wheel #1 Position ---------- (1) Ground quartz diffuser (ND=2.32)
Filter Wheel #2 Position ---------- 



************************************************************
HL scan start time = 09:52:35
Dark Count =  .3 


Time (GMT)  Wavelength (Ang)  Step Number  Raw Counts  Counts/Second

  593.34        3331.00           6579          55.00       238.45
  593.75        3331.25           6582          52.00       225.37
  593.78        3331.50           6586          52.00       225.37
  593.81        3331.75           6590          55.00       238.45
  593.84        3332.00           6594          55.00       238.45
  593.87        3332.25           6597          54.00       234.09
  593.90        3332.50           6601          53.00       229.73
  593.93        3332.75           6605          48.00       207.93
  593.96        3333.00           6608          48.00       207.93
  593.99        3333.25           6612          52.00       225.37
  594.02        3333.50           6616          50.00       216.65
  594.05        3333.75           6620          48.00       207.93
  594.08        3334.00           6623          61.00       264.61
  594.11        3334.25           6627          52.00       225.37
  594.14        3334.50           6631          53.00       229.73
  594.17        3334.75           6635          51.00       221.01
  594.20        3335.00           6638          60.00       260.25
  594.23        3335.25           6642          70.00       303.84
  594.26        3335.50           6646          70.00       303.84
  594.29        3335.75           6649          79.00       343.07
  594.31        3336.00           6653          84.00       364.87
  594.34        3336.25           6657         173.00       752.85
  594.37        3336.50           6661        1450.00      6320.61
  594.40        3336.75           6664        3110.00     13560.76
  594.43        3337.00           6668        5241.00     22859.35
  594.46        3337.25           6672        7429.00     32411.53
  594.49        3337.50           6676        9931.00     43340.58
  594.52        3337.75           6679       12111.00     52868.36
  594.55        3338.00           6683       14705.00     64211.93
  594.58        3338.25           6687       17226.00     75242.94
  594.61        3338.50           6690       19121.00     83539.13
  594.64        3338.75           6694       21504.00     93977.03
  594.67        3339.00           6698       24165.00    105639.60
  594.70        3339.25           6702       26626.00    116432.10
  594.73        3339.50           6705       28318.00    123856.00
  594.76        3339.75           6709       30768.00    134610.90
  594.79        3340.00           6713       33444.00    146365.00
  594.82        3340.25           6717       36058.00    157854.00
  594.85        3340.50           6720       38007.00    166424.90
  594.88        3340.75           6724       40193.00    176042.70
  594.91        3341.00           6728       42538.00    186365.70
  594.94        3341.25           6732       44299.00    194121.60
  594.97        3341.50           6735       44584.00    195377.10
  595.00        3341.75           6739       44748.00    196099.60
  595.03        3342.00           6743       44101.00    193249.40
  595.06        3342.25           6747       42146.00    184639.60
  595.09        3342.50           6750       40541.00    177574.30
  595.12        3342.75           6754       37814.00    165576.00
  595.15        3343.00           6758       34986.00    153141.50
  595.18        3343.25           6761       33219.00    145376.40
  595.21        3343.50           6765       30992.00    135594.50
  595.24        3343.75           6769       28528.00    124777.60
  595.27        3344.00           6773       26150.00    114344.20
  595.30        3344.25           6776       24139.00    105525.60
  595.33        3344.50           6780       21733.00     94980.41
  595.36        3344.75           6784       19150.00     83666.11
  595.39        3345.00           6788       16568.00     72363.13
  595.41        3345.25           6791       14375.00     62768.46
  595.45        3345.50           6795       11592.00     50599.60
  595.48        3345.75           6799        8909.00     38875.58
  595.50        3346.00           6803        6447.00     28123.79
  595.54        3346.25           6806        4653.00     20293.16
  595.56        3346.50           6810        2058.00      8972.10
  595.59        3346.75           6814         477.00      2078.15
  595.62        3347.00           6818         151.00       656.94
  595.65        3347.25           6821          99.00       430.26
  595.68        3347.50           6825          77.00       334.35
  595.71        3347.75           6829          76.00       329.99
  595.74        3348.00           6833          69.00       299.48
  595.77        3348.25           6836          63.00       273.32
  595.80        3348.50           6840          56.00       242.81
  595.83        3348.75           6844          60.00       260.25
  595.86        3349.00           6848          59.00       255.89
  595.89        3349.25           6851          47.00       203.58
  595.92        3349.50           6855          54.00       234.09
  595.95        3349.75           6859          52.00       225.37
  595.98        3350.00           6863          57.00       247.17
  596.01        3350.25           6866          42.00       181.78
  596.04        3350.50           6870          52.00       225.37
  596.07        3350.75           6874          50.00       216.65
  596.10        3351.00           6878          61.00       264.61
HL scan finished at 09:57:35
end
************************************************************
  HL Scan of (1) Internal mercury lamp
************************************************************
Integration time is 0.2294 seconds per sample
dh250318Delft 51.9969-4.3863 3.287017pr1000
************************************************************
Dead Time -------------------------  2.7E-08 
Number of Cycles Used -------------  4 
Starting Wavelength (Angstroms) ---  3331 
Final Wavelength (Angstoms) -------  3351 
Wavelength Increment (Angstroms) --  .25 
Filter Wheel #1 Position ---------- (1) Ground quartz diffuser (ND=2.32)
Filter Wheel #2 Position ---------- 



************************************************************
HL scan start time = 11:39:46
Dark Count =  .2 


Time (GMT)  Wavelength (Ang)  Step Number  Raw Counts  Counts/Second

  700.53        3331.00           6579          54.00       234.53
  700.94        3331.25           6582          54.00       234.53
  700.97        3331.50           6586          49.00       212.73
  701.00        3331.75           6590          54.00       234.53
  701.03        3332.00           6594          54.00       234.53
  701.06        3332.25           6597          49.00       212.73
  701.09        3332.50           6601          51.00       221.45
  701.12        3332.75           6605          50.00       217.09
  701.15        3333.00           6608          55.00       238.89
  701.18        3333.25           6612          51.00       221.45
  701.21        3333.50           6616          53.00       230.17
  701.24        3333.75           6620          49.00       212.73
  701.27        3334.00           6623          55.00       238.89
  701.30        3334.25           6627          52.00       225.81
  701.33        3334.50           6631          50.00       217.09
  701.36        3334.75           6635          57.00       247.60
  701.39        3335.00           6638          56.00       243.24
  701.42        3335.25           6642          59.00       256.32
  701.45        3335.50           6646          74.00       321.71
  701.48        3335.75           6649          75.00       326.07
  701.50        3336.00           6653          85.00       369.66
  701.53        3336.25           6657         107.00       465.57
  701.56        3336.50           6661         658.00      2867.70
  701.59        3336.75           6664        2073.00      9037.95
  701.62        3337.00           6668        4675.00     20389.60
  701.65        3337.25           6672        7330.00     31979.65
  701.68        3337.50           6676        9791.00     42729.30
  701.71        3337.75           6679       11429.00     49887.56
  701.74        3338.00           6683       13746.00     60017.85
  701.77        3338.25           6687       16417.00     71702.77
  701.80        3338.50           6690       18643.00     81446.57
  701.83        3338.75           6694       20969.00     91633.59
  701.86        3339.00           6698       23360.00    102111.10
  701.89        3339.25           6702       25911.00    113296.40
  701.92        3339.50           6705       27945.00    122219.60
  701.95        3339.75           6709       30853.00    134984.50
  701.98        3340.00           6713       33292.00    145697.60
  702.01        3340.25           6717       35498.00    155392.50
  702.04        3340.50           6720       37419.00    163839.10
  702.07        3340.75           6724       40062.00    175466.70
  702.10        3341.00           6728       42162.00    184710.50
  702.13        3341.25           6732       43751.00    191708.10
  702.16        3341.50           6735       44457.00    194818.10
  702.19        3341.75           6739       44479.00    194915.00
  702.22        3342.00           6743       44222.00    193782.80
  702.25        3342.25           6747       42181.00    184794.20
  702.28        3342.50           6750       40554.00    177631.90
  702.31        3342.75           6754       38230.00    167406.20
  702.34        3343.00           6758       35842.00    156904.80
  702.37        3343.25           6761       33827.00    148048.30
  702.40        3343.50           6765       31301.00    136951.90
  702.43        3343.75           6769       29149.00    127503.60
  702.46        3344.00           6773       26842.00    117380.20
  702.49        3344.25           6776       24896.00    108845.10
  702.52        3344.50           6780       22349.00     97680.13
  702.55        3344.75           6784       19328.00     84446.03
  702.58        3345.00           6788       16673.00     72823.09
  702.61        3345.25           6791       14722.00     64286.73
  702.64        3345.50           6795       12180.00     53170.44
  702.67        3345.75           6799        9552.00     41685.08
  702.70        3346.00           6803        6874.00     29988.53
  702.73        3346.25           6806        5312.00     23169.68
  702.76        3346.50           6810        2997.00     13068.25
  702.78        3346.75           6814         997.00      4345.76
  702.82        3347.00           6818         205.00       892.79
  702.84        3347.25           6821          97.00       421.98
  702.87        3347.50           6825          85.00       369.66
  702.90        3347.75           6829          74.00       321.71
  702.93        3348.00           6833          66.00       286.84
  702.96        3348.25           6836          58.00       251.96
  702.99        3348.50           6840          62.00       269.40
  703.02        3348.75           6844          55.00       238.89
  703.05        3349.00           6848          53.00       230.17
  703.08        3349.25           6851          55.00       238.89
  703.11        3349.50           6855          51.00       221.45
  703.14        3349.75           6859          56.00       243.24
  703.17        3350.00           6863          49.00       212.73
  703.20        3350.25           6866          49.00       212.73
  703.23        3350.50           6870          52.00       225.81
  703.26        3350.75           6874          44.00       190.93
  703.29        3351.00           6878          53.00       230.17
HL scan finished at 11:44:47
end
************************************************************
  HL Scan of (1) Internal mercury lamp
************************************************************
Integration time is 0.2294 seconds per sample
dh250318Delft 51.9969-4.3863 3.233369pr1000
************************************************************
Dead Time -------------------------  2.7E-08 
Number of Cycles Used -------------  4 
Starting Wavelength (Angstroms) ---  3331 
Final Wavelength (Angstoms) -------  3351 
Wavelength Increment (Angstroms) --  .25 
Filter Wheel #1 Position ---------- (1) Ground quartz diffuser (ND=2.32)
Filter Wheel #2 Position ---------- 



************************************************************
HL scan start time = 13:26:58
Dark Count =  .3 


Time (GMT)  Wavelength (Ang)  Step Number  Raw Counts  Counts/Second

  807.74        3331.00           6579          50.00       216.65
  808.15        3331.25           6582          52.00       225.37
  808.18        3331.50           6586          48.00       207.93
  808.20        3331.75           6590          51.00       221.01
  808.23        3332.00           6594          51.00       221.01
  808.26        3332.25           6597          48.00       207.93
  808.29        3332.50           6601          46.00       199.22
  808.32        3332.75           6605          45.00       194.86
  808.35        3333.00           6608          49.00       212.29
  808.38        3333.25           6612          53.00       229.73
  808.41        3333.50           6616          54.00       234.09
  808.44        3333.75           6620          47.00       203.58
  808.47        3334.00           6623          56.00       242.81
  808.50        3334.25           6627          46.00       199.22
  808.53        3334.50           6631          61.00       264.61
  808.56        3334.75           6635          56.00       242.81
  808.59        3335.00           6638          58.00       251.53
  808.62        3335.25           6642          65.00       282.04
  808.65        3335.50           6646          66.00       286.40
  808.68        3335.75           6649          77.00       334.35
  808.71        3336.00           6653          74.00       321.28
  808.74        3336.25           6657         115.00       500.01
  808.77        3336.50           6661         977.00      4258.12
  808.80        3336.75           6664        2483.00     10825.74
  808.83        3337.00           6668        4610.00     20105.51
  808.85        3337.25           6672        6833.00     29809.08
  808.89        3337.50           6676        9512.00     41509.88
  808.91        3337.75           6679       11549.00     50411.64
  808.94        3338.00           6683       13899.00     60686.54
  808.98        3338.25           6687       16258.00     71006.53
  809.00        3338.50           6690       18228.00     79629.18
  809.03        3338.75           6694       20729.00     90581.78
  809.06        3339.00           6698       23594.00    103136.40
  809.09        3339.25           6702       26369.00    115304.80
  809.12        3339.50           6705       28068.00    122758.90
  809.15        3339.75           6709       30592.00    133838.10
  809.18        3340.00           6713       33289.00    145683.90
  809.21        3340.25           6717       35324.00    154627.20
  809.24        3340.50           6720       36916.00    161626.60
  809.27        3340.75           6724       39049.00    171008.80
  809.30        3341.00           6728       41720.00    182764.10
  809.33        3341.25           6732       43662.00    191315.70
  809.36        3341.50           6735       44170.00    193553.30
  809.39        3341.75           6739       43920.00    192452.10
  809.42        3342.00           6743       43485.00    190536.10
  809.45        3342.25           6747       42041.00    184177.40
  809.48        3342.50           6750       40388.00    176900.90
  809.51        3342.75           6754       37712.00    165127.40
  809.54        3343.00           6758       35340.00    154697.60
  809.57        3343.25           6761       33735.00    147643.60
  809.60        3343.50           6765       31375.00    137276.40
  809.63        3343.75           6769       28861.00    126239.10
  809.66        3344.00           6773       26329.00    115129.30
  809.69        3344.25           6776       24039.00    105087.20
  809.72        3344.50           6780       21612.00     94450.24
  809.75        3344.75           6784       18918.00     82650.24
  809.78        3345.00           6788       16303.00     71203.46
  809.81        3345.25           6791       14280.00     62352.92
  809.84        3345.50           6795       12209.00     53296.78
  809.87        3345.75           6799        9846.00     42969.18
  809.90        3346.00           6803        7309.00     31887.51
  809.93        3346.25           6806        5415.00     23618.81
  809.96        3346.50           6810        2834.00     12356.78
  809.99        3346.75           6814         721.00      3141.94
  810.02        3347.00           6818         164.00       713.61
  810.05        3347.25           6821          95.00       412.82
  810.08        3347.50           6825          83.00       360.51
  810.11        3347.75           6829          66.00       286.40
  810.14        3348.00           6833          56.00       242.81
  810.17        3348.25           6836          55.00       238.45
  810.19        3348.50           6840          63.00       273.32
  810.22        3348.75           6844          58.00       251.53
  810.25        3349.00           6848          58.00       251.53
  810.28        3349.25           6851          50.00       216.65
  810.31        3349.50           6855          51.00       221.01
  810.34        3349.75           6859          55.00       238.45
  810.37        3350.00           6863          55.00       238.45
  810.40        3350.25           6866          53.00       229.73
  810.43        3350.50           6870          54.00       234.09
  810.46        3350.75           6874          58.00       251.53
  810.49        3351.00           6878          54.00       234.09
HL scan finished at 13:31:59
end
************************************************************
  HL Scan of (1) Internal mercury lamp
************************************************************
Integration time is 0.2294 seconds per sample
dh250318Delft 51.9969-4.3863 3.233369pr1000
************************************************************
Dead Time -------------------------  2.7E-08 
Number of Cycles Used -------------  4 
Starting Wavelength (Angstroms) ---  3331 
Final Wavelength (Angstoms) -------  3351 
Wavelength Increment (Angstroms) --  .25 
Filter Wheel #1 Position ---------- (1) Ground quartz diffuser (ND=2.32)
Filter Wheel #2 Position ---------- 



************************************************************
HL scan start time = 15:14:11
Dark Count =  .1 


Time (GMT)  Wavelength (Ang)  Step Number  Raw Counts  Counts/Second

  914.95        3331.00           6579          51.00       221.88
  915.36        3331.25           6582          54.00       234.96
  915.39        3331.50           6586          50.00       217.53
  915.42        3331.75           6590          53.00       230.60
  915.44        3332.00           6594          58.00       252.40
  915.47        3332.25           6597          47.00       204.45
  915.50        3332.50           6601          49.00       213.17
  915.53        3332.75           6605          48.00       208.81
  915.56        3333.00           6608          54.00       234.96
  915.59        3333.25           6612          54.00       234.96
  915.62        3333.50           6616          51.00       221.88
  915.65        3333.75           6620          49.00       213.17
  915.68        3334.00           6623          45.00       195.73
  915.71        3334.25           6627          58.00       252.40
  915.74        3334.50           6631          57.00       248.04
  915.77        3334.75           6635          55.00       239.32
  915.80        3335.00           6638          60.00       261.12
  915.83        3335.25           6642          61.00       265.48
  915.86        3335.50           6646          68.00       295.99
  915.89        3335.75           6649          81.00       352.66
  915.92        3336.00           6653          83.00       361.38
  915.95        3336.25           6657         109.00       474.72
  915.98        3336.50           6661         679.00      2959.70
  916.01        3336.75           6664        2276.00      9923.76
  916.04        3337.00           6668        4624.00     20167.48
  916.07        3337.25           6672        6826.00     29779.39
  916.10        3337.50           6676        9244.00     40339.91
  916.13        3337.75           6679       11256.00     49131.83
  916.16        3338.00           6683       13650.00     59598.44
  916.19        3338.25           6687       16611.00     72552.19
  916.22        3338.50           6690       18643.00     81447.00
  916.25        3338.75           6694       21161.00     92475.16
  916.28        3339.00           6698       23818.00    104119.20
  916.31        3339.25           6702       26270.00    114871.40
  916.34        3339.50           6705       28062.00    122733.40
  916.37        3339.75           6709       30469.00    133298.90
  916.40        3340.00           6713       32740.00    143272.90
  916.43        3340.25           6717       35479.00    155309.40
  916.45        3340.50           6720       37068.00    162295.90
  916.48        3340.75           6724       39496.00    172976.40
  916.51        3341.00           6728       41945.00    183755.60
  916.54        3341.25           6732       43750.00    191704.20
  916.57        3341.50           6735       44019.00    192889.10
  916.60        3341.75           6739       44103.00    193259.10
  916.63        3342.00           6743       43573.00    190924.60
  916.66        3342.25           6747       41968.00    183856.80
  916.69        3342.50           6750       40473.00    177275.90
  916.72        3342.75           6754       38247.00    167481.40
  916.75        3343.00           6758       35499.00    155397.40
  916.78        3343.25           6761       33359.00    145992.40
  916.81        3343.50           6765       30821.00    134844.50
  916.84        3343.75           6769       28418.00    124295.70
  916.87        3344.00           6773       26023.00    113788.00
  916.90        3344.25           6776       23935.00    104632.20
  916.93        3344.50           6780       21499.00     93956.00
  916.96        3344.75           6784       18993.00     82979.52
  916.99        3345.00           6788       16744.00     73134.25
  917.02        3345.25           6791       14663.00     64029.09
  917.05        3345.50           6795       12260.00     53520.62
  917.08        3345.75           6799        9604.00     41912.71
  917.11        3346.00           6803        6893.00     30071.92
  917.14        3346.25           6806        4991.00     21769.11
  917.17        3346.50           6810        2829.00     12335.84
  917.20        3346.75           6814         836.00      3644.21
  917.23        3347.00           6818         193.00       840.91
  917.26        3347.25           6821          94.00       409.33
  917.29        3347.50           6825          81.00       352.66
  917.32        3347.75           6829          72.00       313.43
  917.35        3348.00           6833          65.00       282.91
  917.38        3348.25           6836          59.00       256.76
  917.40        3348.50           6840          57.00       248.04
  917.43        3348.75           6844          55.00       239.32
  917.46        3349.00           6848          57.00       248.04
  917.49        3349.25           6851          58.00       252.40
  917.52        3349.50           6855          54.00       234.96
  917.55        3349.75           6859          55.00       239.32
  917.58        3350.00           6863          55.00       239.32
  917.61        3350.25           6866          43.00       187.01
  917.64        3350.50           6870          51.00       221.88
  917.67        3350.75           6874          56.00       243.68
  917.70        3351.00           6878          50.00       217.53
HL scan finished at 15:19:12
end
************************************************************
  HL Scan of (1) Internal mercury lamp
************************************************************
Integration time is 0.2294 seconds per sample
dh250318Delft 51.9969-4.3863 3.287017pr1000
************************************************************
Dead Time -------------------------  2.7E-08 
Number of Cycles Used -------------  4 
Starting Wavelength (Angstroms) ---  3331 
Final Wavelength (Angstoms) -------  3351 
Wavelength Increment (Angstroms) --  .25 
Filter Wheel #1 Position ---------- (1) Ground quartz diffuser (ND=2.32)
Filter Wheel #2 Position ---------- 



************************************************************
HL scan start time = 17:01:22
Dark Count =  .4 


Time (GMT)  Wavelength (Ang)  Step Number  Raw Counts  Counts/Second

 1022.13        3331.00           6579          52.00       224.94
 1022.54        3331.25           6582          50.00       216.22
 1022.57        3331.50           6586          42.00       181.34
 1022.60        3331.75           6590          55.00       238.01
 1022.63        3332.00           6594          54.00       233.65
 1022.66        3332.25           6597          49.00       211.86
 1022.69        3332.50           6601          49.00       211.86
 1022.72        3332.75           6605          46.00       198.78
 1022.75        3333.00           6608          48.00       207.50
 1022.78        3333.25           6612          54.00       233.65
 1022.81        3333.50           6616          58.00       251.09
 1022.84        3333.75           6620          50.00       216.22
 1022.87        3334.00           6623          56.00       242.37
 1022.90        3334.25           6627          50.00       216.22
 1022.93        3334.50           6631          53.00       229.30
 1022.95        3334.75           6635          57.00       246.73
 1022.99        3335.00           6638          63.00       272.89
 1023.01        3335.25           6642          57.00       246.73
 1023.04        3335.50           6646          63.00       272.89
 1023.07        3335.75           6649          68.00       294.68
 1023.10        3336.00           6653          78.00       338.28
 1023.13        3336.25           6657         101.00       438.54
 1023.16        3336.50           6661         509.00      2217.22
 1023.19        3336.75           6664        1982.00      8640.20
 1023.22        3337.00           6668        4407.00     19219.21
 1023.25        3337.25           6672        6812.00     29716.95
 1023.28        3337.50           6676        9841.00     42946.90
 1023.31        3337.75           6679       11766.00     51359.75
 1023.34        3338.00           6683       14145.00     61762.02
 1023.37        3338.25           6687       16878.00     73719.40
 1023.40        3338.50           6690       18982.00     82930.03
 1023.43        3338.75           6694       21356.00     93328.18
 1023.46        3339.00           6698       23722.00    103697.10
 1023.49        3339.25           6702       25920.00    113335.00
 1023.52        3339.50           6705       27890.00    121977.40
 1023.55        3339.75           6709       30597.00    133859.60
 1023.58        3340.00           6713       33336.00    145890.00
 1023.61        3340.25           6717       35531.00    155536.70
 1023.64        3340.50           6720       37439.00    163926.20
 1023.67        3340.75           6724       39434.00    172702.30
 1023.70        3341.00           6728       41988.00    183943.60
 1023.73        3341.25           6732       43723.00    191584.00
 1023.76        3341.50           6735       44021.00    192896.60
 1023.79        3341.75           6739       44058.00    193059.60
 1023.82        3342.00           6743       43875.00    192253.40
 1023.85        3342.25           6747       42082.00    184357.40
 1023.88        3342.50           6750       40395.00    176931.30
 1023.91        3342.75           6754       37607.00    164665.10
 1023.94        3343.00           6758       35196.00    154064.10
 1023.97        3343.25           6761       33363.00    146008.70
 1024.00        3343.50           6765       30792.00    134715.80
 1024.03        3343.75           6769       28335.00    123930.10
 1024.06        3344.00           6773       26053.00    113918.30
 1024.08        3344.25           6776       24232.00    105932.90
 1024.11        3344.50           6780       22024.00     96255.06
 1024.14        3344.75           6784       19295.00     84300.63
 1024.17        3345.00           6788       16425.00     71736.90
 1024.20        3345.25           6791       14399.00     62872.99
 1024.23        3345.50           6795       12054.00     52618.73
 1024.26        3345.75           6799        9740.00     42505.60
 1024.29        3346.00           6803        7212.00     31463.51
 1024.32        3346.25           6806        5243.00     22867.65
 1024.35        3346.50           6810        2820.00     12295.28
 1024.38        3346.75           6814         936.00      4078.91
 1024.41        3347.00           6818         211.00       918.07
 1024.44        3347.25           6821         109.00       473.41
 1024.47        3347.50           6825          85.00       368.79
 1024.50        3347.75           6829          68.00       294.68
 1024.53        3348.00           6833          66.00       285.97
 1024.56        3348.25           6836          72.00       312.12
 1024.59        3348.50           6840          59.00       255.45
 1024.62        3348.75           6844          56.00       242.37
 1024.65        3349.00           6848          60.00       259.81
 1024.68        3349.25           6851          47.00       203.14
 1024.71        3349.50           6855          53.00       229.30
 1024.74        3349.75           6859          48.00       207.50
 1024.77        3350.00           6863          56.00       242.37
 1024.80        3350.25           6866          54.00       233.65
 1024.83        3350.50           6870          54.00       233.65
 1024.86        3350.75           6874          49.00       211.86
 1024.89        3351.00           6878          52.00       224.94
HL scan finished at 17:06:23
end
