************************************************************
  HL Scan of (1) Internal mercury lamp
************************************************************
Integration time is 0.2294 seconds per sample
dh240318Delft 51.9969-4.3863 3.287017pr1000
************************************************************
Dead Time -------------------------  2.7E-08 
Number of Cycles Used -------------  4 
Starting Wavelength (Angstroms) ---  3331 
Final Wavelength (Angstoms) -------  3351 
Wavelength Increment (Angstroms) --  .25 
Filter Wheel #1 Position ---------- (1) Ground quartz diffuser (ND=2.32)
Filter Wheel #2 Position ---------- 



************************************************************
HL scan start time = 06:20:30
Dark Count =  .4 


Time (GMT)  Wavelength (Ang)  Step Number  Raw Counts  Counts/Second

  381.26        3331.00           6579          54.00       233.65
  381.67        3331.25           6582          52.00       224.94
  381.70        3331.50           6586          55.00       238.01
  381.73        3331.75           6590          56.00       242.37
  381.76        3332.00           6594          53.00       229.30
  381.79        3332.25           6597          52.00       224.94
  381.82        3332.50           6601          49.00       211.86
  381.85        3332.75           6605          45.00       194.42
  381.88        3333.00           6608          48.00       207.50
  381.91        3333.25           6612          54.00       233.65
  381.94        3333.50           6616          46.00       198.78
  381.97        3333.75           6620          55.00       238.01
  382.00        3334.00           6623          48.00       207.50
  382.03        3334.25           6627          54.00       233.65
  382.06        3334.50           6631          54.00       233.65
  382.09        3334.75           6635          55.00       238.01
  382.12        3335.00           6638          54.00       233.65
  382.15        3335.25           6642          68.00       294.68
  382.17        3335.50           6646          67.00       290.32
  382.20        3335.75           6649          72.00       312.12
  382.23        3336.00           6653          82.00       355.71
  382.26        3336.25           6657         111.00       482.13
  382.29        3336.50           6661         674.00      2936.59
  382.32        3336.75           6664        2153.00      9385.99
  382.35        3337.00           6668        4648.00     20270.90
  382.38        3337.25           6672        7410.00     32328.12
  382.41        3337.50           6676        9900.00     43204.69
  382.44        3337.75           6679       11786.00     51447.17
  382.47        3338.00           6683       13948.00     60900.41
  382.50        3338.25           6687       16716.00     73010.40
  382.53        3338.50           6690       18929.00     82697.96
  382.56        3338.75           6694       21444.00     93713.72
  382.59        3339.00           6698       23673.00    103482.30
  382.62        3339.25           6702       26280.00    114914.00
  382.65        3339.50           6705       28171.00    123210.40
  382.68        3339.75           6709       31088.00    136015.60
  382.71        3340.00           6713       33916.00    148438.60
  382.74        3340.25           6717       36037.00    157761.30
  382.77        3340.50           6720       38148.00    167044.70
  382.80        3340.75           6724       40787.00    178656.60
  382.83        3341.00           6728       42948.00    188170.70
  382.86        3341.25           6732       44740.00    196064.00
  382.89        3341.50           6735       45213.00    198147.90
  382.92        3341.75           6739       45316.00    198601.80
  382.95        3342.00           6743       45058.00    197465.00
  382.98        3342.25           6747       43015.00    188465.80
  383.01        3342.50           6750       41470.00    181663.10
  383.04        3342.75           6754       39043.00    170982.00
  383.07        3343.00           6758       36383.00    159282.50
  383.10        3343.25           6761       34497.00    150991.80
  383.13        3343.50           6765       32050.00    140240.60
  383.16        3343.75           6769       29656.00    129728.20
  383.18        3344.00           6773       27534.00    120415.30
  383.21        3344.25           6776       25406.00    111080.70
  383.24        3344.50           6780       22780.00     99568.10
  383.27        3344.75           6784       19832.00     86652.36
  383.30        3345.00           6788       17003.00     74266.47
  383.33        3345.25           6791       15115.00     66005.06
  383.36        3345.50           6795       12603.00     55018.90
  383.39        3345.75           6799        9778.00     42671.63
  383.42        3346.00           6803        7029.00     30664.44
  383.45        3346.25           6806        5384.00     23483.06
  383.48        3346.50           6810        3094.00     13490.53
  383.51        3346.75           6814         948.00      4131.24
  383.54        3347.00           6818         208.00       904.99
  383.57        3347.25           6821          97.00       421.10
  383.60        3347.50           6825          78.00       338.28
  383.63        3347.75           6829          73.00       316.48
  383.66        3348.00           6833          78.00       338.28
  383.69        3348.25           6836          62.00       268.53
  383.72        3348.50           6840          60.00       259.81
  383.75        3348.75           6844          63.00       272.89
  383.78        3349.00           6848          55.00       238.01
  383.81        3349.25           6851          52.00       224.94
  383.84        3349.50           6855          58.00       251.09
  383.87        3349.75           6859          52.00       224.94
  383.89        3350.00           6863          48.00       207.50
  383.93        3350.25           6866          56.00       242.37
  383.96        3350.50           6870          51.00       220.58
  383.98        3350.75           6874          49.00       211.86
  384.02        3351.00           6878          57.00       246.73
HL scan finished at 06:25:30
end
************************************************************
  HL Scan of (1) Internal mercury lamp
************************************************************
Integration time is 0.2294 seconds per sample
dh240318Delft 51.9969-4.3863 3.287017pr1000
************************************************************
Dead Time -------------------------  2.7E-08 
Number of Cycles Used -------------  4 
Starting Wavelength (Angstroms) ---  3331 
Final Wavelength (Angstoms) -------  3351 
Wavelength Increment (Angstroms) --  .25 
Filter Wheel #1 Position ---------- (1) Ground quartz diffuser (ND=2.32)
Filter Wheel #2 Position ---------- 



************************************************************
HL scan start time = 08:07:41
Dark Count =  .3 


Time (GMT)  Wavelength (Ang)  Step Number  Raw Counts  Counts/Second

  488.45        3331.00           6579          51.00       221.01
  488.86        3331.25           6582          52.00       225.37
  488.89        3331.50           6586          54.00       234.09
  488.92        3331.75           6590          49.00       212.29
  488.95        3332.00           6594          54.00       234.09
  488.98        3332.25           6597          50.00       216.65
  489.01        3332.50           6601          51.00       221.01
  489.04        3332.75           6605          51.00       221.01
  489.07        3333.00           6608          57.00       247.17
  489.10        3333.25           6612          53.00       229.73
  489.13        3333.50           6616          54.00       234.09
  489.16        3333.75           6620          47.00       203.58
  489.19        3334.00           6623          49.00       212.29
  489.22        3334.25           6627          53.00       229.73
  489.25        3334.50           6631          48.00       207.93
  489.27        3334.75           6635          56.00       242.81
  489.31        3335.00           6638          60.00       260.25
  489.33        3335.25           6642          65.00       282.04
  489.36        3335.50           6646          61.00       264.61
  489.39        3335.75           6649          78.00       338.71
  489.42        3336.00           6653          87.00       377.95
  489.45        3336.25           6657         112.00       486.93
  489.48        3336.50           6661         945.00      4118.59
  489.51        3336.75           6664        2548.00     11109.26
  489.54        3337.00           6668        4846.00     21135.43
  489.57        3337.25           6672        7070.00     30843.90
  489.60        3337.50           6676        9589.00     41846.30
  489.63        3337.75           6679       11847.00     51714.27
  489.66        3338.00           6683       14144.00     61758.08
  489.69        3338.25           6687       16545.00     72262.47
  489.72        3338.50           6690       18550.00     81038.94
  489.75        3338.75           6694       21320.00     93170.88
  489.78        3339.00           6698       23900.00    104477.80
  489.81        3339.25           6702       26688.00    116704.10
  489.84        3339.50           6705       28625.00    125203.30
  489.87        3339.75           6709       31175.00    136398.10
  489.90        3340.00           6713       33824.00    148034.70
  489.93        3340.25           6717       36129.00    158166.20
  489.96        3340.50           6720       37958.00    166209.40
  489.99        3340.75           6724       40008.00    175228.60
  490.02        3341.00           6728       42359.00    185577.50
  490.04        3341.25           6732       44295.00    194104.00
  490.08        3341.50           6735       44852.00    196557.80
  490.11        3341.75           6739       44853.00    196562.20
  490.13        3342.00           6743       44533.00    195152.40
  490.17        3342.25           6747       42963.00    188237.20
  490.19        3342.50           6750       41220.00    180563.00
  490.22        3342.75           6754       38469.00    168457.10
  490.26        3343.00           6758       35998.00    157590.20
  490.28        3343.25           6761       34440.00    150741.70
  490.31        3343.50           6765       32300.00    141339.10
  490.34        3343.75           6769       29621.00    129575.00
  490.37        3344.00           6773       26870.00    117502.50
  490.40        3344.25           6776       24784.00    108353.60
  490.43        3344.50           6780       22104.00     96606.06
  490.46        3344.75           6784       19356.00     84568.21
  490.49        3345.00           6788       16731.00     73076.48
  490.52        3345.25           6791       14603.00     63765.76
  490.55        3345.50           6795       12269.00     53559.10
  490.58        3345.75           6799       10056.00     43886.76
  490.61        3346.00           6803        7409.00     32324.19
  490.64        3346.25           6806        5642.00     24609.64
  490.67        3346.50           6810        3043.00     13268.49
  490.70        3346.75           6814         790.00      3442.78
  490.73        3347.00           6818         185.00       805.16
  490.76        3347.25           6821          95.00       412.82
  490.79        3347.50           6825          86.00       373.59
  490.82        3347.75           6829          75.00       325.63
  490.85        3348.00           6833          66.00       286.40
  490.88        3348.25           6836          66.00       286.40
  490.91        3348.50           6840          56.00       242.81
  490.94        3348.75           6844          56.00       242.81
  490.97        3349.00           6848          61.00       264.61
  491.00        3349.25           6851          53.00       229.73
  491.03        3349.50           6855          53.00       229.73
  491.05        3349.75           6859          55.00       238.45
  491.08        3350.00           6863          55.00       238.45
  491.11        3350.25           6866          52.00       225.37
  491.14        3350.50           6870          57.00       247.17
  491.17        3350.75           6874          51.00       221.01
  491.20        3351.00           6878          57.00       247.17
HL scan finished at 08:12:42
end
************************************************************
  HL Scan of (1) Internal mercury lamp
************************************************************
Integration time is 0.2294 seconds per sample
dh240318Delft 51.9969-4.3863 3.287017pr1000
************************************************************
Dead Time -------------------------  2.7E-08 
Number of Cycles Used -------------  4 
Starting Wavelength (Angstroms) ---  3331 
Final Wavelength (Angstoms) -------  3351 
Wavelength Increment (Angstroms) --  .25 
Filter Wheel #1 Position ---------- (1) Ground quartz diffuser (ND=2.32)
Filter Wheel #2 Position ---------- 



************************************************************
HL scan start time = 09:54:54
Dark Count =  .3 


Time (GMT)  Wavelength (Ang)  Step Number  Raw Counts  Counts/Second

  595.66        3331.00           6579          53.00       229.73
  596.07        3331.25           6582          48.00       207.93
  596.10        3331.50           6586          42.00       181.78
  596.13        3331.75           6590          50.00       216.65
  596.16        3332.00           6594          57.00       247.17
  596.19        3332.25           6597          46.00       199.22
  596.22        3332.50           6601          54.00       234.09
  596.25        3332.75           6605          53.00       229.73
  596.27        3333.00           6608          51.00       221.01
  596.30        3333.25           6612          48.00       207.93
  596.33        3333.50           6616          44.00       190.50
  596.36        3333.75           6620          57.00       247.17
  596.39        3334.00           6623          55.00       238.45
  596.42        3334.25           6627          49.00       212.29
  596.45        3334.50           6631          50.00       216.65
  596.48        3334.75           6635          55.00       238.45
  596.51        3335.00           6638          60.00       260.25
  596.54        3335.25           6642          58.00       251.53
  596.57        3335.50           6646          71.00       308.20
  596.60        3335.75           6649          72.00       312.56
  596.63        3336.00           6653          81.00       351.79
  596.66        3336.25           6657         116.00       504.37
  596.69        3336.50           6661         699.00      3046.02
  596.72        3336.75           6664        2321.00     10119.15
  596.75        3337.00           6668        4764.00     20777.57
  596.78        3337.25           6672        7051.00     30760.94
  596.81        3337.50           6676        9430.00     41151.63
  596.84        3337.75           6679       11398.00     49751.62
  596.87        3338.00           6683       13957.00     60940.21
  596.90        3338.25           6687       16932.00     73956.16
  596.93        3338.50           6690       19343.00     84511.28
  596.96        3338.75           6694       21685.00     94770.09
  596.99        3339.00           6698       24179.00    105701.00
  597.02        3339.25           6702       26917.00    117708.70
  597.05        3339.50           6705       28988.00    126796.50
  597.08        3339.75           6709       31214.00    136569.40
  597.11        3340.00           6713       33528.00    146734.10
  597.14        3340.25           6717       36012.00    157651.80
  597.17        3340.50           6720       37916.00    166024.60
  597.20        3340.75           6724       40521.00    177486.30
  597.23        3341.00           6728       42864.00    187801.20
  597.25        3341.25           6732       44861.00    196597.50
  597.29        3341.50           6735       45291.00    198492.10
  597.32        3341.75           6739       45068.00    197509.50
  597.34        3342.00           6743       44787.00    196271.50
  597.38        3342.25           6747       43073.00    188721.60
  597.41        3342.50           6750       41537.00    181958.50
  597.44        3342.75           6754       39241.00    171853.60
  597.47        3343.00           6758       36367.00    159212.60
  597.50        3343.25           6761       34515.00    151071.40
  597.52        3343.50           6765       31709.00    138743.30
  597.55        3343.75           6769       29016.00    126919.40
  597.58        3344.00           6773       26726.00    116870.80
  597.61        3344.25           6776       24558.00    107362.60
  597.64        3344.50           6780       22042.00     96334.37
  597.67        3344.75           6784       19432.00     84901.02
  597.70        3345.00           6788       17179.00     75037.23
  597.73        3345.25           6791       15113.00     65996.75
  597.76        3345.50           6795       12708.00     55478.42
  597.79        3345.75           6799        9934.00     43353.69
  597.82        3346.00           6803        7039.00     30708.54
  597.85        3346.25           6806        5246.00     22881.18
  597.88        3346.50           6810        2787.00     12151.76
  597.91        3346.75           6814         882.00      3843.90
  597.94        3347.00           6818         206.00       896.71
  597.97        3347.25           6821          97.00       421.54
  598.00        3347.50           6825          87.00       377.95
  598.03        3347.75           6829          79.00       343.07
  598.06        3348.00           6833          70.00       303.84
  598.09        3348.25           6836          65.00       282.04
  598.12        3348.50           6840          57.00       247.17
  598.15        3348.75           6844          53.00       229.73
  598.18        3349.00           6848          52.00       225.37
  598.21        3349.25           6851          57.00       247.17
  598.24        3349.50           6855          54.00       234.09
  598.27        3349.75           6859          57.00       247.17
  598.30        3350.00           6863          55.00       238.45
  598.33        3350.25           6866          55.00       238.45
  598.36        3350.50           6870          53.00       229.73
  598.39        3350.75           6874          59.00       255.89
  598.42        3351.00           6878          52.00       225.37
HL scan finished at 09:59:54
end
************************************************************
  HL Scan of (1) Internal mercury lamp
************************************************************
Integration time is 0.2294 seconds per sample
dh240318Delft 51.9969-4.3863 3.287017pr1000
************************************************************
Dead Time -------------------------  2.7E-08 
Number of Cycles Used -------------  4 
Starting Wavelength (Angstroms) ---  3331 
Final Wavelength (Angstoms) -------  3351 
Wavelength Increment (Angstroms) --  .25 
Filter Wheel #1 Position ---------- (1) Ground quartz diffuser (ND=2.32)
Filter Wheel #2 Position ---------- 



************************************************************
HL scan start time = 11:42:05
Dark Count =  .4 


Time (GMT)  Wavelength (Ang)  Step Number  Raw Counts  Counts/Second

  702.85        3331.00           6579          55.00       238.01
  703.26        3331.25           6582          47.00       203.14
  703.29        3331.50           6586          44.00       190.06
  703.32        3331.75           6590          49.00       211.86
  703.35        3332.00           6594          60.00       259.81
  703.38        3332.25           6597          51.00       220.58
  703.41        3332.50           6601          46.00       198.78
  703.44        3332.75           6605          52.00       224.94
  703.47        3333.00           6608          55.00       238.01
  703.50        3333.25           6612          49.00       211.86
  703.53        3333.50           6616          51.00       220.58
  703.56        3333.75           6620          53.00       229.30
  703.59        3334.00           6623          52.00       224.94
  703.62        3334.25           6627          55.00       238.01
  703.65        3334.50           6631          52.00       224.94
  703.68        3334.75           6635          55.00       238.01
  703.71        3335.00           6638          50.00       216.22
  703.74        3335.25           6642          64.00       277.25
  703.77        3335.50           6646          68.00       294.68
  703.80        3335.75           6649          69.00       299.04
  703.83        3336.00           6653          80.00       347.00
  703.86        3336.25           6657          98.00       425.46
  703.88        3336.50           6661         633.00      2757.83
  703.91        3336.75           6664        1980.00      8631.48
  703.94        3337.00           6668        4395.00     19166.85
  703.97        3337.25           6672        6918.00     30179.77
  704.00        3337.50           6676        9733.00     42475.01
  704.03        3337.75           6679       12118.00     52898.52
  704.06        3338.00           6683       14497.00     63301.65
  704.09        3338.25           6687       17218.00     75207.49
  704.12        3338.50           6690       19483.00     85123.92
  704.15        3338.75           6694       22062.00     96421.58
  704.18        3339.00           6698       24496.00    107090.40
  704.21        3339.25           6702       26748.00    116966.90
  704.24        3339.50           6705       28523.00    124755.20
  704.27        3339.75           6709       31349.00    137161.80
  704.30        3340.00           6713       34020.00    148895.60
  704.33        3340.25           6717       36624.00    160342.20
  704.36        3340.50           6720       38236.00    167431.80
  704.39        3340.75           6724       40835.00    178867.90
  704.42        3341.00           6728       43057.00    188650.70
  704.45        3341.25           6732       44843.00    196517.70
  704.48        3341.50           6735       45269.00    198394.70
  704.51        3341.75           6739       45353.00    198764.80
  704.54        3342.00           6743       45216.00    198161.20
  704.57        3342.25           6747       43137.00    189003.00
  704.60        3342.50           6750       41405.00    181376.90
  704.63        3342.75           6754       38871.00    170225.20
  704.66        3343.00           6758       36348.00    159128.60
  704.69        3343.25           6761       34264.00    149967.80
  704.72        3343.50           6765       31830.00    139274.30
  704.75        3343.75           6769       28953.00    126642.40
  704.78        3344.00           6773       26944.00    117826.70
  704.81        3344.25           6776       24933.00    109006.50
  704.84        3344.50           6780       22685.00     99151.74
  704.87        3344.75           6784       19822.00     86608.57
  704.90        3345.00           6788       16931.00     73951.35
  704.93        3345.25           6791       14748.00     64399.59
  704.96        3345.50           6795       12424.00     54236.30
  704.99        3345.75           6799        9871.00     43077.98
  705.02        3346.00           6803        7405.00     32306.28
  705.05        3346.25           6806        5515.00     24054.85
  705.08        3346.50           6810        2860.00     12469.76
  705.11        3346.75           6814         928.00      4044.03
  705.14        3347.00           6818         248.00      1079.37
  705.17        3347.25           6821         103.00       447.26
  705.19        3347.50           6825          82.00       355.71
  705.22        3347.75           6829          70.00       303.40
  705.25        3348.00           6833          69.00       299.04
  705.28        3348.25           6836          68.00       294.68
  705.31        3348.50           6840          61.00       264.17
  705.34        3348.75           6844          56.00       242.37
  705.37        3349.00           6848          57.00       246.73
  705.40        3349.25           6851          57.00       246.73
  705.43        3349.50           6855          48.00       207.50
  705.46        3349.75           6859          52.00       224.94
  705.49        3350.00           6863          53.00       229.30
  705.52        3350.25           6866          59.00       255.45
  705.55        3350.50           6870          52.00       224.94
  705.58        3350.75           6874          47.00       203.14
  705.61        3351.00           6878          53.00       229.30
HL scan finished at 11:47:06
end
************************************************************
  HL Scan of (1) Internal mercury lamp
************************************************************
Integration time is 0.2294 seconds per sample
dh240318Delft 51.9969-4.3863 3.340665pr1000
************************************************************
Dead Time -------------------------  2.7E-08 
Number of Cycles Used -------------  4 
Starting Wavelength (Angstroms) ---  3331 
Final Wavelength (Angstoms) -------  3351 
Wavelength Increment (Angstroms) --  .25 
Filter Wheel #1 Position ---------- (1) Ground quartz diffuser (ND=2.32)
Filter Wheel #2 Position ---------- 



************************************************************
HL scan start time = 13:29:19
Dark Count =  .3 


Time (GMT)  Wavelength (Ang)  Step Number  Raw Counts  Counts/Second

  810.08        3331.00           6579          47.00       203.58
  810.49        3331.25           6582          51.00       221.01
  810.52        3331.50           6586          48.00       207.93
  810.55        3331.75           6590          54.00       234.09
  810.58        3332.00           6594          48.00       207.93
  810.61        3332.25           6597          53.00       229.73
  810.64        3332.50           6601          56.00       242.81
  810.67        3332.75           6605          46.00       199.22
  810.70        3333.00           6608          49.00       212.29
  810.73        3333.25           6612          42.00       181.78
  810.76        3333.50           6616          52.00       225.37
  810.79        3333.75           6620          46.00       199.22
  810.82        3334.00           6623          50.00       216.65
  810.85        3334.25           6627          57.00       247.17
  810.88        3334.50           6631          52.00       225.37
  810.91        3334.75           6635          56.00       242.81
  810.94        3335.00           6638          56.00       242.81
  810.97        3335.25           6642          68.00       295.12
  810.99        3335.50           6646          63.00       273.32
  811.02        3335.75           6649          64.00       277.68
  811.05        3336.00           6653          73.00       316.92
  811.08        3336.25           6657         100.00       434.62
  811.11        3336.50           6661         654.00      2849.83
  811.14        3336.75           6664        2564.00     11179.05
  811.17        3337.00           6668        5042.00     21990.82
  811.20        3337.25           6672        7469.00     32586.20
  811.23        3337.50           6676       10088.00     44026.59
  811.26        3337.75           6679       12204.00     53274.92
  811.29        3338.00           6683       14675.00     64080.70
  811.32        3338.25           6687       17062.00     74525.13
  811.35        3338.50           6690       18964.00     82851.65
  811.38        3338.75           6694       21375.00     93411.84
  811.41        3339.00           6698       24138.00    105521.20
  811.44        3339.25           6702       26972.00    117950.00
  811.47        3339.50           6705       28988.00    126796.50
  811.50        3339.75           6709       31423.00    137487.20
  811.53        3340.00           6713       33942.00    148553.30
  811.56        3340.25           6717       36362.00    159190.60
  811.59        3340.50           6720       38393.00    168122.80
  811.62        3340.75           6724       40662.00    178106.90
  811.65        3341.00           6728       43010.00    188444.20
  811.68        3341.25           6732       45207.00    198121.90
  811.71        3341.50           6735       45512.00    199465.90
  811.74        3341.75           6739       45804.00    200752.60
  811.77        3342.00           6743       45158.00    197906.00
  811.80        3342.25           6747       43210.00    189325.00
  811.83        3342.50           6750       41314.00    180976.80
  811.86        3342.75           6754       38828.00    170036.50
  811.89        3343.00           6758       36040.00    157774.90
  811.92        3343.25           6761       34395.00    150544.00
  811.95        3343.50           6765       32298.00    141330.30
  811.98        3343.75           6769       29785.00    130295.00
  812.01        3344.00           6773       27104.00    118529.10
  812.04        3344.25           6776       24919.00    108945.60
  812.07        3344.50           6780       22160.00     96851.46
  812.09        3344.75           6784       19584.00     85566.69
  812.12        3345.00           6788       16993.00     74223.13
  812.15        3345.25           6791       15132.00     66079.87
  812.18        3345.50           6795       12674.00     55329.76
  812.21        3345.75           6799       10075.00     43969.79
  812.24        3346.00           6803        7655.00     33398.46
  812.27        3346.25           6806        5700.00     24862.81
  812.30        3346.50           6810        3075.00     13408.08
  812.33        3346.75           6814         839.00      3656.42
  812.36        3347.00           6818         165.00       717.97
  812.39        3347.25           6821          93.00       404.10
  812.42        3347.50           6825          76.00       329.99
  812.45        3347.75           6829          80.00       347.43
  812.48        3348.00           6833          72.00       312.56
  812.51        3348.25           6836          61.00       264.61
  812.54        3348.50           6840          52.00       225.37
  812.57        3348.75           6844          58.00       251.53
  812.60        3349.00           6848          54.00       234.09
  812.63        3349.25           6851          56.00       242.81
  812.66        3349.50           6855          57.00       247.17
  812.69        3349.75           6859          52.00       225.37
  812.72        3350.00           6863          59.00       255.89
  812.75        3350.25           6866          51.00       221.01
  812.78        3350.50           6870          55.00       238.45
  812.81        3350.75           6874          55.00       238.45
  812.84        3351.00           6878          55.00       238.45
HL scan finished at 13:34:20
end
************************************************************
  HL Scan of (1) Internal mercury lamp
************************************************************
Integration time is 0.2294 seconds per sample
dh240318Delft 51.9969-4.3863 3.340665pr1000
************************************************************
Dead Time -------------------------  2.7E-08 
Number of Cycles Used -------------  4 
Starting Wavelength (Angstroms) ---  3331 
Final Wavelength (Angstoms) -------  3351 
Wavelength Increment (Angstroms) --  .25 
Filter Wheel #1 Position ---------- (1) Ground quartz diffuser (ND=2.32)
Filter Wheel #2 Position ---------- 



************************************************************
HL scan start time = 15:16:30
Dark Count =  .4 


Time (GMT)  Wavelength (Ang)  Step Number  Raw Counts  Counts/Second

  917.27        3331.00           6579          53.00       229.30
  917.68        3331.25           6582          50.00       216.22
  917.71        3331.50           6586          52.00       224.94
  917.74        3331.75           6590          51.00       220.58
  917.77        3332.00           6594          49.00       211.86
  917.80        3332.25           6597          48.00       207.50
  917.83        3332.50           6601          51.00       220.58
  917.86        3332.75           6605          47.00       203.14
  917.89        3333.00           6608          47.00       203.14
  917.92        3333.25           6612          49.00       211.86
  917.95        3333.50           6616          46.00       198.78
  917.98        3333.75           6620          56.00       242.37
  918.01        3334.00           6623          46.00       198.78
  918.04        3334.25           6627          50.00       216.22
  918.07        3334.50           6631          51.00       220.58
  918.10        3334.75           6635          55.00       238.01
  918.13        3335.00           6638          57.00       246.73
  918.16        3335.25           6642          59.00       255.45
  918.18        3335.50           6646          63.00       272.89
  918.21        3335.75           6649          71.00       307.76
  918.24        3336.00           6653          79.00       342.64
  918.27        3336.25           6657         120.00       521.37
  918.30        3336.50           6661        1146.00      4994.57
  918.33        3336.75           6664        2912.00     12696.59
  918.36        3337.00           6668        5210.00     22723.61
  918.39        3337.25           6672        7604.00     33175.30
  918.42        3337.50           6676        9734.00     42479.39
  918.45        3337.75           6679       11646.00     50835.21
  918.48        3338.00           6683       14158.00     61818.88
  918.51        3338.25           6687       17238.00     75295.03
  918.54        3338.50           6690       19294.00     84296.27
  918.57        3338.75           6694       21884.00     95641.60
  918.60        3339.00           6698       24370.00    106537.90
  918.63        3339.25           6702       26803.00    117208.20
  918.66        3339.50           6705       28786.00    125909.40
  918.69        3339.75           6709       31482.00    137745.90
  918.72        3340.00           6713       33837.00    148091.40
  918.75        3340.25           6717       36344.00    159111.00
  918.78        3340.50           6720       38296.00    167695.70
  918.81        3340.75           6724       40814.00    178775.40
  918.84        3341.00           6728       43451.00    190385.90
  918.87        3341.25           6732       45105.00    197672.10
  918.90        3341.50           6735       45523.00    199513.90
  918.93        3341.75           6739       45682.00    200214.60
  918.96        3342.00           6743       45291.00    198491.60
  918.99        3342.25           6747       43529.00    190729.50
  919.02        3342.50           6750       42196.00    184859.40
  919.05        3342.75           6754       39534.00    173142.30
  919.08        3343.00           6758       36879.00    161463.50
  919.11        3343.25           6761       34631.00    151580.80
  919.14        3343.50           6765       31995.00    139999.00
  919.17        3343.75           6769       29630.00    129614.10
  919.20        3344.00           6773       27372.00    119704.50
  919.22        3344.25           6776       25225.00    110286.90
  919.25        3344.50           6780       22724.00     99322.68
  919.28        3344.75           6784       19956.00     87195.46
  919.31        3345.00           6788       17656.00     77124.69
  919.34        3345.25           6791       15619.00     68210.07
  919.37        3345.50           6795       12901.00     56321.85
  919.40        3345.75           6799       10190.00     44471.85
  919.43        3346.00           6803        7237.00     31572.68
  919.46        3346.25           6806        5223.00     22780.35
  919.49        3346.50           6810        2751.00     11994.29
  919.52        3346.75           6814         758.00      3302.82
  919.55        3347.00           6818         154.00       669.58
  919.58        3347.25           6821          94.00       408.03
  919.61        3347.50           6825          77.00       333.92
  919.64        3347.75           6829          75.00       325.20
  919.67        3348.00           6833          70.00       303.40
  919.70        3348.25           6836          66.00       285.97
  919.73        3348.50           6840          70.00       303.40
  919.76        3348.75           6844          64.00       277.25
  919.79        3349.00           6848          55.00       238.01
  919.82        3349.25           6851          54.00       233.65
  919.85        3349.50           6855          49.00       211.86
  919.88        3349.75           6859          61.00       264.17
  919.91        3350.00           6863          57.00       246.73
  919.94        3350.25           6866          47.00       203.14
  919.97        3350.50           6870          59.00       255.45
  920.00        3350.75           6874          55.00       238.01
  920.03        3351.00           6878          55.00       238.01
HL scan finished at 15:21:31
end
************************************************************
  HL Scan of (1) Internal mercury lamp
************************************************************
Integration time is 0.2294 seconds per sample
dh240318Delft 51.9969-4.3863 3.340665pr1000
************************************************************
Dead Time -------------------------  2.7E-08 
Number of Cycles Used -------------  4 
Starting Wavelength (Angstroms) ---  3331 
Final Wavelength (Angstoms) -------  3351 
Wavelength Increment (Angstroms) --  .25 
Filter Wheel #1 Position ---------- (1) Ground quartz diffuser (ND=2.32)
Filter Wheel #2 Position ---------- 



************************************************************
HL scan start time = 17:03:42
Dark Count =  .4 


Time (GMT)  Wavelength (Ang)  Step Number  Raw Counts  Counts/Second

 1024.46        3331.00           6579          51.00       220.58
 1024.87        3331.25           6582          53.00       229.30
 1024.90        3331.50           6586          50.00       216.22
 1024.93        3331.75           6590          49.00       211.86
 1024.96        3332.00           6594          51.00       220.58
 1024.99        3332.25           6597          53.00       229.30
 1025.02        3332.50           6601          49.00       211.86
 1025.05        3332.75           6605          47.00       203.14
 1025.07        3333.00           6608          55.00       238.01
 1025.10        3333.25           6612          48.00       207.50
 1025.13        3333.50           6616          48.00       207.50
 1025.16        3333.75           6620          46.00       198.78
 1025.19        3334.00           6623          56.00       242.37
 1025.22        3334.25           6627          52.00       224.94
 1025.25        3334.50           6631          52.00       224.94
 1025.28        3334.75           6635          54.00       233.65
 1025.31        3335.00           6638          50.00       216.22
 1025.34        3335.25           6642          58.00       251.09
 1025.37        3335.50           6646          74.00       320.84
 1025.40        3335.75           6649          79.00       342.64
 1025.43        3336.00           6653          75.00       325.20
 1025.46        3336.25           6657         133.00       578.04
 1025.49        3336.50           6661        1021.00      4449.53
 1025.52        3336.75           6664        2401.00     10467.65
 1025.55        3337.00           6668        4563.00     19899.97
 1025.58        3337.25           6672        7123.00     31074.89
 1025.61        3337.50           6676       10101.00     44082.96
 1025.64        3337.75           6679       12105.00     52841.69
 1025.67        3338.00           6683       14648.00     63962.15
 1025.70        3338.25           6687       17049.00     74467.79
 1025.73        3338.50           6690       19036.00     83166.49
 1025.76        3338.75           6694       22083.00     96513.59
 1025.79        3339.00           6698       24372.00    106546.70
 1025.82        3339.25           6702       26927.00    117752.20
 1025.85        3339.50           6705       28641.00    125273.10
 1025.88        3339.75           6709       31533.00    137969.90
 1025.91        3340.00           6713       34205.00    149708.50
 1025.94        3340.25           6717       36961.00    161824.10
 1025.97        3340.50           6720       38807.00    169943.60
 1025.99        3340.75           6724       41202.00    180483.30
 1026.02        3341.00           6728       43836.00    192081.70
 1026.05        3341.25           6732       45424.00    199077.70
 1026.09        3341.50           6735       45919.00    201259.00
 1026.11        3341.75           6739       46061.00    201884.70
 1026.14        3342.00           6743       45571.00    199725.40
 1026.18        3342.25           6747       43682.00    191403.40
 1026.20        3342.50           6750       42028.00    184119.70
 1026.23        3342.75           6754       39298.00    172103.90
 1026.27        3343.00           6758       36923.00    161657.00
 1026.29        3343.25           6761       35130.00    153774.00
 1026.33        3343.50           6765       32463.00    142054.70
 1026.35        3343.75           6769       29987.00    131181.30
 1026.38        3344.00           6773       27536.00    120424.10
 1026.41        3344.25           6776       25813.00    112865.70
 1026.44        3344.50           6780       23178.00    101312.50
 1026.47        3344.75           6784       20310.00     88745.96
 1026.50        3345.00           6788       17541.00     76621.29
 1026.53        3345.25           6791       15060.00     65764.44
 1026.56        3345.50           6795       12311.00     53742.27
 1026.59        3345.75           6799        9980.00     43554.24
 1026.62        3346.00           6803        7233.00     31555.21
 1026.65        3346.25           6806        5059.00     22064.58
 1026.68        3346.50           6810        2682.00     11693.32
 1026.71        3346.75           6814         815.00      3551.34
 1026.74        3347.00           6818         188.00       817.80
 1026.77        3347.25           6821         101.00       438.54
 1026.80        3347.50           6825          69.00       299.04
 1026.83        3347.75           6829          75.00       325.20
 1026.86        3348.00           6833          61.00       264.17
 1026.89        3348.25           6836          67.00       290.32
 1026.92        3348.50           6840          66.00       285.97
 1026.95        3348.75           6844          61.00       264.17
 1026.98        3349.00           6848          51.00       220.58
 1027.01        3349.25           6851          56.00       242.37
 1027.04        3349.50           6855          54.00       233.65
 1027.07        3349.75           6859          57.00       246.73
 1027.09        3350.00           6863          59.00       255.45
 1027.13        3350.25           6866          56.00       242.37
 1027.15        3350.50           6870          51.00       220.58
 1027.18        3350.75           6874          53.00       229.30
 1027.21        3351.00           6878          50.00       216.22
HL scan finished at 17:08:42
end
