************************************************************
  HL Scan of (1) Internal mercury lamp
************************************************************
Integration time is 0.2294 seconds per sample
dh280318Delft 51.9969-4.3863 3.340665pr1000
************************************************************
Dead Time -------------------------  2.7E-08 
Number of Cycles Used -------------  4 
Starting Wavelength (Angstroms) ---  3331 
Final Wavelength (Angstoms) -------  3351 
Wavelength Increment (Angstroms) --  .25 
Filter Wheel #1 Position ---------- (1) Ground quartz diffuser (ND=2.32)
Filter Wheel #2 Position ---------- 



************************************************************
HL scan start time = 06:11:14
Dark Count =  .3 


Time (GMT)  Wavelength (Ang)  Step Number  Raw Counts  Counts/Second

  372.00        3331.00           6579          55.00       238.45
  372.41        3331.25           6582          52.00       225.37
  372.44        3331.50           6586          55.00       238.45
  372.47        3331.75           6590          42.00       181.78
  372.50        3332.00           6594          54.00       234.09
  372.53        3332.25           6597          54.00       234.09
  372.56        3332.50           6601          42.00       181.78
  372.59        3332.75           6605          54.00       234.09
  372.62        3333.00           6608          48.00       207.93
  372.65        3333.25           6612          50.00       216.65
  372.67        3333.50           6616          53.00       229.73
  372.70        3333.75           6620          55.00       238.45
  372.73        3334.00           6623          55.00       238.45
  372.76        3334.25           6627          53.00       229.73
  372.79        3334.50           6631          56.00       242.81
  372.82        3334.75           6635          58.00       251.53
  372.85        3335.00           6638          53.00       229.73
  372.88        3335.25           6642          60.00       260.25
  372.91        3335.50           6646          60.00       260.25
  372.94        3335.75           6649          75.00       325.63
  372.97        3336.00           6653          75.00       325.63
  373.00        3336.25           6657         106.00       460.77
  373.03        3336.50           6661         860.00      3747.98
  373.06        3336.75           6664        2437.00     10625.11
  373.09        3337.00           6668        4833.00     21078.69
  373.12        3337.25           6672        7443.00     32472.66
  373.15        3337.50           6676       10030.00     43773.15
  373.18        3337.75           6679       11813.00     51565.64
  373.21        3338.00           6683       13978.00     61032.06
  373.24        3338.25           6687       16604.00     72520.68
  373.27        3338.50           6690       18689.00     81647.53
  373.30        3338.75           6694       21516.00     94029.62
  373.33        3339.00           6698       24212.00    105845.70
  373.36        3339.25           6702       26643.00    116506.70
  373.39        3339.50           6705       28563.00    124931.20
  373.42        3339.75           6709       30876.00    135085.10
  373.44        3340.00           6713       33684.00    147419.50
  373.48        3340.25           6717       35932.00    157300.10
  373.50        3340.50           6720       37859.00    165773.90
  373.53        3340.75           6724       40051.00    175417.80
  373.56        3341.00           6728       42860.00    187783.60
  373.59        3341.25           6732       44682.00    195808.90
  373.62        3341.50           6735       45496.00    199395.40
  373.65        3341.75           6739       45168.00    197950.10
  373.68        3342.00           6743       44968.00    197068.90
  373.71        3342.25           6747       43072.00    188717.20
  373.74        3342.50           6750       41352.00    181144.00
  373.77        3342.75           6754       39139.00    171404.80
  373.80        3343.00           6758       36808.00    161151.70
  373.83        3343.25           6761       34789.00    152275.60
  373.86        3343.50           6765       32380.00    141690.50
  373.89        3343.75           6769       29512.00    129096.50
  373.92        3344.00           6773       26920.00    117721.90
  373.95        3344.25           6776       24927.00    108980.60
  373.98        3344.50           6780       22518.00     98420.30
  374.01        3344.75           6784       19987.00     87331.66
  374.04        3345.00           6788       17245.00     75326.10
  374.07        3345.25           6791       15273.00     66696.73
  374.10        3345.50           6795       13102.00     57201.19
  374.13        3345.75           6799       10526.00     45940.57
  374.16        3346.00           6803        7617.00     33232.51
  374.19        3346.25           6806        5590.00     24382.66
  374.22        3346.50           6810        2730.00     11903.13
  374.25        3346.75           6814         759.00      3307.62
  374.28        3347.00           6818         190.00       826.96
  374.31        3347.25           6821         107.00       465.13
  374.34        3347.50           6825          77.00       334.35
  374.37        3347.75           6829          79.00       343.07
  374.40        3348.00           6833          74.00       321.28
  374.42        3348.25           6836          58.00       251.53
  374.45        3348.50           6840          63.00       273.32
  374.48        3348.75           6844          57.00       247.17
  374.51        3349.00           6848          59.00       255.89
  374.54        3349.25           6851          52.00       225.37
  374.57        3349.50           6855          47.00       203.58
  374.60        3349.75           6859          60.00       260.25
  374.63        3350.00           6863          50.00       216.65
  374.66        3350.25           6866          47.00       203.58
  374.69        3350.50           6870          55.00       238.45
  374.72        3350.75           6874          51.00       221.01
  374.75        3351.00           6878          56.00       242.81
HL scan finished at 06:16:14
end
************************************************************
  HL Scan of (1) Internal mercury lamp
************************************************************
Integration time is 0.2294 seconds per sample
dh280318Delft 51.9969-4.3863 3.287017pr1000
************************************************************
Dead Time -------------------------  2.7E-08 
Number of Cycles Used -------------  4 
Starting Wavelength (Angstroms) ---  3331 
Final Wavelength (Angstoms) -------  3351 
Wavelength Increment (Angstroms) --  .25 
Filter Wheel #1 Position ---------- (1) Ground quartz diffuser (ND=2.32)
Filter Wheel #2 Position ---------- 



************************************************************
HL scan start time = 07:58:26
Dark Count =  .4 


Time (GMT)  Wavelength (Ang)  Step Number  Raw Counts  Counts/Second

  479.20        3331.00           6579          53.00       229.30
  479.61        3331.25           6582          49.00       211.86
  479.64        3331.50           6586          55.00       238.01
  479.67        3331.75           6590          51.00       220.58
  479.70        3332.00           6594          47.00       203.14
  479.73        3332.25           6597          47.00       203.14
  479.76        3332.50           6601          50.00       216.22
  479.79        3332.75           6605          47.00       203.14
  479.82        3333.00           6608          52.00       224.94
  479.85        3333.25           6612          55.00       238.01
  479.87        3333.50           6616          50.00       216.22
  479.90        3333.75           6620          54.00       233.65
  479.93        3334.00           6623          53.00       229.30
  479.96        3334.25           6627          51.00       220.58
  479.99        3334.50           6631          52.00       224.94
  480.02        3334.75           6635          58.00       251.09
  480.05        3335.00           6638          59.00       255.45
  480.08        3335.25           6642          59.00       255.45
  480.11        3335.50           6646          70.00       303.40
  480.14        3335.75           6649          69.00       299.04
  480.17        3336.00           6653          80.00       347.00
  480.20        3336.25           6657         118.00       512.65
  480.23        3336.50           6661         872.00      3799.87
  480.26        3336.75           6664        2394.00     10437.12
  480.29        3337.00           6668        4448.00     19398.13
  480.32        3337.25           6672        6797.00     29651.46
  480.35        3337.50           6676        9252.00     40373.54
  480.38        3337.75           6679       11438.00     49926.02
  480.41        3338.00           6683       14138.00     61731.40
  480.44        3338.25           6687       16618.00     72581.50
  480.47        3338.50           6690       18336.00     80101.56
  480.50        3338.75           6694       20921.00     91422.43
  480.53        3339.00           6698       23706.00    103626.90
  480.56        3339.25           6702       26151.00    114348.10
  480.59        3339.50           6705       27712.00    121196.30
  480.62        3339.75           6709       30277.00    132454.50
  480.65        3340.00           6713       32659.00    142915.70
  480.68        3340.25           6717       35298.00    154512.50
  480.71        3340.50           6720       37670.00    164942.20
  480.74        3340.75           6724       39950.00    174972.90
  480.77        3341.00           6728       42331.00    185453.80
  480.79        3341.25           6732       44253.00    193918.50
  480.82        3341.50           6735       44911.00    196817.30
  480.85        3341.75           6739       44974.00    197094.90
  480.88        3342.00           6743       44740.00    196064.00
  480.91        3342.25           6747       43219.00    189364.10
  480.94        3342.50           6750       41585.00    182169.40
  480.97        3342.75           6754       38874.00    170238.40
  481.00        3343.00           6758       36389.00    159308.90
  481.03        3343.25           6761       34329.00    150253.50
  481.06        3343.50           6765       31975.00    139911.10
  481.09        3343.75           6769       29570.00    129350.70
  481.12        3344.00           6773       27300.00    119388.60
  481.15        3344.25           6776       25094.00    109712.50
  481.18        3344.50           6780       22924.00    100199.20
  481.21        3344.75           6784       20190.00     88220.34
  481.24        3345.00           6788       17438.00     76170.45
  481.27        3345.25           6791       15377.00     67151.28
  481.30        3345.50           6795       12520.00     54656.01
  481.33        3345.75           6799        9824.00     42872.62
  481.36        3346.00           6803        7300.00     31847.78
  481.39        3346.25           6806        5411.00     23600.91
  481.42        3346.50           6810        2719.00     11854.71
  481.45        3346.75           6814         794.00      3459.78
  481.48        3347.00           6818         218.00       948.59
  481.51        3347.25           6821         110.00       477.77
  481.54        3347.50           6825          92.00       399.31
  481.57        3347.75           6829          77.00       333.92
  481.60        3348.00           6833          65.00       281.61
  481.63        3348.25           6836          65.00       281.61
  481.66        3348.50           6840          58.00       251.09
  481.69        3348.75           6844          59.00       255.45
  481.71        3349.00           6848          58.00       251.09
  481.74        3349.25           6851          54.00       233.65
  481.77        3349.50           6855          51.00       220.58
  481.80        3349.75           6859          53.00       229.30
  481.83        3350.00           6863          62.00       268.53
  481.86        3350.25           6866          55.00       238.01
  481.89        3350.50           6870          56.00       242.37
  481.92        3350.75           6874          52.00       224.94
  481.95        3351.00           6878          54.00       233.65
HL scan finished at 08:03:27
end
************************************************************
  HL Scan of (1) Internal mercury lamp
************************************************************
Integration time is 0.2294 seconds per sample
dh280318Delft 51.9969-4.3863 3.340665pr1000
************************************************************
Dead Time -------------------------  2.7E-08 
Number of Cycles Used -------------  4 
Starting Wavelength (Angstroms) ---  3331 
Final Wavelength (Angstoms) -------  3351 
Wavelength Increment (Angstroms) --  .25 
Filter Wheel #1 Position ---------- (1) Ground quartz diffuser (ND=2.32)
Filter Wheel #2 Position ---------- 



************************************************************
HL scan start time = 09:45:37
Dark Count =  .2 


Time (GMT)  Wavelength (Ang)  Step Number  Raw Counts  Counts/Second

  586.37        3331.00           6579          57.00       247.60
  586.79        3331.25           6582          48.00       208.37
  586.81        3331.50           6586          48.00       208.37
  586.84        3331.75           6590          50.00       217.09
  586.87        3332.00           6594          54.00       234.53
  586.90        3332.25           6597          50.00       217.09
  586.93        3332.50           6601          50.00       217.09
  586.96        3332.75           6605          45.00       195.29
  586.99        3333.00           6608          48.00       208.37
  587.02        3333.25           6612          50.00       217.09
  587.05        3333.50           6616          54.00       234.53
  587.08        3333.75           6620          49.00       212.73
  587.11        3334.00           6623          54.00       234.53
  587.14        3334.25           6627          48.00       208.37
  587.17        3334.50           6631          54.00       234.53
  587.20        3334.75           6635          53.00       230.17
  587.23        3335.00           6638          58.00       251.96
  587.26        3335.25           6642          63.00       273.76
  587.29        3335.50           6646          69.00       299.92
  587.32        3335.75           6649          72.00       312.99
  587.35        3336.00           6653          81.00       352.23
  587.38        3336.25           6657         113.00       491.72
  587.41        3336.50           6661         576.00      2510.20
  587.44        3336.75           6664        2233.00      9735.78
  587.47        3337.00           6668        4786.00     20874.01
  587.50        3337.25           6672        7256.00     31656.52
  587.52        3337.50           6676        9720.00     42419.09
  587.55        3337.75           6679       11535.00     50350.89
  587.59        3338.00           6683       14007.00     61159.33
  587.62        3338.25           6687       16872.00     73694.01
  587.64        3338.50           6690       18757.00     81945.72
  587.67        3338.75           6694       21033.00     91913.96
  587.70        3339.00           6698       23673.00    103483.20
  587.73        3339.25           6702       26138.00    114292.00
  587.76        3339.50           6705       28397.00    124203.10
  587.79        3339.75           6709       31279.00    136855.30
  587.82        3340.00           6713       33572.00    146927.90
  587.85        3340.25           6717       36143.00    158228.20
  587.88        3340.50           6720       38046.00    166596.90
  587.91        3340.75           6724       40392.00    176919.00
  587.94        3341.00           6728       42682.00    187000.20
  587.97        3341.25           6732       44389.00    194518.50
  588.00        3341.50           6735       45044.00    197404.20
  588.03        3341.75           6739       45324.00    198637.90
  588.06        3342.00           6743       44793.00    196298.30
  588.09        3342.25           6747       43151.00    189065.60
  588.12        3342.50           6750       41439.00    181527.50
  588.15        3342.75           6754       39072.00    171110.40
  588.18        3343.00           6758       36556.00    160044.10
  588.21        3343.25           6761       34642.00    151630.00
  588.24        3343.50           6765       32091.00    140421.60
  588.27        3343.75           6769       29837.00    130523.70
  588.30        3344.00           6773       27571.00    120578.50
  588.33        3344.25           6776       25472.00    111371.00
  588.36        3344.50           6780       22815.00     99722.38
  588.39        3344.75           6784       19605.00     85659.09
  588.42        3345.00           6788       16927.00     73934.71
  588.45        3345.25           6791       15149.00     66154.68
  588.48        3345.50           6795       12529.00     54696.23
  588.51        3345.75           6799        9966.00     43493.94
  588.54        3346.00           6803        7489.00     32673.98
  588.57        3346.25           6806        5752.00     25090.23
  588.60        3346.50           6810        3208.00     13988.72
  588.63        3346.75           6814        1100.00      4794.87
  588.66        3347.00           6818         199.00       866.63
  588.69        3347.25           6821          95.00       413.26
  588.72        3347.50           6825          89.00       387.10
  588.75        3347.75           6829          69.00       299.92
  588.78        3348.00           6833          70.00       304.27
  588.81        3348.25           6836          64.00       278.12
  588.84        3348.50           6840          59.00       256.32
  588.87        3348.75           6844          53.00       230.17
  588.90        3349.00           6848          55.00       238.89
  588.93        3349.25           6851          58.00       251.96
  588.96        3349.50           6855          48.00       208.37
  588.99        3349.75           6859          47.00       204.01
  589.02        3350.00           6863          59.00       256.32
  589.05        3350.25           6866          51.00       221.45
  589.08        3350.50           6870          54.00       234.53
  589.11        3350.75           6874          50.00       217.09
  589.13        3351.00           6878          57.00       247.60
HL scan finished at 09:50:38
end
************************************************************
  HL Scan of (1) Internal mercury lamp
************************************************************
Integration time is 0.2294 seconds per sample
dh280318Delft 51.9969-4.3863 3.340665pr1000
************************************************************
Dead Time -------------------------  2.7E-08 
Number of Cycles Used -------------  4 
Starting Wavelength (Angstroms) ---  3331 
Final Wavelength (Angstoms) -------  3351 
Wavelength Increment (Angstroms) --  .25 
Filter Wheel #1 Position ---------- (1) Ground quartz diffuser (ND=2.32)
Filter Wheel #2 Position ---------- 



************************************************************
HL scan start time = 11:32:48
Dark Count =  .4 


Time (GMT)  Wavelength (Ang)  Step Number  Raw Counts  Counts/Second

  693.56        3331.00           6579          43.00       185.70
  693.97        3331.25           6582          47.00       203.14
  694.00        3331.50           6586          50.00       216.22
  694.03        3331.75           6590          53.00       229.30
  694.06        3332.00           6594          47.00       203.14
  694.09        3332.25           6597          43.00       185.70
  694.12        3332.50           6601          44.00       190.06
  694.15        3332.75           6605          50.00       216.22
  694.18        3333.00           6608          50.00       216.22
  694.21        3333.25           6612          55.00       238.01
  694.24        3333.50           6616          51.00       220.58
  694.27        3333.75           6620          49.00       211.86
  694.30        3334.00           6623          55.00       238.01
  694.33        3334.25           6627          51.00       220.58
  694.36        3334.50           6631          54.00       233.65
  694.39        3334.75           6635          62.00       268.53
  694.42        3335.00           6638          58.00       251.09
  694.45        3335.25           6642          62.00       268.53
  694.48        3335.50           6646          71.00       307.76
  694.51        3335.75           6649          78.00       338.28
  694.53        3336.00           6653          93.00       403.67
  694.56        3336.25           6657         114.00       495.21
  694.59        3336.50           6661         826.00      3599.30
  694.62        3336.75           6664        2348.00     10236.48
  694.65        3337.00           6668        4502.00     19633.77
  694.68        3337.25           6672        7131.00     31109.82
  694.71        3337.50           6676        9638.00     42059.95
  694.74        3337.75           6679       11459.00     50017.81
  694.77        3338.00           6683       13971.00     61001.00
  694.80        3338.25           6687       16615.00     72568.38
  694.83        3338.50           6690       18727.00     81813.48
  694.86        3338.75           6694       21661.00     94664.49
  694.89        3339.00           6698       24366.00    106520.40
  694.92        3339.25           6702       26628.00    116440.50
  694.95        3339.50           6705       28757.00    125782.20
  694.98        3339.75           6709       31452.00    137614.10
  695.01        3340.00           6713       33744.00    147682.80
  695.04        3340.25           6717       36186.00    158416.40
  695.07        3340.50           6720       37853.00    165747.10
  695.10        3340.75           6724       40074.00    175518.60
  695.13        3341.00           6728       42781.00    187435.30
  695.16        3341.25           6732       44658.00    195702.70
  695.19        3341.50           6735       45228.00    198214.00
  695.22        3341.75           6739       45037.00    197372.50
  695.25        3342.00           6743       44881.00    196685.10
  695.28        3342.25           6747       43447.00    190368.30
  695.31        3342.50           6750       41346.00    181117.20
  695.34        3342.75           6754       39037.00    170955.60
  695.37        3343.00           6758       36658.00    160491.70
  695.39        3343.25           6761       34680.00    151796.10
  695.42        3343.50           6765       32226.00    141013.60
  695.45        3343.75           6769       29733.00    130066.30
  695.48        3344.00           6773       27038.00    118239.10
  695.51        3344.25           6776       24935.00    109015.30
  695.54        3344.50           6780       22284.00     97394.40
  695.57        3344.75           6784       19542.00     85382.31
  695.60        3345.00           6788       17006.00     74279.60
  695.63        3345.25           6791       15067.00     65795.06
  695.66        3345.50           6795       12726.00     55556.69
  695.69        3345.75           6799       10303.00     44965.64
  695.72        3346.00           6803        7633.00     33301.95
  695.75        3346.25           6806        5592.00     24390.95
  695.78        3346.50           6810        2837.00     12369.43
  695.81        3346.75           6814         841.00      3664.70
  695.84        3347.00           6818         207.00       900.63
  695.87        3347.25           6821          95.00       412.38
  695.90        3347.50           6825          78.00       338.28
  695.93        3347.75           6829          71.00       307.76
  695.96        3348.00           6833          68.00       294.68
  695.99        3348.25           6836          65.00       281.61
  696.02        3348.50           6840          60.00       259.81
  696.05        3348.75           6844          55.00       238.01
  696.08        3349.00           6848          51.00       220.58
  696.11        3349.25           6851          53.00       229.30
  696.14        3349.50           6855          56.00       242.37
  696.17        3349.75           6859          56.00       242.37
  696.20        3350.00           6863          54.00       233.65
  696.23        3350.25           6866          49.00       211.86
  696.26        3350.50           6870          41.00       176.98
  696.28        3350.75           6874          54.00       233.65
  696.31        3351.00           6878          51.00       220.58
HL scan finished at 11:37:48
end
************************************************************
  HL Scan of (1) Internal mercury lamp
************************************************************
Integration time is 0.2294 seconds per sample
dh280318Delft 51.9969-4.3863 3.340665pr1000
************************************************************
Dead Time -------------------------  2.7E-08 
Number of Cycles Used -------------  4 
Starting Wavelength (Angstroms) ---  3331 
Final Wavelength (Angstoms) -------  3351 
Wavelength Increment (Angstroms) --  .25 
Filter Wheel #1 Position ---------- (1) Ground quartz diffuser (ND=2.32)
Filter Wheel #2 Position ---------- 



************************************************************
HL scan start time = 13:20:00
Dark Count =  .3 


Time (GMT)  Wavelength (Ang)  Step Number  Raw Counts  Counts/Second

  800.76        3331.00           6579          52.00       225.37
  801.17        3331.25           6582          48.00       207.93
  801.20        3331.50           6586          54.00       234.09
  801.23        3331.75           6590          51.00       221.01
  801.26        3332.00           6594          45.00       194.86
  801.29        3332.25           6597          58.00       251.53
  801.32        3332.50           6601          54.00       234.09
  801.35        3332.75           6605          53.00       229.73
  801.38        3333.00           6608          49.00       212.29
  801.41        3333.25           6612          52.00       225.37
  801.44        3333.50           6616          52.00       225.37
  801.47        3333.75           6620          55.00       238.45
  801.50        3334.00           6623          52.00       225.37
  801.52        3334.25           6627          56.00       242.81
  801.56        3334.50           6631          58.00       251.53
  801.59        3334.75           6635          57.00       247.17
  801.62        3335.00           6638          57.00       247.17
  801.65        3335.25           6642          65.00       282.04
  801.68        3335.50           6646          63.00       273.32
  801.70        3335.75           6649          75.00       325.63
  801.73        3336.00           6653          84.00       364.87
  801.76        3336.25           6657          97.00       421.54
  801.79        3336.50           6661         596.00      2596.96
  801.82        3336.75           6664        2222.00      9687.36
  801.85        3337.00           6668        4476.00     19520.75
  801.88        3337.25           6672        6794.00     29638.79
  801.91        3337.50           6676        9342.00     40767.17
  801.94        3337.75           6679       11375.00     49651.09
  801.97        3338.00           6683       14251.00     62226.09
  802.00        3338.25           6687       17139.00     74862.15
  802.03        3338.50           6690       19068.00     83307.05
  802.06        3338.75           6694       21765.00     95120.62
  802.09        3339.00           6698       24236.00    105950.90
  802.12        3339.25           6702       26661.00    116585.70
  802.15        3339.50           6705       28526.00    124768.80
  802.18        3339.75           6709       30977.00    135528.60
  802.21        3340.00           6713       33333.00    145877.30
  802.24        3340.25           6717       35953.00    157392.40
  802.27        3340.50           6720       38260.00    167537.80
  802.30        3340.75           6724       40552.00    177622.70
  802.33        3341.00           6728       43056.00    188646.70
  802.36        3341.25           6732       44521.00    195099.60
  802.39        3341.50           6735       45197.00    198077.90
  802.42        3341.75           6739       45167.00    197945.70
  802.45        3342.00           6743       45093.00    197619.60
  802.48        3342.25           6747       43548.00    190813.60
  802.51        3342.50           6750       41438.00    181522.60
  802.54        3342.75           6754       38936.00    170511.60
  802.57        3343.00           6758       36271.00    158790.50
  802.60        3343.25           6761       34605.00    151466.90
  802.63        3343.50           6765       31771.00    139015.60
  802.65        3343.75           6769       29435.00    128758.50
  802.68        3344.00           6773       26735.00    116910.30
  802.71        3344.25           6776       24656.00    107792.40
  802.74        3344.50           6780       22255.00     97267.75
  802.78        3344.75           6784       19806.00     86538.93
  802.80        3345.00           6788       17282.00     75488.06
  802.84        3345.25           6791       15344.00     67007.35
  802.86        3345.50           6795       12639.00     55176.74
  802.89        3345.75           6799        9925.00     43314.36
  802.92        3346.00           6803        7326.00     31961.75
  802.95        3346.25           6806        5536.00     24146.95
  802.98        3346.50           6810        3150.00     13735.26
  803.01        3346.75           6814         982.00      4279.92
  803.04        3347.00           6818         234.00      1018.77
  803.07        3347.25           6821         102.00       443.34
  803.10        3347.50           6825          78.00       338.71
  803.13        3347.75           6829          76.00       329.99
  803.16        3348.00           6833          74.00       321.28
  803.19        3348.25           6836          69.00       299.48
  803.22        3348.50           6840          53.00       229.73
  803.25        3348.75           6844          59.00       255.89
  803.28        3349.00           6848          64.00       277.68
  803.31        3349.25           6851          52.00       225.37
  803.34        3349.50           6855          54.00       234.09
  803.37        3349.75           6859          59.00       255.89
  803.40        3350.00           6863          52.00       225.37
  803.43        3350.25           6866          58.00       251.53
  803.46        3350.50           6870          50.00       216.65
  803.49        3350.75           6874          51.00       221.01
  803.51        3351.00           6878          51.00       221.01
HL scan finished at 13:25:00
end
************************************************************
  HL Scan of (1) Internal mercury lamp
************************************************************
Integration time is 0.2294 seconds per sample
dh280318Delft 51.9969-4.3863 3.340665pr1000
************************************************************
Dead Time -------------------------  2.7E-08 
Number of Cycles Used -------------  4 
Starting Wavelength (Angstroms) ---  3331 
Final Wavelength (Angstoms) -------  3351 
Wavelength Increment (Angstroms) --  .25 
Filter Wheel #1 Position ---------- (1) Ground quartz diffuser (ND=2.32)
Filter Wheel #2 Position ---------- 



************************************************************
HL scan start time = 15:07:11
Dark Count =  .4 


Time (GMT)  Wavelength (Ang)  Step Number  Raw Counts  Counts/Second

  907.95        3331.00           6579          49.00       211.86
  908.36        3331.25           6582          54.00       233.65
  908.39        3331.50           6586          52.00       224.94
  908.42        3331.75           6590          55.00       238.01
  908.45        3332.00           6594          52.00       224.94
  908.48        3332.25           6597          51.00       220.58
  908.51        3332.50           6601          50.00       216.22
  908.54        3332.75           6605          53.00       229.30
  908.57        3333.00           6608          50.00       216.22
  908.60        3333.25           6612          49.00       211.86
  908.63        3333.50           6616          52.00       224.94
  908.66        3333.75           6620          50.00       216.22
  908.69        3334.00           6623          51.00       220.58
  908.72        3334.25           6627          48.00       207.50
  908.75        3334.50           6631          55.00       238.01
  908.78        3334.75           6635          50.00       216.22
  908.81        3335.00           6638          60.00       259.81
  908.84        3335.25           6642          55.00       238.01
  908.87        3335.50           6646          62.00       268.53
  908.90        3335.75           6649          77.00       333.92
  908.93        3336.00           6653          89.00       386.23
  908.96        3336.25           6657         112.00       486.49
  908.98        3336.50           6661         827.00      3603.66
  909.01        3336.75           6664        2511.00     10947.44
  909.05        3337.00           6668        5058.00     22060.22
  909.08        3337.25           6672        7941.00     34647.04
  909.10        3337.50           6676       10469.00     45691.03
  909.14        3337.75           6679       12396.00     54113.88
  909.16        3338.00           6683       15065.00     65786.31
  909.19        3338.25           6687       17735.00     77470.51
  909.22        3338.50           6690       19638.00     85802.74
  909.25        3338.75           6694       21986.00     96088.56
  909.28        3339.00           6698       24586.00    107485.00
  909.31        3339.25           6702       26973.00    117954.00
  909.34        3339.50           6705       29066.00    127138.40
  909.37        3339.75           6709       32007.00    140051.70
  909.40        3340.00           6713       34441.00    150745.70
  909.43        3340.25           6717       36956.00    161802.10
  909.46        3340.50           6720       38574.00    168918.60
  909.49        3340.75           6724       40820.00    178801.80
  909.52        3341.00           6728       43492.00    190566.50
  909.55        3341.25           6732       44863.00    196605.90
  909.58        3341.50           6735       45223.00    198192.00
  909.61        3341.75           6739       45249.00    198306.60
  909.64        3342.00           6743       44935.00    196923.10
  909.67        3342.25           6747       42429.00    185885.30
  909.70        3342.50           6750       40562.00    177666.30
  909.73        3342.75           6754       38299.00    167708.90
  909.76        3343.00           6758       35667.00    156134.60
  909.79        3343.25           6761       33503.00    146623.80
  909.82        3343.50           6765       31039.00    135800.40
  909.85        3343.75           6769       28786.00    125909.40
  909.88        3344.00           6773       26567.00    116172.90
  909.91        3344.25           6776       24603.00    107559.50
  909.94        3344.50           6780       21831.00     95409.37
  909.97        3344.75           6784       19027.00     83127.09
  910.00        3345.00           6788       16287.00     71133.01
  910.03        3345.25           6791       14502.00     63323.52
  910.06        3345.50           6795       12173.00     53138.96
  910.09        3345.75           6799        9640.00     42068.68
  910.12        3346.00           6803        6938.00     30267.10
  910.15        3346.25           6806        5070.00     22112.59
  910.18        3346.50           6810        2867.00     12500.30
  910.21        3346.75           6814         819.00      3568.78
  910.24        3347.00           6818         163.00       708.82
  910.27        3347.25           6821          90.00       390.59
  910.29        3347.50           6825          88.00       381.87
  910.33        3347.75           6829          71.00       307.76
  910.35        3348.00           6833          65.00       281.61
  910.38        3348.25           6836          61.00       264.17
  910.41        3348.50           6840          56.00       242.37
  910.44        3348.75           6844          66.00       285.97
  910.47        3349.00           6848          57.00       246.73
  910.50        3349.25           6851          57.00       246.73
  910.53        3349.50           6855          50.00       216.22
  910.56        3349.75           6859          55.00       238.01
  910.59        3350.00           6863          54.00       233.65
  910.62        3350.25           6866          50.00       216.22
  910.65        3350.50           6870          53.00       229.30
  910.68        3350.75           6874          51.00       220.58
  910.71        3351.00           6878          53.00       229.30
HL scan finished at 15:12:12
end
************************************************************
  HL Scan of (1) Internal mercury lamp
************************************************************
Integration time is 0.2294 seconds per sample
dh280318Delft 51.9969-4.3863 3.340665pr1000
************************************************************
Dead Time -------------------------  2.7E-08 
Number of Cycles Used -------------  4 
Starting Wavelength (Angstroms) ---  3331 
Final Wavelength (Angstoms) -------  3351 
Wavelength Increment (Angstroms) --  .25 
Filter Wheel #1 Position ---------- (1) Ground quartz diffuser (ND=2.32)
Filter Wheel #2 Position ---------- 



************************************************************
HL scan start time = 16:54:23
Dark Count =  .2 


Time (GMT)  Wavelength (Ang)  Step Number  Raw Counts  Counts/Second

 1015.15        3331.00           6579          51.00       221.45
 1015.56        3331.25           6582          51.00       221.45
 1015.59        3331.50           6586          55.00       238.89
 1015.62        3331.75           6590          52.00       225.81
 1015.65        3332.00           6594          52.00       225.81
 1015.68        3332.25           6597          51.00       221.45
 1015.71        3332.50           6601          56.00       243.24
 1015.74        3332.75           6605          52.00       225.81
 1015.77        3333.00           6608          52.00       225.81
 1015.80        3333.25           6612          43.00       186.57
 1015.83        3333.50           6616          56.00       243.24
 1015.86        3333.75           6620          47.00       204.01
 1015.89        3334.00           6623          49.00       212.73
 1015.92        3334.25           6627          54.00       234.53
 1015.95        3334.50           6631          49.00       212.73
 1015.98        3334.75           6635          50.00       217.09
 1016.01        3335.00           6638          62.00       269.40
 1016.04        3335.25           6642          54.00       234.53
 1016.07        3335.50           6646          68.00       295.56
 1016.09        3335.75           6649          72.00       312.99
 1016.12        3336.00           6653          83.00       360.95
 1016.15        3336.25           6657         148.00       644.30
 1016.18        3336.50           6661        1178.00      5134.98
 1016.21        3336.75           6664        2887.00     12588.41
 1016.24        3337.00           6668        5481.00     23907.32
 1016.27        3337.25           6672        8020.00     34992.94
 1016.30        3337.50           6676       10391.00     45351.05
 1016.33        3337.75           6679       12150.00     53039.29
 1016.36        3338.00           6683       14372.00     62755.77
 1016.39        3338.25           6687       17007.00     74284.86
 1016.42        3338.50           6690       19133.00     83592.11
 1016.45        3338.75           6694       22081.00     96505.72
 1016.48        3339.00           6698       24693.00    107955.00
 1016.51        3339.25           6702       26840.00    117371.40
 1016.54        3339.50           6705       28645.00    125291.50
 1016.57        3339.75           6709       31219.00    136591.80
 1016.60        3340.00           6713       33950.00    148588.90
 1016.63        3340.25           6717       35988.00    157546.70
 1016.66        3340.50           6720       37935.00    166108.60
 1016.69        3340.75           6724       40004.00    175211.40
 1016.72        3341.00           6728       42658.00    186894.50
 1016.75        3341.25           6732       44843.00    196518.60
 1016.78        3341.50           6735       45052.00    197439.40
 1016.81        3341.75           6739       45106.00    197677.40
 1016.84        3342.00           6743       44616.00    195518.60
 1016.87        3342.25           6747       42270.00    185186.10
 1016.90        3342.50           6750       40643.00    178023.70
 1016.93        3342.75           6754       38322.00    167810.90
 1016.96        3343.00           6758       35742.00    156465.20
 1016.99        3343.25           6761       33976.00    148703.10
 1017.01        3343.50           6765       31687.00    138647.10
 1017.04        3343.75           6769       28690.00    125489.00
 1017.07        3344.00           6773       26025.00    113796.40
 1017.10        3344.25           6776       24456.00    106915.90
 1017.13        3344.50           6780       21777.00     95173.64
 1017.16        3344.75           6784       19278.00     84227.07
 1017.19        3345.00           6788       16540.00     72241.03
 1017.22        3345.25           6791       14840.00     64802.91
 1017.25        3345.50           6795       12454.00     54368.33
 1017.28        3345.75           6799        9873.00     43087.59
 1017.31        3346.00           6803        7029.00     30665.31
 1017.34        3346.25           6806        4894.00     21345.34
 1017.37        3346.50           6810        2221.00      9683.44
 1017.40        3346.75           6814         530.00      2309.65
 1017.43        3347.00           6818         158.00       687.89
 1017.46        3347.25           6821          92.00       400.18
 1017.49        3347.50           6825          75.00       326.07
 1017.52        3347.75           6829          67.00       291.20
 1017.55        3348.00           6833          72.00       312.99
 1017.58        3348.25           6836          62.00       269.40
 1017.61        3348.50           6840          57.00       247.60
 1017.64        3348.75           6844          56.00       243.24
 1017.67        3349.00           6848          57.00       247.60
 1017.70        3349.25           6851          58.00       251.96
 1017.73        3349.50           6855          49.00       212.73
 1017.76        3349.75           6859          53.00       230.17
 1017.79        3350.00           6863          51.00       221.45
 1017.82        3350.25           6866          51.00       221.45
 1017.85        3350.50           6870          49.00       212.73
 1017.88        3350.75           6874          58.00       251.96
 1017.90        3351.00           6878          49.00       212.73
HL scan finished at 16:59:24
end
