************************************************************
  HL Scan of (1) Internal mercury lamp
************************************************************
Integration time is 0.2294 seconds per sample
dh270318Delft 51.9969-4.3863 3.340665pr1000
************************************************************
Dead Time -------------------------  2.7E-08 
Number of Cycles Used -------------  4 
Starting Wavelength (Angstroms) ---  3331 
Final Wavelength (Angstoms) -------  3351 
Wavelength Increment (Angstroms) --  .25 
Filter Wheel #1 Position ---------- (1) Ground quartz diffuser (ND=2.32)
Filter Wheel #2 Position ---------- 



************************************************************
HL scan start time = 13:29:54
Dark Count =  .3 


Time (GMT)  Wavelength (Ang)  Step Number  Raw Counts  Counts/Second

  810.66        3331.00           6579          48.00       207.93
  811.07        3331.25           6582          60.00       260.25
  811.10        3331.50           6586          50.00       216.65
  811.13        3331.75           6590          51.00       221.01
  811.16        3332.00           6594          50.00       216.65
  811.19        3332.25           6597          50.00       216.65
  811.22        3332.50           6601          56.00       242.81
  811.25        3332.75           6605          50.00       216.65
  811.28        3333.00           6608          50.00       216.65
  811.31        3333.25           6612          50.00       216.65
  811.34        3333.50           6616          50.00       216.65
  811.37        3333.75           6620          51.00       221.01
  811.39        3334.00           6623          53.00       229.73
  811.42        3334.25           6627          43.00       186.14
  811.45        3334.50           6631          49.00       212.29
  811.48        3334.75           6635          57.00       247.17
  811.51        3335.00           6638          58.00       251.53
  811.54        3335.25           6642          64.00       277.68
  811.57        3335.50           6646          72.00       312.56
  811.60        3335.75           6649          79.00       343.07
  811.63        3336.00           6653          81.00       351.79
  811.66        3336.25           6657         124.00       539.24
  811.69        3336.50           6661         981.00      4275.56
  811.72        3336.75           6664        2624.00     11440.76
  811.75        3337.00           6668        4916.00     21440.92
  811.78        3337.25           6672        7162.00     31245.62
  811.81        3337.50           6676        9412.00     41072.99
  811.84        3337.75           6679       11204.00     48903.68
  811.87        3338.00           6683       13645.00     59575.70
  811.89        3338.25           6687       16603.00     72516.29
  811.93        3338.50           6690       18615.00     81323.53
  811.95        3338.75           6694       21116.00     92277.13
  811.98        3339.00           6698       23518.00    102803.30
  812.01        3339.25           6702       25917.00    113322.20
  812.04        3339.50           6705       27906.00    122048.00
  812.07        3339.75           6709       30574.00    133759.00
  812.10        3340.00           6713       32773.00    143417.00
  812.13        3340.25           6717       35144.00    153836.00
  812.16        3340.50           6720       37167.00    162730.40
  812.19        3340.75           6724       39332.00    172253.90
  812.22        3341.00           6728       41936.00    183715.00
  812.25        3341.25           6732       44028.00    192927.80
  812.28        3341.50           6735       44345.00    194324.20
  812.31        3341.75           6739       44526.00    195121.60
  812.34        3342.00           6743       44309.00    194165.60
  812.37        3342.25           6747       42570.00    186506.60
  812.40        3342.50           6750       41017.00    179669.40
  812.43        3342.75           6754       38995.00    170771.20
  812.46        3343.00           6758       36324.00    159023.50
  812.49        3343.25           6761       34027.00    148926.80
  812.52        3343.50           6765       31374.00    137272.00
  812.55        3343.75           6769       28992.00    126814.00
  812.58        3344.00           6773       26674.00    116642.70
  812.61        3344.25           6776       24760.00    108248.40
  812.64        3344.50           6780       22168.00     96886.51
  812.67        3344.75           6784       19759.00     86333.09
  812.70        3345.00           6788       17311.00     75614.99
  812.73        3345.25           6791       15327.00     66932.98
  812.75        3345.50           6795       12731.00     55578.99
  812.78        3345.75           6799        9991.00     43602.75
  812.81        3346.00           6803        7294.00     31822.02
  812.84        3346.25           6806        5188.00     22628.04
  812.87        3346.50           6810        2867.00     12500.73
  812.90        3346.75           6814         814.00      3547.42
  812.93        3347.00           6818         155.00       674.38
  812.96        3347.25           6821          95.00       412.82
  812.99        3347.50           6825          79.00       343.07
  813.02        3347.75           6829          73.00       316.92
  813.05        3348.00           6833          69.00       299.48
  813.08        3348.25           6836          56.00       242.81
  813.11        3348.50           6840          62.00       268.96
  813.14        3348.75           6844          60.00       260.25
  813.17        3349.00           6848          57.00       247.17
  813.20        3349.25           6851          57.00       247.17
  813.23        3349.50           6855          60.00       260.25
  813.26        3349.75           6859          47.00       203.58
  813.29        3350.00           6863          57.00       247.17
  813.31        3350.25           6866          55.00       238.45
  813.34        3350.50           6870          53.00       229.73
  813.37        3350.75           6874          51.00       221.01
  813.40        3351.00           6878          52.00       225.37
HL scan finished at 13:34:54
end
************************************************************
  HL Scan of (1) Internal mercury lamp
************************************************************
Integration time is 0.2294 seconds per sample
dh270318Delft 51.9969-4.3863 3.340665pr1000
************************************************************
Dead Time -------------------------  2.7E-08 
Number of Cycles Used -------------  4 
Starting Wavelength (Angstroms) ---  3331 
Final Wavelength (Angstoms) -------  3351 
Wavelength Increment (Angstroms) --  .25 
Filter Wheel #1 Position ---------- (1) Ground quartz diffuser (ND=2.32)
Filter Wheel #2 Position ---------- 



************************************************************
HL scan start time = 15:38:45
Dark Count =  .4 


Time (GMT)  Wavelength (Ang)  Step Number  Raw Counts  Counts/Second

  939.52        3331.00           6579          50.00       216.22
  939.93        3331.25           6582          50.00       216.22
  939.96        3331.50           6586          47.00       203.14
  939.99        3331.75           6590          54.00       233.65
  940.02        3332.00           6594          48.00       207.50
  940.05        3332.25           6597          50.00       216.22
  940.08        3332.50           6601          48.00       207.50
  940.11        3332.75           6605          53.00       229.30
  940.14        3333.00           6608          60.00       259.81
  940.17        3333.25           6612          51.00       220.58
  940.20        3333.50           6616          53.00       229.30
  940.23        3333.75           6620          48.00       207.50
  940.25        3334.00           6623          51.00       220.58
  940.29        3334.25           6627          52.00       224.94
  940.31        3334.50           6631          45.00       194.42
  940.34        3334.75           6635          53.00       229.30
  940.37        3335.00           6638          51.00       220.58
  940.40        3335.25           6642          65.00       281.61
  940.43        3335.50           6646          68.00       294.68
  940.46        3335.75           6649          71.00       307.76
  940.49        3336.00           6653          88.00       381.87
  940.52        3336.25           6657         114.00       495.21
  940.55        3336.50           6661         640.00      2788.35
  940.58        3336.75           6664        2183.00      9516.83
  940.61        3337.00           6668        4749.00     20711.67
  940.64        3337.25           6672        7457.00     32533.36
  940.67        3337.50           6676        9875.00     43095.45
  940.70        3337.75           6679       11747.00     51276.70
  940.73        3338.00           6683       14113.00     61622.07
  940.76        3338.25           6687       16857.00     73627.49
  940.79        3338.50           6690       18961.00     82838.08
  940.82        3338.75           6694       21340.00     93258.06
  940.85        3339.00           6698       23926.00    104591.40
  940.88        3339.25           6702       26521.00    115971.10
  940.91        3339.50           6705       28453.00    124448.00
  940.94        3339.75           6709       31397.00    137372.60
  940.97        3340.00           6713       34014.00    148869.20
  941.00        3340.25           6717       36352.00    159146.20
  941.03        3340.50           6720       38352.00    167942.00
  941.06        3340.75           6724       41071.00    179906.70
  941.09        3341.00           6728       43607.00    191073.00
  941.12        3341.25           6732       45006.00    197235.90
  941.15        3341.50           6735       45517.00    199487.50
  941.18        3341.75           6739       45739.00    200465.70
  941.20        3342.00           6743       45311.00    198579.80
  941.23        3342.25           6747       43492.00    190566.50
  941.26        3342.50           6750       41513.00    181852.40
  941.29        3342.75           6754       39325.00    172222.70
  941.32        3343.00           6758       36901.00    161560.20
  941.35        3343.25           6761       35031.00    153338.90
  941.38        3343.50           6765       32165.00    140745.70
  941.41        3343.75           6769       29919.00    130882.80
  941.44        3344.00           6773       27661.00    120972.50
  941.47        3344.25           6776       25564.00    111773.60
  941.50        3344.50           6780       22990.00    100488.50
  941.53        3344.75           6784       19972.00     87265.52
  941.56        3345.00           6788       17232.00     75268.77
  941.59        3345.25           6791       15100.00     65939.44
  941.62        3345.50           6795       12690.00     55399.28
  941.65        3345.75           6799        9778.00     42671.63
  941.68        3346.00           6803        7141.00     31153.48
  941.71        3346.25           6806        5398.00     23544.17
  941.74        3346.50           6810        3127.00     13634.49
  941.77        3346.75           6814         989.00      4310.00
  941.80        3347.00           6818         214.00       931.15
  941.83        3347.25           6821         108.00       469.06
  941.86        3347.50           6825          80.00       347.00
  941.89        3347.75           6829          83.00       360.07
  941.92        3348.00           6833          68.00       294.68
  941.95        3348.25           6836          62.00       268.53
  941.98        3348.50           6840          66.00       285.97
  942.00        3348.75           6844          58.00       251.09
  942.03        3349.00           6848          55.00       238.01
  942.06        3349.25           6851          52.00       224.94
  942.09        3349.50           6855          54.00       233.65
  942.12        3349.75           6859          55.00       238.01
  942.15        3350.00           6863          53.00       229.30
  942.18        3350.25           6866          57.00       246.73
  942.21        3350.50           6870          51.00       220.58
  942.24        3350.75           6874          54.00       233.65
  942.27        3351.00           6878          53.00       229.30
HL scan finished at 15:43:46
end
************************************************************
  HL Scan of (1) Internal mercury lamp
************************************************************
Integration time is 0.2294 seconds per sample
dh270318Delft 51.9969-4.3863 3.340665pr1000
************************************************************
Dead Time -------------------------  2.7E-08 
Number of Cycles Used -------------  4 
Starting Wavelength (Angstroms) ---  3331 
Final Wavelength (Angstoms) -------  3351 
Wavelength Increment (Angstroms) --  .25 
Filter Wheel #1 Position ---------- (1) Ground quartz diffuser (ND=2.32)
Filter Wheel #2 Position ---------- 



************************************************************
HL scan start time = 17:25:53
Dark Count =  .3 


Time (GMT)  Wavelength (Ang)  Step Number  Raw Counts  Counts/Second

 1046.64        3331.00           6579          49.00       212.29
 1047.05        3331.25           6582          44.00       190.50
 1047.08        3331.50           6586          52.00       225.37
 1047.11        3331.75           6590          46.00       199.22
 1047.14        3332.00           6594          47.00       203.58
 1047.17        3332.25           6597          53.00       229.73
 1047.20        3332.50           6601          48.00       207.93
 1047.23        3332.75           6605          53.00       229.73
 1047.26        3333.00           6608          48.00       207.93
 1047.29        3333.25           6612          49.00       212.29
 1047.32        3333.50           6616          49.00       212.29
 1047.35        3333.75           6620          54.00       234.09
 1047.38        3334.00           6623          50.00       216.65
 1047.41        3334.25           6627          57.00       247.17
 1047.44        3334.50           6631          54.00       234.09
 1047.46        3334.75           6635          52.00       225.37
 1047.49        3335.00           6638          65.00       282.04
 1047.52        3335.25           6642          63.00       273.32
 1047.55        3335.50           6646          71.00       308.20
 1047.58        3335.75           6649          71.00       308.20
 1047.61        3336.00           6653          77.00       334.35
 1047.64        3336.25           6657         116.00       504.37
 1047.67        3336.50           6661         917.00      3996.51
 1047.70        3336.75           6664        2513.00     10956.60
 1047.73        3337.00           6668        4720.00     20585.55
 1047.76        3337.25           6672        7010.00     30581.91
 1047.79        3337.50           6676        9472.00     41335.12
 1047.82        3337.75           6679       11762.00     51342.71
 1047.85        3338.00           6683       14056.00     61373.20
 1047.88        3338.25           6687       16479.00     71973.65
 1047.91        3338.50           6690       18522.00     80916.35
 1047.94        3338.75           6694       21071.00     92079.99
 1047.97        3339.00           6698       23820.00    104127.10
 1048.00        3339.25           6702       26673.00    116638.30
 1048.03        3339.50           6705       28390.00    124171.90
 1048.06        3339.75           6709       31019.00    135713.00
 1048.09        3340.00           6713       33504.00    146628.60
 1048.12        3340.25           6717       36039.00    157770.50
 1048.15        3340.50           6720       37660.00    164898.60
 1048.18        3340.75           6724       39694.00    173846.80
 1048.21        3341.00           6728       42089.00    184388.70
 1048.24        3341.25           6732       44452.00    194795.60
 1048.27        3341.50           6735       44805.00    196350.80
 1048.30        3341.75           6739       44839.00    196500.50
 1048.32        3342.00           6743       44345.00    194324.20
 1048.36        3342.25           6747       42637.00    186801.60
 1048.39        3342.50           6750       41023.00    179695.80
 1048.41        3342.75           6754       38756.00    169719.70
 1048.44        3343.00           6758       36212.00    158531.10
 1048.47        3343.25           6761       34353.00    150359.40
 1048.50        3343.50           6765       31906.00    139608.50
 1048.53        3343.75           6769       29438.00    128771.70
 1048.56        3344.00           6773       26773.00    117077.00
 1048.59        3344.25           6776       24693.00    107954.60
 1048.62        3344.50           6780       22042.00     96334.37
 1048.65        3344.75           6784       19355.00     84563.83
 1048.68        3345.00           6788       16686.00     72879.53
 1048.71        3345.25           6791       14719.00     64273.17
 1048.74        3345.50           6795       12480.00     54481.57
 1048.77        3345.75           6799       10026.00     43755.67
 1048.80        3346.00           6803        7407.00     32315.46
 1048.83        3346.25           6806        5635.00     24579.08
 1048.86        3346.50           6810        2992.00     13046.01
 1048.89        3346.75           6814         842.00      3669.50
 1048.92        3347.00           6818         193.00       840.04
 1048.95        3347.25           6821         101.00       438.98
 1048.98        3347.50           6825          77.00       334.35
 1049.01        3347.75           6829          79.00       343.07
 1049.04        3348.00           6833          68.00       295.12
 1049.07        3348.25           6836          66.00       286.40
 1049.10        3348.50           6840          64.00       277.68
 1049.13        3348.75           6844          56.00       242.81
 1049.16        3349.00           6848          62.00       268.96
 1049.19        3349.25           6851          63.00       273.32
 1049.22        3349.50           6855          53.00       229.73
 1049.24        3349.75           6859          57.00       247.17
 1049.27        3350.00           6863          51.00       221.01
 1049.30        3350.25           6866          54.00       234.09
 1049.33        3350.50           6870          42.00       181.78
 1049.36        3350.75           6874          49.00       212.29
 1049.39        3351.00           6878          51.00       221.01
HL scan finished at 17:30:53
end
