************************************************************
  HL Scan of (1) Internal mercury lamp
************************************************************
Integration time is 0.2294 seconds per sample
dh080417DelftKZ 51.997-4.386 2.589593pr1000
************************************************************
Dead Time -------------------------  3E-08 
Number of Cycles Used -------------  4 
Starting Wavelength (Angstroms) ---  3331 
Final Wavelength (Angstoms) -------  3351 
Wavelength Increment (Angstroms) --  .25 
Filter Wheel #1 Position ---------- (1) Ground quartz diffuser (ND=2.32)
Filter Wheel #2 Position ---------- 



************************************************************
HL scan start time = 03:35:57
Dark Count =  0 


Time (GMT)  Wavelength (Ang)  Step Number  Raw Counts  Counts/Second

  216.71        3331.00           6581          50.00       217.96
  217.12        3331.25           6584          42.00       183.09
  217.15        3331.50           6588          45.00       196.17
  217.18        3331.75           6592          51.00       222.32
  217.21        3332.00           6595          49.00       213.60
  217.23        3332.25           6599          46.00       200.52
  217.26        3332.50           6603          43.00       187.45
  217.29        3332.75           6607          44.00       191.81
  217.32        3333.00           6610          41.00       178.73
  217.34        3333.25           6614          49.00       213.60
  217.37        3333.50           6618          47.00       204.88
  217.40        3333.75           6622          45.00       196.17
  217.43        3334.00           6625          43.00       187.45
  217.46        3334.25           6629          47.00       204.88
  217.48        3334.50           6633          47.00       204.88
  217.51        3334.75           6636          47.00       204.88
  217.54        3335.00           6640          53.00       231.04
  217.57        3335.25           6644          51.00       222.32
  217.59        3335.50           6648          62.00       270.27
  217.62        3335.75           6651          62.00       270.27
  217.65        3336.00           6655          70.00       305.15
  217.68        3336.25           6659         211.00       919.82
  217.70        3336.50           6663        1263.00      5506.58
  217.73        3336.75           6666        2455.00     10705.27
  217.76        3337.00           6670        4032.00     17585.56
  217.79        3337.25           6674        5484.00     23923.01
  217.82        3337.50           6677        6552.00     28585.97
  217.85        3337.75           6681        8219.00     35866.82
  217.87        3338.00           6685        9720.00     42425.37
  217.90        3338.25           6689       11569.00     50508.04
  217.93        3338.50           6692       12954.00     56564.96
  217.96        3338.75           6696       14450.00     63109.78
  217.99        3339.00           6700       16100.00     70331.32
  218.01        3339.25           6704       17836.00     77932.65
  218.04        3339.50           6707       18978.00     82934.95
  218.07        3339.75           6711       20369.00     89029.98
  218.10        3340.00           6715       21927.00     95859.41
  218.13        3340.25           6719       23543.00    102946.10
  218.16        3340.50           6722       24951.00    109123.00
  218.19        3340.75           6726       26663.00    116636.70
  218.21        3341.00           6730       27945.00    122265.40
  218.24        3341.25           6733       28089.00    122897.80
  218.28        3341.50           6737       28242.00    123569.70
  218.31        3341.75           6741       28247.00    123591.70
  218.34        3342.00           6745       27485.00    120245.50
  218.36        3342.25           6748       26411.00    115530.50
  218.39        3342.50           6752       24971.00    109210.80
  218.42        3342.75           6756       23374.00    102204.80
  218.45        3343.00           6760       21659.00     94684.44
  218.48        3343.25           6763       20303.00     88740.72
  218.50        3343.50           6767       18567.00     81134.47
  218.53        3343.75           6771       16957.00     74083.38
  218.56        3344.00           6775       15447.00     67472.97
  218.59        3344.25           6778       14164.00     61858.37
  218.61        3344.50           6782       12828.00     56013.84
  218.64        3344.75           6786       11230.00     49025.85
  218.67        3345.00           6790        9777.00     42674.48
  218.70        3345.25           6793        8471.00     36967.74
  218.73        3345.50           6797        6828.00     29791.22
  218.75        3345.75           6801        5000.00     21810.26
  218.78        3346.00           6805        3357.00     14640.26
  218.81        3346.25           6808        2175.00      9483.95
  218.84        3346.50           6812         806.00      3513.88
  218.86        3346.75           6816         181.00       789.03
  218.89        3347.00           6819          78.00       340.02
  218.92        3347.25           6823          60.00       261.55
  218.95        3347.50           6827          54.00       235.40
  218.98        3347.75           6831          50.00       217.96
  219.00        3348.00           6834          57.00       248.48
  219.03        3348.25           6838          43.00       187.45
  219.06        3348.50           6842          52.00       226.68
  219.09        3348.75           6846          53.00       231.04
  219.11        3349.00           6849          45.00       196.17
  219.14        3349.25           6853          51.00       222.32
  219.17        3349.50           6857          43.00       187.45
  219.20        3349.75           6861          40.00       174.37
  219.23        3350.00           6864          42.00       183.09
  219.26        3350.25           6868          40.00       174.37
  219.29        3350.50           6872          48.00       209.24
  219.31        3350.75           6876          50.00       217.96
  219.34        3351.00           6879          54.00       235.40
HL scan finished at 03:40:49
end
