************************************************************
  HL Scan of (1) Internal mercury lamp
************************************************************
Integration time is 0.2294 seconds per sample
dh070418Delft 51.9969-4.3863 2.428648pr1000
************************************************************
Dead Time -------------------------  2.7E-08 
Number of Cycles Used -------------  4 
Starting Wavelength (Angstroms) ---  3331 
Final Wavelength (Angstoms) -------  3351 
Wavelength Increment (Angstroms) --  .25 
Filter Wheel #1 Position ---------- (1) Ground quartz diffuser (ND=2.32)
Filter Wheel #2 Position ---------- 



************************************************************
HL scan start time = 03:55:53
Dark Count =  .1 


Time (GMT)  Wavelength (Ang)  Step Number  Raw Counts  Counts/Second

  236.65        3331.00           6579          46.00       200.09
  237.06        3331.25           6582          46.00       200.09
  237.09        3331.50           6586          45.00       195.73
  237.12        3331.75           6590          41.00       178.29
  237.15        3332.00           6594          43.00       187.01
  237.18        3332.25           6597          48.00       208.81
  237.21        3332.50           6601          47.00       204.45
  237.24        3332.75           6605          50.00       217.53
  237.27        3333.00           6608          45.00       195.73
  237.30        3333.25           6612          39.00       169.57
  237.33        3333.50           6616          44.00       191.37
  237.36        3333.75           6620          37.00       160.86
  237.39        3334.00           6623          50.00       217.53
  237.42        3334.25           6627          43.00       187.01
  237.45        3334.50           6631          42.00       182.65
  237.48        3334.75           6635          44.00       191.37
  237.51        3335.00           6638          47.00       204.45
  237.54        3335.25           6642          49.00       213.17
  237.57        3335.50           6646          53.00       230.60
  237.60        3335.75           6649          47.00       204.45
  237.63        3336.00           6653          60.00       261.12
  237.66        3336.25           6657         107.00       466.00
  237.69        3336.50           6661         633.00      2759.14
  237.72        3336.75           6664        1558.00      6792.44
  237.75        3337.00           6668        2949.00     12859.30
  237.78        3337.25           6672        4347.00     18958.70
  237.81        3337.50           6676        5963.00     26011.73
  237.84        3337.75           6679        7093.00     30945.20
  237.87        3338.00           6683        8606.00     37552.88
  237.90        3338.25           6687        9962.00     43476.90
  237.93        3338.50           6690       11275.00     49214.88
  237.96        3338.75           6694       12690.00     55400.60
  237.99        3339.00           6698       14013.00     61186.01
  238.02        3339.25           6702       15165.00     66225.12
  238.05        3339.50           6705       16335.00     71344.37
  238.08        3339.75           6709       17578.00     76784.57
  238.11        3340.00           6713       19073.00     83329.82
  238.14        3340.25           6717       20460.00     89404.31
  238.17        3340.50           6720       21624.00     94503.69
  238.20        3340.75           6724       22946.00    100297.00
  238.23        3341.00           6728       24110.00    105399.40
  238.26        3341.25           6732       24988.00    109249.00
  238.29        3341.50           6735       24891.00    108823.70
  238.32        3341.75           6739       24969.00    109165.70
  238.35        3342.00           6743       24567.00    107403.00
  238.38        3342.25           6747       23338.00    102015.10
  238.41        3342.50           6750       22180.00     96939.98
  238.44        3342.75           6754       20605.00     90039.47
  238.47        3343.00           6758       19202.00     83894.71
  238.50        3343.25           6761       18256.00     79752.63
  238.53        3343.50           6765       16730.00     73072.98
  238.56        3343.75           6769       15315.00     66881.35
  238.59        3344.00           6773       14152.00     61793.96
  238.62        3344.25           6776       13137.00     57355.11
  238.65        3344.50           6780       11783.00     51435.38
  238.68        3344.75           6784       10244.00     44709.13
  238.71        3345.00           6788        8705.00     37985.32
  238.74        3345.25           6791        7545.00     32918.96
  238.77        3345.50           6795        6143.00     26797.50
  238.80        3345.75           6799        4901.00     21376.33
  238.83        3346.00           6803        3470.00     15132.16
  238.86        3346.25           6806        2425.00     10573.64
  238.89        3346.50           6810        1120.00      4882.51
  238.92        3346.75           6814         288.00      1255.06
  238.95        3347.00           6818          91.00       396.26
  238.98        3347.25           6821          60.00       261.12
  239.01        3347.50           6825          50.00       217.53
  239.04        3347.75           6829          48.00       208.81
  239.06        3348.00           6833          46.00       200.09
  239.09        3348.25           6836          49.00       213.17
  239.13        3348.50           6840          45.00       195.73
  239.15        3348.75           6844          40.00       173.93
  239.18        3349.00           6848          45.00       195.73
  239.21        3349.25           6851          35.00       152.14
  239.24        3349.50           6855          39.00       169.57
  239.27        3349.75           6859          42.00       182.65
  239.30        3350.00           6863          41.00       178.29
  239.33        3350.25           6866          49.00       213.17
  239.36        3350.50           6870          44.00       191.37
  239.39        3350.75           6874          40.00       173.93
  239.42        3351.00           6878          52.00       226.24
HL scan finished at 04:00:55
end
************************************************************
  HL Scan of (1) Internal mercury lamp
************************************************************
Integration time is 0.2294 seconds per sample
dh070418Delft 51.9969-4.3863 3.179721pr1000
************************************************************
Dead Time -------------------------  2.7E-08 
Number of Cycles Used -------------  4 
Starting Wavelength (Angstroms) ---  3331 
Final Wavelength (Angstoms) -------  3351 
Wavelength Increment (Angstroms) --  .25 
Filter Wheel #1 Position ---------- (1) Ground quartz diffuser (ND=2.32)
Filter Wheel #2 Position ---------- 



************************************************************
HL scan start time = 19:30:13
Dark Count =  0 


Time (GMT)  Wavelength (Ang)  Step Number  Raw Counts  Counts/Second

 1170.99        3331.00           6579          48.00       209.24
 1171.40        3331.25           6582          49.00       213.60
 1171.43        3331.50           6586          50.00       217.96
 1171.46        3331.75           6590          49.00       213.60
 1171.49        3332.00           6594          50.00       217.96
 1171.51        3332.25           6597          39.00       170.01
 1171.55        3332.50           6601          45.00       196.16
 1171.57        3332.75           6605          56.00       244.12
 1171.61        3333.00           6608          52.00       226.68
 1171.63        3333.25           6612          46.00       200.52
 1171.66        3333.50           6616          52.00       226.68
 1171.69        3333.75           6620          54.00       235.40
 1171.72        3334.00           6623          53.00       231.04
 1171.75        3334.25           6627          53.00       231.04
 1171.78        3334.50           6631          46.00       200.52
 1171.81        3334.75           6635          50.00       217.96
 1171.84        3335.00           6638          57.00       248.48
 1171.87        3335.25           6642          60.00       261.55
 1171.90        3335.50           6646          65.00       283.35
 1171.93        3335.75           6649          66.00       287.71
 1171.96        3336.00           6653          69.00       300.79
 1171.99        3336.25           6657         111.00       483.88
 1172.02        3336.50           6661         764.00      3330.73
 1172.05        3336.75           6664        2168.00      9453.15
 1172.08        3337.00           6668        4307.00     18784.59
 1172.11        3337.25           6672        6575.00     28683.93
 1172.14        3337.50           6676        9160.00     39973.38
 1172.17        3337.75           6679       11159.00     48708.30
 1172.20        3338.00           6683       13332.00     58208.24
 1172.23        3338.25           6687       15997.00     69865.77
 1172.26        3338.50           6690       17877.00     78093.87
 1172.29        3338.75           6694       20175.00     88156.41
 1172.32        3339.00           6698       22309.00     97505.71
 1172.35        3339.25           6702       24545.00    107307.00
 1172.38        3339.50           6705       26046.00    113889.40
 1172.42        3339.75           6709       28493.00    124625.30
 1172.44        3340.00           6713       31177.00    136408.20
 1172.47        3340.25           6717       33297.00    145720.40
 1172.50        3340.50           6720       34705.00    151907.80
 1172.53        3340.75           6724       36816.00    161188.20
 1172.56        3341.00           6728       39122.00    171331.30
 1172.59        3341.25           6732       40558.00    177650.40
 1172.62        3341.50           6735       40888.00    179102.90
 1172.65        3341.75           6739       41011.00    179644.30
 1172.68        3342.00           6743       40459.00    177214.70
 1172.71        3342.25           6747       38337.00    167877.80
 1172.74        3342.50           6750       36994.00    161971.00
 1172.77        3342.75           6754       34594.00    151419.90
 1172.80        3343.00           6758       32149.00    140677.20
 1172.83        3343.25           6761       30417.00    133071.00
 1172.86        3343.50           6765       28114.00    122962.00
 1172.89        3343.75           6769       25713.00    112428.80
 1172.92        3344.00           6773       23646.00    103365.70
 1172.95        3344.25           6776       22201.00     97032.44
 1172.98        3344.50           6780       19837.00     86676.02
 1173.01        3344.75           6784       17576.00     76776.25
 1173.05        3345.00           6788       14929.00     65193.13
 1173.08        3345.25           6791       12936.00     56476.64
 1173.10        3345.50           6795       10738.00     46868.34
 1173.13        3345.75           6799        8473.00     36972.38
 1173.16        3346.00           6803        6285.00     27417.85
 1173.19        3346.25           6806        4432.00     19330.05
 1173.22        3346.50           6810        2251.00      9815.16
 1173.25        3346.75           6814         697.00      3038.61
 1173.28        3347.00           6818         164.00       714.92
 1173.31        3347.25           6821          99.00       431.57
 1173.34        3347.50           6825          71.00       309.51
 1173.37        3347.75           6829          72.00       313.86
 1173.40        3348.00           6833          59.00       257.19
 1173.43        3348.25           6836          57.00       248.48
 1173.46        3348.50           6840          56.00       244.12
 1173.49        3348.75           6844          51.00       222.32
 1173.52        3349.00           6848          57.00       248.48
 1173.55        3349.25           6851          56.00       244.12
 1173.58        3349.50           6855          59.00       257.19
 1173.61        3349.75           6859          56.00       244.12
 1173.64        3350.00           6863          50.00       217.96
 1173.67        3350.25           6866          54.00       235.40
 1173.70        3350.50           6870          51.00       222.32
 1173.73        3350.75           6874          56.00       244.12
 1173.76        3351.00           6878          46.00       200.52
HL scan finished at 19:35:15
end
