************************************************************
  HL Scan of (1) Internal mercury lamp
************************************************************
Integration time is 0.2294 seconds per sample
dh310317DelftKZ 51.997-4.386 2.750537pr1000
************************************************************
Dead Time -------------------------  3E-08 
Number of Cycles Used -------------  4 
Starting Wavelength (Angstroms) ---  3331 
Final Wavelength (Angstoms) -------  3351 
Wavelength Increment (Angstroms) --  .25 
Filter Wheel #1 Position ---------- (1) Ground quartz diffuser (ND=2.32)
Filter Wheel #2 Position ---------- 



************************************************************
HL scan start time = 04:00:58
Dark Count =  .1 


Time (GMT)  Wavelength (Ang)  Step Number  Raw Counts  Counts/Second

  241.73        3331.00           6581          47.00       204.45
  242.13        3331.25           6584          47.00       204.45
  242.16        3331.50           6588          47.00       204.45
  242.19        3331.75           6592          48.00       208.81
  242.22        3332.00           6595          47.00       204.45
  242.25        3332.25           6599          43.00       187.01
  242.27        3332.50           6603          43.00       187.01
  242.30        3332.75           6607          48.00       208.81
  242.33        3333.00           6610          43.00       187.01
  242.36        3333.25           6614          47.00       204.45
  242.39        3333.50           6618          43.00       187.01
  242.42        3333.75           6622          44.00       191.37
  242.45        3334.00           6625          48.00       208.81
  242.48        3334.25           6629          50.00       217.53
  242.51        3334.50           6633          55.00       239.32
  242.54        3334.75           6636          50.00       217.53
  242.57        3335.00           6640          52.00       226.24
  242.59        3335.25           6644          52.00       226.24
  242.62        3335.50           6648          61.00       265.48
  242.65        3335.75           6651          62.00       269.84
  242.68        3336.00           6655          82.00       357.02
  242.70        3336.25           6659         301.00      1311.73
  242.73        3336.50           6663        1623.00      7076.04
  242.76        3336.75           6666        2869.00     12510.80
  242.79        3337.00           6670        4569.00     19928.65
  242.83        3337.25           6674        6129.00     26738.53
  242.85        3337.50           6677        7435.00     32441.76
  242.88        3337.75           6681        8981.00     39195.59
  242.91        3338.00           6685       11007.00     48050.48
  242.94        3338.25           6689       12769.00     55755.35
  242.97        3338.50           6692       14224.00     62120.46
  242.99        3338.75           6696       15694.00     68553.66
  243.02        3339.00           6700       17494.00     76434.44
  243.05        3339.25           6704       19541.00     85401.18
  243.08        3339.50           6707       20969.00     91659.29
  243.10        3339.75           6711       22403.00     97946.06
  243.13        3340.00           6715       24312.00    106319.00
  243.16        3340.25           6719       25999.00    113721.70
  243.19        3340.50           6722       27321.00    119525.00
  243.21        3340.75           6726       29179.00    127684.80
  243.24        3341.00           6730       30479.00    133396.40
  243.27        3341.25           6733       31255.00    136806.60
  243.30        3341.50           6737       31332.00    137145.10
  243.33        3341.75           6741       31268.00    136863.80
  243.35        3342.00           6745       30604.00    133945.60
  243.38        3342.25           6748       29587.00    129477.10
  243.41        3342.50           6752       27795.00    121606.30
  243.44        3342.75           6756       26051.00    113949.90
  243.47        3343.00           6760       24082.00    105310.00
  243.49        3343.25           6763       22598.00     98801.14
  243.52        3343.50           6767       20753.00     90712.53
  243.55        3343.75           6771       19100.00     83469.00
  243.58        3344.00           6775       17451.00     76246.13
  243.61        3344.25           6778       16142.00     70514.75
  243.64        3344.50           6782       14467.00     63183.74
  243.67        3344.75           6786       12897.00     56315.21
  243.70        3345.00           6790       11179.00     48802.44
  243.72        3345.25           6793        9678.00     42241.38
  243.75        3345.50           6797        7641.00     33341.53
  243.78        3345.75           6801        5697.00     24852.44
  243.81        3346.00           6805        3827.00     16690.57
  243.83        3346.25           6808        2512.00     10953.47
  243.86        3346.50           6812         903.00      3936.38
  243.89        3346.75           6816         153.00       666.53
  243.92        3347.00           6819          83.00       361.38
  243.95        3347.25           6823          74.00       322.15
  243.97        3347.50           6827          57.00       248.04
  244.00        3347.75           6831          55.00       239.32
  244.03        3348.00           6834          50.00       217.53
  244.06        3348.25           6838          50.00       217.53
  244.08        3348.50           6842          45.00       195.73
  244.11        3348.75           6846          48.00       208.81
  244.14        3349.00           6849          50.00       217.53
  244.17        3349.25           6853          46.00       200.09
  244.21        3349.50           6857          51.00       221.88
  244.24        3349.75           6861          45.00       195.73
  244.27        3350.00           6864          46.00       200.09
  244.30        3350.25           6868          46.00       200.09
  244.33        3350.50           6872          47.00       204.45
  244.35        3350.75           6876          43.00       187.01
  244.38        3351.00           6879          47.00       204.45
HL scan finished at 04:05:52
end
