************************************************************
  HL Scan of (1) Internal mercury lamp
************************************************************
Integration time is 0.2294 seconds per sample
dh010417DelftKZ 51.997-4.386 2.482296pr1000
************************************************************
Dead Time -------------------------  3E-08 
Number of Cycles Used -------------  4 
Starting Wavelength (Angstroms) ---  3331 
Final Wavelength (Angstoms) -------  3351 
Wavelength Increment (Angstroms) --  .25 
Filter Wheel #1 Position ---------- (1) Ground quartz diffuser (ND=2.32)
Filter Wheel #2 Position ---------- 



************************************************************
HL scan start time = 03:57:53
Dark Count =  .1 


Time (GMT)  Wavelength (Ang)  Step Number  Raw Counts  Counts/Second

  238.65        3331.00           6581          44.00       191.37
  239.06        3331.25           6584          41.00       178.29
  239.08        3331.50           6588          48.00       208.81
  239.11        3331.75           6592          47.00       204.45
  239.14        3332.00           6595          41.00       178.29
  239.17        3332.25           6599          40.00       173.93
  239.19        3332.50           6603          40.00       173.93
  239.22        3332.75           6607          37.00       160.86
  239.25        3333.00           6610          39.00       169.57
  239.28        3333.25           6614          47.00       204.45
  239.31        3333.50           6618          42.00       182.65
  239.34        3333.75           6622          48.00       208.81
  239.36        3334.00           6625          47.00       204.45
  239.39        3334.25           6629          44.00       191.37
  239.42        3334.50           6633          44.00       191.37
  239.45        3334.75           6636          51.00       221.88
  239.47        3335.00           6640          46.00       200.09
  239.50        3335.25           6644          53.00       230.60
  239.53        3335.50           6648          53.00       230.60
  239.56        3335.75           6651          55.00       239.32
  239.59        3336.00           6655          77.00       335.23
  239.61        3336.25           6659         432.00      1882.84
  239.64        3336.50           6663        1611.00      7023.71
  239.67        3336.75           6666        2595.00     11315.52
  239.70        3337.00           6670        3896.00     16991.66
  239.72        3337.25           6674        5148.00     22455.84
  239.75        3337.50           6677        6077.00     26511.49
  239.78        3337.75           6681        7373.00     32170.97
  239.81        3338.00           6685        8936.00     38998.96
  239.84        3338.25           6689       10381.00     45313.96
  239.86        3338.50           6692       11371.00     49641.89
  239.89        3338.75           6696       12672.00     55331.10
  239.92        3339.00           6700       14017.00     61214.76
  239.95        3339.25           6704       15507.00     67735.15
  239.97        3339.50           6707       16606.00     72546.13
  240.00        3339.75           6711       17809.00     77813.96
  240.03        3340.00           6715       19214.00     83968.46
  240.06        3340.25           6719       20737.00     90642.41
  240.09        3340.50           6722       21692.00     94828.68
  240.11        3340.75           6726       23113.00    101059.60
  240.14        3341.00           6730       24092.00    105353.80
  240.17        3341.25           6733       24330.00    106397.90
  240.20        3341.50           6737       24451.00    106928.80
  240.23        3341.75           6741       24406.00    106731.40
  240.25        3342.00           6745       23581.00    103112.30
  240.28        3342.25           6748       22905.00    100147.40
  240.31        3342.50           6752       21487.00     93929.97
  240.34        3342.75           6756       20091.00     87811.24
  240.36        3343.00           6760       18343.00     80152.84
  240.39        3343.25           6763       17356.00     75830.12
  240.42        3343.50           6767       15934.00     69604.22
  240.45        3343.75           6771       14434.00     63039.33
  240.48        3344.00           6775       13309.00     58117.37
  240.50        3344.25           6778       12431.00     54277.07
  240.53        3344.50           6782       10821.00     47237.35
  240.56        3344.75           6786        9659.00     42158.35
  240.59        3345.00           6790        8299.00     36215.88
  240.61        3345.25           6793        7273.00     31734.21
  240.64        3345.50           6797        5650.00     24647.25
  240.67        3345.75           6801        4110.00     17925.50
  240.70        3346.00           6805        2585.00     11271.90
  240.73        3346.25           6808        1703.00      7424.93
  240.75        3346.50           6812         443.00      1930.80
  240.78        3346.75           6816          97.00       422.41
  240.81        3347.00           6819          64.00       278.56
  240.84        3347.25           6823          53.00       230.60
  240.86        3347.50           6827          50.00       217.53
  240.89        3347.75           6831          47.00       204.45
  240.92        3348.00           6834          45.00       195.73
  240.95        3348.25           6838          44.00       191.37
  240.97        3348.50           6842          49.00       213.17
  241.00        3348.75           6846          39.00       169.57
  241.03        3349.00           6849          47.00       204.45
  241.06        3349.25           6853          40.00       173.93
  241.09        3349.50           6857          40.00       173.93
  241.12        3349.75           6861          45.00       195.73
  241.15        3350.00           6864          44.00       191.37
  241.17        3350.25           6868          45.00       195.73
  241.20        3350.50           6872          42.00       182.65
  241.23        3350.75           6876          41.00       178.29
  241.26        3351.00           6879          43.00       187.01
HL scan finished at 04:02:44
end
