************************************************************
  HL Scan of (1) Internal mercury lamp
************************************************************
Integration time is 0.2294 seconds per sample
dh070417DelftKZ 51.997-4.386 2.482296pr1000
************************************************************
Dead Time -------------------------  3E-08 
Number of Cycles Used -------------  4 
Starting Wavelength (Angstroms) ---  3331 
Final Wavelength (Angstoms) -------  3351 
Wavelength Increment (Angstroms) --  .25 
Filter Wheel #1 Position ---------- (1) Ground quartz diffuser (ND=2.32)
Filter Wheel #2 Position ---------- 



************************************************************
HL scan start time = 03:39:12
Dark Count =  0 


Time (GMT)  Wavelength (Ang)  Step Number  Raw Counts  Counts/Second

  219.95        3331.00           6581          41.00       178.73
  220.36        3331.25           6584          44.00       191.81
  220.39        3331.50           6588          43.00       187.45
  220.41        3331.75           6592          48.00       209.24
  220.44        3332.00           6595          44.00       191.81
  220.47        3332.25           6599          46.00       200.52
  220.50        3332.50           6603          47.00       204.88
  220.52        3332.75           6607          41.00       178.73
  220.55        3333.00           6610          43.00       187.45
  220.58        3333.25           6614          43.00       187.45
  220.61        3333.50           6618          49.00       213.60
  220.64        3333.75           6622          42.00       183.09
  220.66        3334.00           6625          48.00       209.24
  220.69        3334.25           6629          47.00       204.88
  220.72        3334.50           6633          46.00       200.52
  220.75        3334.75           6636          46.00       200.52
  220.77        3335.00           6640          48.00       209.24
  220.80        3335.25           6644          56.00       244.12
  220.83        3335.50           6648          58.00       252.84
  220.86        3335.75           6651          63.00       274.63
  220.90        3336.00           6655          69.00       300.79
  220.93        3336.25           6659         292.00      1272.93
  220.96        3336.50           6663        1278.00      5571.99
  220.98        3336.75           6666        2116.00      9226.62
  221.02        3337.00           6670        3448.00     15037.30
  221.05        3337.25           6674        5035.00     21963.03
  221.07        3337.50           6677        6213.00     27105.73
  221.10        3337.75           6681        7666.00     33451.17
  221.13        3338.00           6685        8851.00     38628.00
  221.16        3338.25           6689       10133.00     44230.40
  221.18        3338.50           6692       11394.00     49742.89
  221.21        3338.75           6696       12737.00     55615.82
  221.24        3339.00           6700       14139.00     61748.98
  221.27        3339.25           6704       15514.00     67766.23
  221.30        3339.50           6707       16650.00     72739.21
  221.32        3339.75           6711       18000.00     78650.93
  221.35        3340.00           6715       19638.00     85826.63
  221.38        3340.25           6719       21169.00     92536.39
  221.41        3340.50           6722       22210.00     97100.24
  221.44        3340.75           6726       23502.00    102766.20
  221.47        3341.00           6730       24867.00    108754.40
  221.50        3341.25           6733       25150.00    109996.20
  221.52        3341.50           6737       25115.00    109842.60
  221.56        3341.75           6741       25166.00    110066.40
  221.59        3342.00           6745       24712.00    108074.30
  221.61        3342.25           6748       23607.00    103226.80
  221.64        3342.50           6752       22069.00     96482.00
  221.67        3342.75           6756       20715.00     90546.41
  221.70        3343.00           6760       19205.00     83929.46
  221.72        3343.25           6763       18326.00     80078.81
  221.75        3343.50           6767       16790.00     73352.18
  221.78        3343.75           6771       15403.00     67280.40
  221.81        3344.00           6775       14103.00     61591.47
  221.84        3344.25           6778       13072.00     57081.10
  221.86        3344.50           6782       11691.00     51041.48
  221.89        3344.75           6786       10163.00     44361.53
  221.92        3345.00           6790        8692.00     37933.29
  221.95        3345.25           6793        7490.00     32682.42
  221.97        3345.50           6797        5949.00     25953.07
  222.00        3345.75           6801        4532.00     19767.60
  222.03        3346.00           6805        2850.00     12428.35
  222.06        3346.25           6808        1778.00      7752.46
  222.09        3346.50           6812         639.00      2785.76
  222.11        3346.75           6816         158.00       688.77
  222.14        3347.00           6819          66.00       287.71
  222.17        3347.25           6823          52.00       226.68
  222.20        3347.50           6827          63.00       274.63
  222.22        3347.75           6831          47.00       204.88
  222.25        3348.00           6834          57.00       248.48
  222.28        3348.25           6838          47.00       204.88
  222.31        3348.50           6842          41.00       178.73
  222.33        3348.75           6846          45.00       196.17
  222.36        3349.00           6849          49.00       213.60
  222.39        3349.25           6853          42.00       183.09
  222.42        3349.50           6857          44.00       191.81
  222.44        3349.75           6861          50.00       217.96
  222.47        3350.00           6864          45.00       196.17
  222.50        3350.25           6868          38.00       165.65
  222.53        3350.50           6872          46.00       200.52
  222.56        3350.75           6876          40.00       174.37
  222.58        3351.00           6879          44.00       191.81
HL scan finished at 03:44:04
end
