************************************************************
  HL Scan of (1) Internal mercury lamp
************************************************************
Integration time is 0.2294 seconds per sample
dh080418Delft 51.9969-4.3863 2.696889pr1000
************************************************************
Dead Time -------------------------  2.7E-08 
Number of Cycles Used -------------  4 
Starting Wavelength (Angstroms) ---  3331 
Final Wavelength (Angstoms) -------  3351 
Wavelength Increment (Angstroms) --  .25 
Filter Wheel #1 Position ---------- (1) Ground quartz diffuser (ND=2.32)
Filter Wheel #2 Position ---------- 



************************************************************
HL scan start time = 03:52:40
Dark Count =  0 


Time (GMT)  Wavelength (Ang)  Step Number  Raw Counts  Counts/Second

  233.44        3331.00           6579          46.00       200.52
  233.85        3331.25           6582          47.00       204.88
  233.88        3331.50           6586          37.00       161.29
  233.91        3331.75           6590          38.00       165.65
  233.94        3332.00           6594          39.00       170.01
  233.97        3332.25           6597          47.00       204.88
  234.00        3332.50           6601          44.00       191.81
  234.03        3332.75           6605          47.00       204.88
  234.06        3333.00           6608          45.00       196.16
  234.09        3333.25           6612          46.00       200.52
  234.12        3333.50           6616          50.00       217.96
  234.15        3333.75           6620          46.00       200.52
  234.18        3334.00           6623          41.00       178.73
  234.21        3334.25           6627          40.00       174.37
  234.24        3334.50           6631          53.00       231.04
  234.27        3334.75           6635          51.00       222.32
  234.29        3335.00           6638          45.00       196.16
  234.33        3335.25           6642          48.00       209.24
  234.35        3335.50           6646          48.00       209.24
  234.39        3335.75           6649          63.00       274.63
  234.41        3336.00           6653          70.00       305.15
  234.45        3336.25           6657         152.00       662.61
  234.47        3336.50           6661        1110.00      4839.34
  234.50        3336.75           6664        2187.00      9536.02
  234.54        3337.00           6668        3641.00     15878.65
  234.56        3337.25           6672        5268.00     22978.51
  234.59        3337.50           6676        7158.00     31229.46
  234.62        3337.75           6679        8697.00     37950.81
  234.65        3338.00           6683       10450.00     45609.76
  234.68        3338.25           6687       12154.00     53057.65
  234.71        3338.50           6690       13366.00     58356.92
  234.74        3338.75           6694       15241.00     66558.04
  234.77        3339.00           6698       17147.00     74898.49
  234.80        3339.25           6702       18526.00     80935.18
  234.83        3339.50           6705       20041.00     87569.49
  234.86        3339.75           6709       21665.00     94683.78
  234.89        3340.00           6713       23326.00    101963.00
  234.92        3340.25           6717       25426.00    111170.20
  234.95        3340.50           6720       26588.00    116266.80
  234.98        3340.75           6724       28318.00    123857.30
  235.01        3341.00           6728       30069.00    131543.10
  235.04        3341.25           6732       30881.00    135108.40
  235.07        3341.50           6735       31063.00    135907.60
  235.10        3341.75           6739       31191.00    136469.70
  235.13        3342.00           6743       30557.00    133685.70
  235.16        3342.25           6747       29541.00    129225.20
  235.19        3342.50           6750       27934.00    122172.20
  235.22        3342.75           6754       25985.00    113621.80
  235.25        3343.00           6758       24448.00    106881.70
  235.28        3343.25           6761       23155.00    101213.40
  235.31        3343.50           6765       21519.00     94044.08
  235.34        3343.75           6769       19847.00     86719.81
  235.37        3344.00           6773       18001.00     78636.71
  235.40        3344.25           6776       16804.00     73397.27
  235.43        3344.50           6780       15148.00     66151.18
  235.46        3344.75           6784       13355.00     58308.82
  235.49        3345.00           6788       11285.00     49259.02
  235.52        3345.25           6791        9900.00     43206.44
  235.55        3345.50           6795        7948.00     34679.36
  235.58        3345.75           6799        6079.00     26518.54
  235.61        3346.00           6803        4293.00     18723.50
  235.64        3346.25           6806        2904.00     12663.44
  235.67        3346.50           6810        1240.00      5406.20
  235.70        3346.75           6814         297.00      1294.73
  235.73        3347.00           6818         103.00       449.00
  235.76        3347.25           6821          74.00       322.58
  235.79        3347.50           6825          52.00       226.68
  235.82        3347.75           6829          57.00       248.48
  235.85        3348.00           6833          54.00       235.40
  235.88        3348.25           6836          48.00       209.24
  235.91        3348.50           6840          55.00       239.76
  235.94        3348.75           6844          49.00       213.60
  235.97        3349.00           6848          43.00       187.45
  236.00        3349.25           6851          49.00       213.60
  236.03        3349.50           6855          50.00       217.96
  236.06        3349.75           6859          47.00       204.88
  236.09        3350.00           6863          47.00       204.88
  236.12        3350.25           6866          46.00       200.52
  236.15        3350.50           6870          42.00       183.09
  236.18        3350.75           6874          44.00       191.81
  236.21        3351.00           6878          48.00       209.24
HL scan finished at 03:57:42
end
************************************************************
  HL Scan of (1) Internal mercury lamp
************************************************************
Integration time is 0.2294 seconds per sample
dh080418Delft 51.9969-4.3863 2.857833pr1000
************************************************************
Dead Time -------------------------  2.7E-08 
Number of Cycles Used -------------  4 
Starting Wavelength (Angstroms) ---  3331 
Final Wavelength (Angstoms) -------  3351 
Wavelength Increment (Angstroms) --  .25 
Filter Wheel #1 Position ---------- (1) Ground quartz diffuser (ND=2.32)
Filter Wheel #2 Position ---------- 



************************************************************
HL scan start time = 19:37:59
Dark Count =  0 


Time (GMT)  Wavelength (Ang)  Step Number  Raw Counts  Counts/Second

 1178.74        3331.00           6579          44.00       191.81
 1179.15        3331.25           6582          48.00       209.24
 1179.18        3331.50           6586          44.00       191.81
 1179.21        3331.75           6590          40.00       174.37
 1179.24        3332.00           6594          44.00       191.81
 1179.27        3332.25           6597          48.00       209.24
 1179.30        3332.50           6601          49.00       213.60
 1179.33        3332.75           6605          47.00       204.88
 1179.36        3333.00           6608          46.00       200.52
 1179.39        3333.25           6612          46.00       200.52
 1179.42        3333.50           6616          49.00       213.60
 1179.45        3333.75           6620          45.00       196.16
 1179.48        3334.00           6623          49.00       213.60
 1179.51        3334.25           6627          43.00       187.45
 1179.54        3334.50           6631          48.00       209.24
 1179.57        3334.75           6635          55.00       239.76
 1179.60        3335.00           6638          46.00       200.52
 1179.63        3335.25           6642          51.00       222.32
 1179.66        3335.50           6646          69.00       300.79
 1179.69        3335.75           6649          66.00       287.71
 1179.72        3336.00           6653          73.00       318.22
 1179.75        3336.25           6657         101.00       440.28
 1179.78        3336.50           6661         664.00      2894.73
 1179.81        3336.75           6664        1734.00      7560.39
 1179.84        3337.00           6668        3293.00     14360.41
 1179.87        3337.25           6672        5434.00     23703.05
 1179.90        3337.50           6676        7522.00     32818.96
 1179.93        3337.75           6679        8967.00     39130.25
 1179.96        3338.00           6683       10584.00     46195.33
 1179.99        3338.25           6687       12648.00     55217.40
 1180.02        3338.50           6690       14212.00     62056.82
 1180.05        3338.75           6694       16479.00     71974.96
 1180.08        3339.00           6698       18129.00     79197.07
 1180.11        3339.25           6702       19802.00     86522.74
 1180.14        3339.50           6705       21374.00     93408.78
 1180.17        3339.75           6709       23425.00    102396.90
 1180.20        3340.00           6713       25397.00    111043.00
 1180.23        3340.25           6717       27278.00    119293.80
 1180.26        3340.50           6720       28638.00    125261.60
 1180.29        3340.75           6724       30314.00    132618.80
 1180.32        3341.00           6728       32375.00    141669.90
 1180.35        3341.25           6732       33764.00    147772.40
 1180.38        3341.50           6735       33969.00    148673.20
 1180.41        3341.75           6739       34110.00    149292.80
 1180.44        3342.00           6743       33804.00    147948.10
 1180.47        3342.25           6747       32382.00    141700.70
 1180.50        3342.50           6750       31003.00    135644.10
 1180.53        3342.75           6754       29021.00    126942.60
 1180.56        3343.00           6758       27125.00    118622.60
 1180.59        3343.25           6761       25696.00    112354.30
 1180.62        3343.50           6765       24153.00    105588.30
 1180.65        3343.75           6769       22010.00     96195.47
 1180.68        3344.00           6773       20252.00     88493.66
 1180.71        3344.25           6776       19052.00     83238.30
 1180.74        3344.50           6780       16955.00     74058.13
 1180.77        3344.75           6784       14989.00     65455.60
 1180.80        3345.00           6788       12697.00     55431.64
 1180.83        3345.25           6791       11146.00     48651.49
 1180.86        3345.50           6795        9178.00     40052.01
 1180.89        3345.75           6799        7316.00     31919.39
 1180.92        3346.00           6803        5195.00     22659.89
 1180.95        3346.25           6806        3708.00     16170.97
 1180.98        3346.50           6810        2122.00      9252.53
 1181.01        3346.75           6814         622.00      2711.62
 1181.04        3347.00           6818         141.00       614.66
 1181.07        3347.25           6821          75.00       326.94
 1181.10        3347.50           6825          68.00       296.43
 1181.13        3347.75           6829          66.00       287.71
 1181.16        3348.00           6833          55.00       239.76
 1181.19        3348.25           6836          54.00       235.40
 1181.22        3348.50           6840          47.00       204.88
 1181.24        3348.75           6844          54.00       235.40
 1181.27        3349.00           6848          47.00       204.88
 1181.30        3349.25           6851          50.00       217.96
 1181.33        3349.50           6855          51.00       222.32
 1181.36        3349.75           6859          54.00       235.40
 1181.39        3350.00           6863          49.00       213.60
 1181.42        3350.25           6866          50.00       217.96
 1181.45        3350.50           6870          44.00       191.81
 1181.48        3350.75           6874          48.00       209.24
 1181.51        3351.00           6878          42.00       183.09
HL scan finished at 19:43:00
end
