************************************************************
  HL Scan of (1) Internal mercury lamp
************************************************************
Integration time is 0.2294 seconds per sample
dh060417DelftKZ 51.997-4.386 2.375pr1000
************************************************************
Dead Time -------------------------  3E-08 
Number of Cycles Used -------------  4 
Starting Wavelength (Angstroms) ---  3331 
Final Wavelength (Angstoms) -------  3351 
Wavelength Increment (Angstroms) --  .25 
Filter Wheel #1 Position ---------- (1) Ground quartz diffuser (ND=2.32)
Filter Wheel #2 Position ---------- 



************************************************************
HL scan start time = 00:32:27
Dark Count =  0 


Time (GMT)  Wavelength (Ang)  Step Number  Raw Counts  Counts/Second

   33.20        3331.00           6581          46.00       200.52
   33.61        3331.25           6584          48.00       209.24
   33.64        3331.50           6588          45.00       196.17
   33.67        3331.75           6592          39.00       170.01
   33.69        3332.00           6595          44.00       191.81
   33.72        3332.25           6599          51.00       222.32
   33.75        3332.50           6603          46.00       200.52
   33.78        3332.75           6607          49.00       213.60
   33.80        3333.00           6610          51.00       222.32
   33.83        3333.25           6614          46.00       200.52
   33.86        3333.50           6618          43.00       187.45
   33.89        3333.75           6622          51.00       222.32
   33.92        3334.00           6625          44.00       191.81
   33.94        3334.25           6629          38.00       165.65
   33.97        3334.50           6633          42.00       183.09
   34.00        3334.75           6636          52.00       226.68
   34.03        3335.00           6640          54.00       235.40
   34.05        3335.25           6644          53.00       231.04
   34.08        3335.50           6648          61.00       265.91
   34.11        3335.75           6651          60.00       261.55
   34.14        3336.00           6655          76.00       331.30
   34.16        3336.25           6659         209.00       911.10
   34.19        3336.50           6663        1198.00      5223.14
   34.22        3336.75           6666        2232.00      9732.57
   34.25        3337.00           6670        3827.00     16691.00
   34.27        3337.25           6674        5638.00     24595.30
   34.30        3337.50           6677        6826.00     29782.48
   34.33        3337.75           6681        8567.00     37387.16
   34.36        3338.00           6685       10278.00     44864.18
   34.39        3338.25           6689       11774.00     51404.41
   34.42        3338.50           6692       13108.00     57238.57
   34.45        3338.75           6696       14679.00     64111.86
   34.47        3339.00           6700       16220.00     70856.66
   34.50        3339.25           6704       17727.00     77455.28
   34.53        3339.50           6707       18874.00     82479.33
   34.56        3339.75           6711       20441.00     89345.53
   34.59        3340.00           6715       22140.00     96793.30
   34.61        3340.25           6719       24098.00    105380.60
   34.64        3340.50           6722       25035.00    109491.60
   34.67        3340.75           6726       26670.00    116667.40
   34.70        3341.00           6730       27822.00    121725.30
   34.72        3341.25           6733       28420.00    124351.50
   34.75        3341.50           6737       28420.00    124351.50
   34.78        3341.75           6741       28217.00    123459.90
   34.81        3342.00           6745       27447.00    120078.70
   34.84        3342.25           6748       26548.00    116131.90
   34.86        3342.50           6752       24723.00    108122.60
   34.89        3342.75           6756       23091.00    100963.60
   34.92        3343.00           6760       21412.00     93601.62
   34.95        3343.25           6763       20186.00     88227.99
   34.97        3343.50           6767       18483.00     80766.52
   35.00        3343.75           6771       16956.00     74079.01
   35.03        3344.00           6775       15616.00     68212.68
   35.06        3344.25           6778       14338.00     62619.71
   35.09        3344.50           6782       12881.00     56245.66
   35.11        3344.75           6786       11425.00     49878.42
   35.14        3345.00           6790        9709.00     42377.30
   35.17        3345.25           6793        8292.00     36185.73
   35.20        3345.50           6797        6598.00     28786.84
   35.23        3345.75           6801        5031.00     21945.57
   35.25        3346.00           6805        3618.00     15779.05
   35.28        3346.25           6808        2386.00     10404.29
   35.31        3346.50           6812         882.00      3845.26
   35.35        3346.75           6816         181.00       789.03
   35.38        3347.00           6819          85.00       370.54
   35.40        3347.25           6823          56.00       244.12
   35.43        3347.50           6827          56.00       244.12
   35.46        3347.75           6831          49.00       213.60
   35.48        3348.00           6834          49.00       213.60
   35.52        3348.25           6838          52.00       226.68
   35.55        3348.50           6842          48.00       209.24
   35.57        3348.75           6846          50.00       217.96
   35.60        3349.00           6849          41.00       178.73
   35.63        3349.25           6853          45.00       196.17
   35.66        3349.50           6857          49.00       213.60
   35.69        3349.75           6861          40.00       174.37
   35.71        3350.00           6864          45.00       196.17
   35.74        3350.25           6868          47.00       204.88
   35.77        3350.50           6872          45.00       196.17
   35.80        3350.75           6876          47.00       204.88
   35.82        3351.00           6879          53.00       231.04
HL scan finished at 00:37:18
end
************************************************************
  HL Scan of (1) Internal mercury lamp
************************************************************
Integration time is 0.2294 seconds per sample
dh060417DelftKZ 51.997-4.386 2.428648pr1000
************************************************************
Dead Time -------------------------  3E-08 
Number of Cycles Used -------------  4 
Starting Wavelength (Angstroms) ---  3331 
Final Wavelength (Angstoms) -------  3351 
Wavelength Increment (Angstroms) --  .25 
Filter Wheel #1 Position ---------- (1) Ground quartz diffuser (ND=2.32)
Filter Wheel #2 Position ---------- 



************************************************************
HL scan start time = 03:42:24
Dark Count =  .1 


Time (GMT)  Wavelength (Ang)  Step Number  Raw Counts  Counts/Second

  223.16        3331.00           6581          42.00       182.65
  223.57        3331.25           6584          41.00       178.29
  223.60        3331.50           6588          43.00       187.01
  223.63        3331.75           6592          32.00       139.06
  223.66        3332.00           6595          38.00       165.21
  223.68        3332.25           6599          43.00       187.01
  223.71        3332.50           6603          44.00       191.37
  223.74        3332.75           6607          42.00       182.65
  223.77        3333.00           6610          41.00       178.29
  223.80        3333.25           6614          51.00       221.88
  223.82        3333.50           6618          36.00       156.50
  223.85        3333.75           6622          37.00       160.86
  223.88        3334.00           6625          39.00       169.57
  223.91        3334.25           6629          43.00       187.01
  223.93        3334.50           6633          42.00       182.65
  223.96        3334.75           6636          52.00       226.24
  223.99        3335.00           6640          45.00       195.73
  224.02        3335.25           6644          48.00       208.81
  224.04        3335.50           6648          54.00       234.96
  224.07        3335.75           6651          54.00       234.96
  224.10        3336.00           6655          62.00       269.84
  224.13        3336.25           6659         264.00      1150.43
  224.16        3336.50           6663        1427.00      6221.30
  224.18        3336.75           6666        2508.00     10936.02
  224.21        3337.00           6670        3764.00     16415.67
  224.24        3337.25           6674        4910.00     21416.98
  224.27        3337.50           6677        5975.00     26066.15
  224.29        3337.75           6681        7215.00     31480.90
  224.32        3338.00           6685        8508.00     37128.95
  224.35        3338.25           6689        9566.00     41751.92
  224.38        3338.50           6692       10617.00     46345.57
  224.40        3338.75           6696       11873.00     51836.87
  224.43        3339.00           6700       13309.00     58117.37
  224.46        3339.25           6704       14740.00     64378.36
  224.49        3339.50           6707       15583.00     68067.80
  224.52        3339.75           6711       16897.00     73820.24
  224.54        3340.00           6715       18011.00     78698.66
  224.57        3340.25           6719       19623.00     85760.47
  224.60        3340.50           6722       20339.00     88898.07
  224.63        3340.75           6726       21518.00     94065.87
  224.66        3341.00           6730       22645.00     99007.24
  224.68        3341.25           6733       22736.00     99406.30
  224.71        3341.50           6737       22896.00    100108.00
  224.74        3341.75           6741       22735.00     99401.91
  224.77        3342.00           6745       21828.00     95424.93
  224.79        3342.25           6748       20877.00     91256.03
  224.82        3342.50           6752       19583.00     85585.21
  224.85        3342.75           6756       18165.00     79373.18
  224.88        3343.00           6760       17052.00     74498.93
  224.91        3343.25           6763       16141.00     70510.38
  224.93        3343.50           6767       14858.00     64894.75
  224.96        3343.75           6771       13483.00     58878.54
  224.99        3344.00           6775       12212.00     53319.32
  225.02        3344.25           6778       11154.00     48693.14
  225.04        3344.50           6782        9947.00     43417.02
  225.07        3344.75           6786        8713.00     38024.61
  225.10        3345.00           6790        7442.00     32472.34
  225.13        3345.25           6793        6436.00     28079.01
  225.16        3345.50           6797        5049.00     22023.70
  225.18        3345.75           6801        3900.00     17009.11
  225.21        3346.00           6805        2737.00     11934.96
  225.24        3346.25           6808        1696.00      7394.40
  225.27        3346.50           6812         443.00      1930.80
  225.30        3346.75           6816          92.00       400.62
  225.32        3347.00           6819          62.00       269.84
  225.35        3347.25           6823          45.00       195.73
  225.38        3347.50           6827          46.00       200.09
  225.41        3347.75           6831          55.00       239.32
  225.43        3348.00           6834          46.00       200.09
  225.46        3348.25           6838          45.00       195.73
  225.49        3348.50           6842          41.00       178.29
  225.52        3348.75           6846          48.00       208.81
  225.54        3349.00           6849          41.00       178.29
  225.57        3349.25           6853          42.00       182.65
  225.60        3349.50           6857          41.00       178.29
  225.63        3349.75           6861          51.00       221.88
  225.66        3350.00           6864          49.00       213.17
  225.69        3350.25           6868          43.00       187.01
  225.72        3350.50           6872          42.00       182.65
  225.74        3350.75           6876          42.00       182.65
  225.77        3351.00           6879          43.00       187.01
HL scan finished at 03:47:15
end
