************************************************************
  HL Scan of (1) Internal mercury lamp
************************************************************
Integration time is 0.2294 seconds per sample
dh090417DelftKZ 51.997-4.386 2.375pr1000
************************************************************
Dead Time -------------------------  3E-08 
Number of Cycles Used -------------  4 
Starting Wavelength (Angstroms) ---  3331 
Final Wavelength (Angstoms) -------  3351 
Wavelength Increment (Angstroms) --  .25 
Filter Wheel #1 Position ---------- (1) Ground quartz diffuser (ND=2.32)
Filter Wheel #2 Position ---------- 



************************************************************
HL scan start time = 03:32:44
Dark Count =  0 


Time (GMT)  Wavelength (Ang)  Step Number  Raw Counts  Counts/Second

  213.49        3331.00           6581          39.00       170.01
  213.90        3331.25           6584          48.00       209.24
  213.93        3331.50           6588          43.00       187.45
  213.95        3331.75           6592          42.00       183.09
  213.98        3332.00           6595          42.00       183.09
  214.02        3332.25           6599          43.00       187.45
  214.05        3332.50           6603          39.00       170.01
  214.08        3332.75           6607          44.00       191.81
  214.10        3333.00           6610          45.00       196.17
  214.13        3333.25           6614          39.00       170.01
  214.16        3333.50           6618          38.00       165.65
  214.19        3333.75           6622          41.00       178.73
  214.21        3334.00           6625          38.00       165.65
  214.24        3334.25           6629          48.00       209.24
  214.28        3334.50           6633          45.00       196.17
  214.31        3334.75           6636          42.00       183.09
  214.34        3335.00           6640          42.00       183.09
  214.36        3335.25           6644          50.00       217.96
  214.39        3335.50           6648          54.00       235.40
  214.42        3335.75           6651          57.00       248.48
  214.45        3336.00           6655          63.00       274.63
  214.47        3336.25           6659         381.00      1660.94
  214.50        3336.50           6663        1399.00      6099.63
  214.53        3336.75           6666        2297.00     10016.09
  214.56        3337.00           6670        3577.00     15600.15
  214.59        3337.25           6674        4854.00     21172.99
  214.61        3337.50           6677        5732.00     25005.68
  214.64        3337.75           6681        6796.00     29651.47
  214.67        3338.00           6685        7987.00     34853.34
  214.70        3338.25           6689        9128.00     39838.35
  214.72        3338.50           6692       10187.00     44466.43
  214.75        3338.75           6696       11553.00     50438.08
  214.78        3339.00           6700       12723.00     55554.59
  214.81        3339.25           6704       13942.00     60887.06
  214.85        3339.50           6707       14935.00     65232.15
  214.88        3339.75           6711       16182.00     70690.30
  214.91        3340.00           6715       17224.00     75252.53
  214.94        3340.25           6719       18588.00     81226.46
  214.97        3340.50           6722       19524.00     85327.12
  214.99        3340.75           6726       20670.00     90349.18
  215.02        3341.00           6730       21729.00     94991.33
  215.05        3341.25           6733       21800.00     95302.60
  215.08        3341.50           6737       22036.00     96337.31
  215.10        3341.75           6741       21893.00     95710.34
  215.13        3342.00           6745       21050.00     92014.77
  215.16        3342.25           6748       20053.00     87645.15
  215.19        3342.50           6752       18965.00     82878.00
  215.22        3342.75           6756       17736.00     77494.69
  215.25        3343.00           6760       16717.00     73032.55
  215.28        3343.25           6763       15542.00     67888.78
  215.31        3343.50           6767       14295.00     62431.56
  215.33        3343.75           6771       13094.00     57177.33
  215.36        3344.00           6775       11777.00     51417.53
  215.39        3344.25           6778       10909.00     47622.48
  215.42        3344.50           6782        9751.00     42560.85
  215.44        3344.75           6786        8649.00     37745.42
  215.47        3345.00           6790        7231.00     31551.21
  215.50        3345.25           6793        6323.00     27586.03
  215.53        3345.50           6797        5159.00     22504.29
  215.56        3345.75           6801        3873.00     16891.73
  215.58        3346.00           6805        2425.00     10574.41
  215.61        3346.25           6808        1529.00      6666.55
  215.64        3346.50           6812         371.00      1617.34
  215.67        3346.75           6816          91.00       396.69
  215.69        3347.00           6819          69.00       300.79
  215.72        3347.25           6823          54.00       235.40
  215.75        3347.50           6827          51.00       222.32
  215.78        3347.75           6831          53.00       231.04
  215.81        3348.00           6834          47.00       204.88
  215.84        3348.25           6838          39.00       170.01
  215.87        3348.50           6842          42.00       183.09
  215.89        3348.75           6846          48.00       209.24
  215.92        3349.00           6849          48.00       209.24
  215.95        3349.25           6853          39.00       170.01
  215.98        3349.50           6857          44.00       191.81
  216.00        3349.75           6861          46.00       200.52
  216.03        3350.00           6864          39.00       170.01
  216.06        3350.25           6868          38.00       165.65
  216.09        3350.50           6872          39.00       170.01
  216.11        3350.75           6876          36.00       156.93
  216.14        3351.00           6879          40.00       174.37
HL scan finished at 03:37:37
end
