************************************************************
  HL Scan of (1) Internal mercury lamp
************************************************************
Integration time is 0.2294 seconds per sample
dh050417DelftKZ 51.997-4.386 2.535944pr1000
************************************************************
Dead Time -------------------------  3E-08 
Number of Cycles Used -------------  4 
Starting Wavelength (Angstroms) ---  3331 
Final Wavelength (Angstoms) -------  3351 
Wavelength Increment (Angstroms) --  .25 
Filter Wheel #1 Position ---------- (1) Ground quartz diffuser (ND=2.32)
Filter Wheel #2 Position ---------- 



************************************************************
HL scan start time = 03:45:30
Dark Count =  .1 


Time (GMT)  Wavelength (Ang)  Step Number  Raw Counts  Counts/Second

  226.26        3331.00           6581          46.00       200.09
  226.66        3331.25           6584          43.00       187.01
  226.69        3331.50           6588          41.00       178.29
  226.72        3331.75           6592          42.00       182.65
  226.75        3332.00           6595          46.00       200.09
  226.77        3332.25           6599          46.00       200.09
  226.80        3332.50           6603          48.00       208.81
  226.83        3332.75           6607          46.00       200.09
  226.86        3333.00           6610          43.00       187.01
  226.88        3333.25           6614          43.00       187.01
  226.91        3333.50           6618          43.00       187.01
  226.94        3333.75           6622          42.00       182.65
  226.97        3334.00           6625          49.00       213.17
  227.00        3334.25           6629          47.00       204.45
  227.02        3334.50           6633          54.00       234.96
  227.05        3334.75           6636          40.00       173.93
  227.08        3335.00           6640          51.00       221.88
  227.11        3335.25           6644          47.00       204.45
  227.14        3335.50           6648          56.00       243.68
  227.17        3335.75           6651          69.00       300.35
  227.19        3336.00           6655          70.00       304.71
  227.22        3336.25           6659         191.00       832.19
  227.25        3336.50           6663        1226.00      5344.80
  227.28        3336.75           6666        2378.00     10368.96
  227.31        3337.00           6670        3769.00     16437.49
  227.34        3337.25           6674        5102.00     22255.05
  227.36        3337.50           6677        6228.00     27170.79
  227.39        3337.75           6681        7690.00     33555.56
  227.42        3338.00           6685        9312.00     40641.94
  227.45        3338.25           6689       10874.00     47469.03
  227.47        3338.50           6692       12067.00     52685.21
  227.50        3338.75           6696       13632.00     59530.38
  227.53        3339.00           6700       15128.00     66076.37
  227.56        3339.25           6704       16573.00     72401.65
  227.59        3339.50           6707       17869.00     78076.75
  227.61        3339.75           6711       19099.00     83464.62
  227.64        3340.00           6715       20492.00     89568.60
  227.67        3340.25           6719       22005.00     96200.96
  227.70        3340.50           6722       23302.00    101888.60
  227.73        3340.75           6726       24897.00    108885.60
  227.76        3341.00           6730       25857.00    113098.40
  227.79        3341.25           6733       26139.00    114336.20
  227.81        3341.50           6737       26361.00    115310.60
  227.84        3341.75           6741       26336.00    115200.90
  227.87        3342.00           6745       25454.00    111329.80
  227.90        3342.25           6748       24556.00    107389.50
  227.92        3342.50           6752       23128.00    101125.40
  227.95        3342.75           6756       21675.00     94754.15
  227.98        3343.00           6760       20144.00     88043.49
  228.01        3343.25           6763       18788.00     82102.15
  228.04        3343.50           6767       17373.00     75904.56
  228.06        3343.75           6771       15872.00     69332.81
  228.09        3344.00           6775       14249.00     62229.85
  228.12        3344.25           6778       13193.00     57609.95
  228.15        3344.50           6782       11826.00     51631.36
  228.17        3344.75           6786       10605.00     46293.11
  228.20        3345.00           6790        9097.00     39702.45
  228.23        3345.25           6793        7891.00     34433.55
  228.26        3345.50           6797        6271.00     27358.54
  228.29        3345.75           6801        4594.00     20037.76
  228.32        3346.00           6805        3180.00     13867.58
  228.35        3346.25           6808        2073.00      9038.63
  228.38        3346.50           6812         753.00      3282.36
  228.40        3346.75           6816         155.00       675.25
  228.43        3347.00           6819          76.00       330.87
  228.46        3347.25           6823          59.00       256.76
  228.49        3347.50           6827          59.00       256.76
  228.51        3347.75           6831          54.00       234.96
  228.54        3348.00           6834          52.00       226.24
  228.57        3348.25           6838          37.00       160.86
  228.60        3348.50           6842          48.00       208.81
  228.63        3348.75           6846          45.00       195.73
  228.65        3349.00           6849          41.00       178.29
  228.68        3349.25           6853          43.00       187.01
  228.71        3349.50           6857          41.00       178.29
  228.74        3349.75           6861          46.00       200.09
  228.76        3350.00           6864          43.00       187.01
  228.79        3350.25           6868          45.00       195.73
  228.82        3350.50           6872          45.00       195.73
  228.85        3350.75           6876          37.00       160.86
  228.87        3351.00           6879          49.00       213.17
HL scan finished at 03:50:21
end
