************************************************************
  HL Scan of (1) Internal mercury lamp
************************************************************
Integration time is 0.2294 seconds per sample
dh040417DelftKZ 51.997-4.386 2.535944pr1000
************************************************************
Dead Time -------------------------  3E-08 
Number of Cycles Used -------------  4 
Starting Wavelength (Angstroms) ---  3331 
Final Wavelength (Angstoms) -------  3351 
Wavelength Increment (Angstroms) --  .25 
Filter Wheel #1 Position ---------- (1) Ground quartz diffuser (ND=2.32)
Filter Wheel #2 Position ---------- 



************************************************************
HL scan start time = 03:48:43
Dark Count =  0 


Time (GMT)  Wavelength (Ang)  Step Number  Raw Counts  Counts/Second

  229.47        3331.00           6581          43.00       187.45
  229.88        3331.25           6584          45.00       196.17
  229.90        3331.50           6588          40.00       174.37
  229.93        3331.75           6592          40.00       174.37
  229.96        3332.00           6595          45.00       196.17
  229.99        3332.25           6599          34.00       148.21
  230.02        3332.50           6603          45.00       196.17
  230.04        3332.75           6607          38.00       165.65
  230.07        3333.00           6610          44.00       191.81
  230.10        3333.25           6614          38.00       165.65
  230.13        3333.50           6618          49.00       213.60
  230.16        3333.75           6622          47.00       204.88
  230.19        3334.00           6625          50.00       217.96
  230.21        3334.25           6629          43.00       187.45
  230.24        3334.50           6633          40.00       174.37
  230.28        3334.75           6636          45.00       196.17
  230.31        3335.00           6640          50.00       217.96
  230.33        3335.25           6644          48.00       209.24
  230.36        3335.50           6648          61.00       265.91
  230.39        3335.75           6651          58.00       252.84
  230.42        3336.00           6655          63.00       274.63
  230.44        3336.25           6659         272.00      1185.74
  230.47        3336.50           6663        1182.00      5153.37
  230.50        3336.75           6666        2123.00      9257.15
  230.53        3337.00           6670        3456.00     15072.20
  230.56        3337.25           6674        5112.00     22299.14
  230.58        3337.50           6677        6339.00     27655.90
  230.61        3337.75           6681        7670.00     33468.63
  230.64        3338.00           6685        9047.00     39484.41
  230.67        3338.25           6689       10126.00     44199.81
  230.70        3338.50           6692       11459.00     50027.08
  230.72        3338.75           6696       12955.00     56569.33
  230.75        3339.00           6700       14500.00     63328.57
  230.78        3339.25           6704       15907.00     69486.47
  230.81        3339.50           6707       16799.00     73391.58
  230.83        3339.75           6711       18202.00     79535.68
  230.86        3340.00           6715       19852.00     86764.34
  230.89        3340.25           6719       21568.00     94285.49
  230.92        3340.50           6722       22768.00     99547.06
  230.95        3340.75           6726       23960.00    104775.20
  230.97        3341.00           6730       25279.00    110562.30
  231.00        3341.25           6733       25588.00    111918.30
  231.03        3341.50           6737       25779.00    112756.50
  231.06        3341.75           6741       25736.00    112567.80
  231.08        3342.00           6745       25003.00    109351.20
  231.11        3342.25           6748       24094.00    105363.00
  231.14        3342.50           6752       22492.00     98336.76
  231.17        3342.75           6756       21047.00     92001.62
  231.20        3343.00           6760       19855.00     86777.49
  231.22        3343.25           6763       18734.00     81866.04
  231.25        3343.50           6767       17326.00     75699.19
  231.28        3343.75           6771       15801.00     69022.46
  231.31        3344.00           6775       14448.00     63101.03
  231.33        3344.25           6778       13478.00     58857.10
  231.36        3344.50           6782       12177.00     53166.69
  231.39        3344.75           6786       10382.00     45318.77
  231.42        3345.00           6790        8886.00     38780.92
  231.45        3345.25           6793        7601.00     33167.25
  231.47        3345.50           6797        6165.00     26896.15
  231.50        3345.75           6801        4672.00     20378.63
  231.53        3346.00           6805        3039.00     13252.87
  231.56        3346.25           6808        1945.00      8480.80
  231.59        3346.50           6812         739.00      3221.76
  231.62        3346.75           6816         179.00       780.31
  231.64        3347.00           6819          74.00       322.58
  231.68        3347.25           6823          56.00       244.12
  231.71        3347.50           6827          53.00       231.04
  231.74        3347.75           6831          50.00       217.96
  231.77        3348.00           6834          48.00       209.24
  231.80        3348.25           6838          44.00       191.81
  231.83        3348.50           6842          51.00       222.32
  231.85        3348.75           6846          47.00       204.88
  231.88        3349.00           6849          42.00       183.09
  231.91        3349.25           6853          37.00       161.29
  231.94        3349.50           6857          49.00       213.60
  231.97        3349.75           6861          46.00       200.52
  231.99        3350.00           6864          44.00       191.81
  232.02        3350.25           6868          46.00       200.52
  232.05        3350.50           6872          46.00       200.52
  232.08        3350.75           6876          45.00       196.17
  232.11        3351.00           6879          47.00       204.88
HL scan finished at 03:53:35
end
