************************************************************
  HL Scan of (1) Internal mercury lamp
************************************************************
Integration time is 0.2294 seconds per sample
dh090418Delft 51.9969-4.3863 2.589593pr1000
************************************************************
Dead Time -------------------------  2.7E-08 
Number of Cycles Used -------------  4 
Starting Wavelength (Angstroms) ---  3331 
Final Wavelength (Angstoms) -------  3351 
Wavelength Increment (Angstroms) --  .25 
Filter Wheel #1 Position ---------- (1) Ground quartz diffuser (ND=2.32)
Filter Wheel #2 Position ---------- 



************************************************************
HL scan start time = 03:49:26
Dark Count =  0 


Time (GMT)  Wavelength (Ang)  Step Number  Raw Counts  Counts/Second

  230.20        3331.00           6579          46.00       200.52
  230.61        3331.25           6582          39.00       170.01
  230.64        3331.50           6586          43.00       187.45
  230.67        3331.75           6590          40.00       174.37
  230.70        3332.00           6594          43.00       187.45
  230.73        3332.25           6597          47.00       204.88
  230.76        3332.50           6601          49.00       213.60
  230.79        3332.75           6605          43.00       187.45
  230.82        3333.00           6608          49.00       213.60
  230.85        3333.25           6612          37.00       161.29
  230.88        3333.50           6616          39.00       170.01
  230.91        3333.75           6620          41.00       178.73
  230.94        3334.00           6623          46.00       200.52
  230.96        3334.25           6627          44.00       191.81
  230.99        3334.50           6631          39.00       170.01
  231.02        3334.75           6635          51.00       222.32
  231.05        3335.00           6638          50.00       217.96
  231.08        3335.25           6642          47.00       204.88
  231.11        3335.50           6646          57.00       248.48
  231.14        3335.75           6649          61.00       265.91
  231.17        3336.00           6653          60.00       261.55
  231.21        3336.25           6657          85.00       370.54
  231.23        3336.50           6661         559.00      2436.95
  231.26        3336.75           6664        1645.00      7172.27
  231.29        3337.00           6668        3177.00     13854.35
  231.32        3337.25           6672        4836.00     21093.09
  231.35        3337.50           6676        6654.00     29028.85
  231.38        3337.75           6679        7714.00     33657.43
  231.41        3338.00           6683        9322.00     40681.11
  231.44        3338.25           6687       11026.00     48127.01
  231.47        3338.50           6690       12320.00     53783.37
  231.50        3338.75           6694       13760.00     60079.95
  231.53        3339.00           6698       15340.00     66991.16
  231.56        3339.25           6702       16608.00     72539.50
  231.59        3339.50           6705       18016.00     78702.37
  231.62        3339.75           6709       19823.00     86614.71
  231.65        3340.00           6713       21320.00     93172.19
  231.68        3340.25           6717       22742.00     99403.31
  231.71        3340.50           6720       23833.00    104185.40
  231.74        3340.75           6724       25261.00    110446.60
  231.77        3341.00           6728       26714.00    116819.50
  231.80        3341.25           6732       27693.00    121114.70
  231.83        3341.50           6735       27644.00    120899.70
  231.86        3341.75           6739       27752.00    121373.60
  231.89        3342.00           6743       27451.00    120052.90
  231.92        3342.25           6747       26320.00    115091.20
  231.95        3342.50           6750       24953.00    109096.00
  231.98        3342.75           6754       23227.00    101529.00
  232.01        3343.00           6758       21706.00     94863.41
  232.04        3343.25           6761       20692.00     90421.01
  232.07        3343.50           6765       18862.00     82406.35
  232.10        3343.75           6769       17511.00     76491.73
  232.13        3344.00           6773       16033.00     70023.29
  232.16        3344.25           6776       14996.00     65486.22
  232.19        3344.50           6780       13345.00     58265.09
  232.22        3344.75           6784       11642.00     50819.47
  232.25        3345.00           6788        9897.00     43193.33
  232.28        3345.25           6791        8664.00     37806.66
  232.31        3345.50           6795        7206.00     31439.06
  232.34        3345.75           6799        5795.00     25278.80
  232.37        3346.00           6803        4096.00     17863.89
  232.40        3346.25           6806        2868.00     12506.40
  232.43        3346.50           6810        1475.00      6430.93
  232.46        3346.75           6814         411.00      1791.72
  232.49        3347.00           6818          87.00       379.25
  232.52        3347.25           6821          68.00       296.43
  232.55        3347.50           6825          55.00       239.76
  232.58        3347.75           6829          57.00       248.48
  232.61        3348.00           6833          49.00       213.60
  232.64        3348.25           6836          53.00       231.04
  232.67        3348.50           6840          49.00       213.60
  232.70        3348.75           6844          49.00       213.60
  232.73        3349.00           6848          45.00       196.16
  232.76        3349.25           6851          47.00       204.88
  232.79        3349.50           6855          47.00       204.88
  232.82        3349.75           6859          38.00       165.65
  232.85        3350.00           6863          49.00       213.60
  232.88        3350.25           6866          45.00       196.16
  232.91        3350.50           6870          46.00       200.52
  232.94        3350.75           6874          42.00       183.09
  232.97        3351.00           6878          49.00       213.60
HL scan finished at 03:54:28
end
************************************************************
  HL Scan of (1) Internal mercury lamp
************************************************************
Integration time is 0.2294 seconds per sample
dh090418Delft 51.9969-4.3863 2.750537pr1000
************************************************************
Dead Time -------------------------  2.7E-08 
Number of Cycles Used -------------  4 
Starting Wavelength (Angstroms) ---  3331 
Final Wavelength (Angstoms) -------  3351 
Wavelength Increment (Angstroms) --  .25 
Filter Wheel #1 Position ---------- (1) Ground quartz diffuser (ND=2.32)
Filter Wheel #2 Position ---------- 



************************************************************
HL scan start time = 19:35:15
Dark Count =  .2 


Time (GMT)  Wavelength (Ang)  Step Number  Raw Counts  Counts/Second

 1176.02        3331.00           6579          43.00       186.57
 1176.43        3331.25           6582          41.00       177.86
 1176.46        3331.50           6586          43.00       186.57
 1176.49        3331.75           6590          33.00       142.98
 1176.52        3332.00           6594          43.00       186.57
 1176.55        3332.25           6597          47.00       204.01
 1176.58        3332.50           6601          47.00       204.01
 1176.61        3332.75           6605          44.00       190.93
 1176.64        3333.00           6608          37.00       160.42
 1176.67        3333.25           6612          38.00       164.78
 1176.70        3333.50           6616          45.00       195.29
 1176.73        3333.75           6620          41.00       177.86
 1176.76        3334.00           6623          44.00       190.93
 1176.79        3334.25           6627          48.00       208.37
 1176.82        3334.50           6631          44.00       190.93
 1176.85        3334.75           6635          47.00       204.01
 1176.88        3335.00           6638          49.00       212.73
 1176.91        3335.25           6642          55.00       238.89
 1176.94        3335.50           6646          60.00       260.68
 1176.97        3335.75           6649          56.00       243.24
 1177.00        3336.00           6653          65.00       282.48
 1177.03        3336.25           6657         103.00       448.13
 1177.06        3336.50           6661         751.00      3273.17
 1177.09        3336.75           6664        2059.00      8976.89
 1177.12        3337.00           6668        3619.00     15781.79
 1177.15        3337.25           6672        5053.00     22039.26
 1177.18        3337.50           6676        6945.00     30298.53
 1177.21        3337.75           6679        8112.00     35394.75
 1177.24        3338.00           6683       10098.00     44070.72
 1177.27        3338.25           6687       12071.00     52693.92
 1177.30        3338.50           6690       13384.00     58434.75
 1177.33        3338.75           6694       15232.00     66517.78
 1177.36        3339.00           6698       17044.00     74446.80
 1177.39        3339.25           6702       18906.00     82598.13
 1177.42        3339.50           6705       20161.00     88094.21
 1177.45        3339.75           6709       21733.00     94980.85
 1177.48        3340.00           6713       23287.00    101791.20
 1177.51        3340.25           6717       25061.00    109568.70
 1177.54        3340.50           6720       26376.00    115335.90
 1177.57        3340.75           6724       28124.00    123005.10
 1177.60        3341.00           6728       29468.00    128903.90
 1177.63        3341.25           6732       30648.00    134084.40
 1177.66        3341.50           6735       30843.00    134940.60
 1177.69        3341.75           6739       30923.00    135291.90
 1177.72        3342.00           6743       30364.00    132837.40
 1177.75        3342.25           6747       29254.00    127964.50
 1177.78        3342.50           6750       27661.00    120973.40
 1177.81        3342.75           6754       26107.00    114156.00
 1177.84        3343.00           6758       24272.00    106109.10
 1177.87        3343.25           6761       22960.00    100357.90
 1177.90        3343.50           6765       21164.00     92487.87
 1177.93        3343.75           6769       19471.00     85072.26
 1177.96        3344.00           6773       17577.00     76779.76
 1177.99        3344.25           6776       16187.00     70696.28
 1178.02        3344.50           6780       14694.00     64164.25
 1178.05        3344.75           6784       12956.00     56563.22
 1178.08        3345.00           6788       11196.00     48869.15
 1178.11        3345.25           6791        9912.00     43257.99
 1178.14        3345.50           6795        8052.00     35132.70
 1178.17        3345.75           6799        6178.00     26949.85
 1178.20        3346.00           6803        4319.00     18836.08
 1178.23        3346.25           6806        3100.00     13517.58
 1178.26        3346.50           6810        1585.00      6909.75
 1178.29        3346.75           6814         388.00      1690.57
 1178.32        3347.00           6818         105.00       456.85
 1178.35        3347.25           6821          83.00       360.95
 1178.38        3347.50           6825          62.00       269.40
 1178.41        3347.75           6829          61.00       265.04
 1178.44        3348.00           6833          53.00       230.17
 1178.47        3348.25           6836          49.00       212.73
 1178.50        3348.50           6840          56.00       243.24
 1178.53        3348.75           6844          43.00       186.57
 1178.56        3349.00           6848          48.00       208.37
 1178.59        3349.25           6851          54.00       234.53
 1178.62        3349.50           6855          48.00       208.37
 1178.65        3349.75           6859          43.00       186.57
 1178.68        3350.00           6863          42.00       182.22
 1178.71        3350.25           6866          50.00       217.09
 1178.74        3350.50           6870          44.00       190.93
 1178.76        3350.75           6874          44.00       190.93
 1178.79        3351.00           6878          47.00       204.01
HL scan finished at 19:40:17
end
