************************************************************
  HL Scan of (1) Internal mercury lamp
************************************************************
Integration time is 0.2294 seconds per sample
dh050418Delft 51.9969-4.3863 2.375pr1000
************************************************************
Dead Time -------------------------  2.7E-08 
Number of Cycles Used -------------  4 
Starting Wavelength (Angstroms) ---  3331 
Final Wavelength (Angstoms) -------  3351 
Wavelength Increment (Angstroms) --  .25 
Filter Wheel #1 Position ---------- (1) Ground quartz diffuser (ND=2.32)
Filter Wheel #2 Position ---------- 



************************************************************
HL scan start time = 19:32:50
Dark Count =  .2 


Time (GMT)  Wavelength (Ang)  Step Number  Raw Counts  Counts/Second

 1173.60        3331.00           6579          36.00       156.06
 1174.01        3331.25           6582          48.00       208.37
 1174.03        3331.50           6586          39.00       169.14
 1174.06        3331.75           6590          47.00       204.01
 1174.09        3332.00           6594          36.00       156.06
 1174.12        3332.25           6597          43.00       186.57
 1174.15        3332.50           6601          42.00       182.22
 1174.18        3332.75           6605          40.00       173.50
 1174.21        3333.00           6608          46.00       199.65
 1174.24        3333.25           6612          47.00       204.01
 1174.27        3333.50           6616          41.00       177.86
 1174.30        3333.75           6620          46.00       199.65
 1174.33        3334.00           6623          44.00       190.93
 1174.36        3334.25           6627          36.00       156.06
 1174.39        3334.50           6631          45.00       195.29
 1174.42        3334.75           6635          43.00       186.57
 1174.45        3335.00           6638          44.00       190.93
 1174.48        3335.25           6642          46.00       199.65
 1174.51        3335.50           6646          48.00       208.37
 1174.54        3335.75           6649          46.00       199.65
 1174.57        3336.00           6653          58.00       251.96
 1174.60        3336.25           6657          99.00       430.69
 1174.63        3336.50           6661         732.00      3190.34
 1174.66        3336.75           6664        1601.00      6979.52
 1174.69        3337.00           6668        2868.00     12505.53
 1174.71        3337.25           6672        4274.00     18639.72
 1174.74        3337.50           6676        5385.00     23488.30
 1174.77        3337.75           6679        6307.00     27513.02
 1174.80        3338.00           6683        7414.00     32346.46
 1174.83        3338.25           6687        8729.00     38089.72
 1174.86        3338.50           6690        9756.00     42576.39
 1174.89        3338.75           6694       11279.00     49231.92
 1174.92        3339.00           6698       12537.00     54731.21
 1174.95        3339.25           6702       13837.00     60415.83
 1174.98        3339.50           6705       14686.00     64129.25
 1175.01        3339.75           6709       16122.00     70411.85
 1175.04        3340.00           6713       17309.00     75606.68
 1175.07        3340.25           6717       18432.00     80522.75
 1175.10        3340.50           6720       19389.00     84713.16
 1175.13        3340.75           6724       20636.00     90174.83
 1175.16        3341.00           6728       21870.00     95581.13
 1175.19        3341.25           6732       22680.00     99130.71
 1175.22        3341.50           6735       22968.00    100393.00
 1175.25        3341.75           6739       22837.00     99818.81
 1175.28        3342.00           6743       22491.00     98302.41
 1175.31        3342.25           6747       21227.00     92763.88
 1175.34        3342.50           6750       20427.00     89259.33
 1175.37        3342.75           6754       19211.00     83933.69
 1175.40        3343.00           6758       18055.00     78872.24
 1175.43        3343.25           6761       17054.00     74490.57
 1175.46        3343.50           6765       15827.00     69121.03
 1175.49        3343.75           6769       14298.00     62432.09
 1175.52        3344.00           6773       12996.00     56738.12
 1175.55        3344.25           6776       12201.00     53262.24
 1175.57        3344.50           6780       10807.00     47169.01
 1175.60        3344.75           6784        9592.00     41859.84
 1175.63        3345.00           6788        8195.00     35757.26
 1175.66        3345.25           6791        7306.00     31874.85
 1175.69        3345.50           6795        6131.00     26744.68
 1175.72        3345.75           6799        4812.00     20987.48
 1175.75        3346.00           6803        3324.00     14494.78
 1175.78        3346.25           6806        2269.00      9892.79
 1175.81        3346.50           6810         976.00      4254.19
 1175.84        3346.75           6814         211.00       918.94
 1175.87        3347.00           6818          74.00       321.71
 1175.90        3347.25           6821          63.00       273.76
 1175.93        3347.50           6825          56.00       243.24
 1175.96        3347.75           6829          51.00       221.45
 1175.99        3348.00           6833          53.00       230.17
 1176.02        3348.25           6836          42.00       182.22
 1176.05        3348.50           6840          51.00       221.45
 1176.08        3348.75           6844          47.00       204.01
 1176.11        3349.00           6848          46.00       199.65
 1176.14        3349.25           6851          46.00       199.65
 1176.17        3349.50           6855          37.00       160.42
 1176.20        3349.75           6859          37.00       160.42
 1176.22        3350.00           6863          38.00       164.78
 1176.25        3350.25           6866          46.00       199.65
 1176.28        3350.50           6870          37.00       160.42
 1176.31        3350.75           6874          38.00       164.78
 1176.34        3351.00           6878          44.00       190.93
HL scan finished at 19:37:50
end
