************************************************************
  HL Scan of (1) Internal mercury lamp
************************************************************
Integration time is 0.2294 seconds per sample
dh060418Delft 51.9969-4.3863 2.214056pr1000
************************************************************
Dead Time -------------------------  2.7E-08 
Number of Cycles Used -------------  4 
Starting Wavelength (Angstroms) ---  3331 
Final Wavelength (Angstoms) -------  3351 
Wavelength Increment (Angstroms) --  .25 
Filter Wheel #1 Position ---------- (1) Ground quartz diffuser (ND=2.32)
Filter Wheel #2 Position ---------- 



************************************************************
HL scan start time = 00:33:16
Dark Count =  0 


Time (GMT)  Wavelength (Ang)  Step Number  Raw Counts  Counts/Second

   34.02        3331.00           6579          44.00       191.81
   34.43        3331.25           6582          42.00       183.09
   34.46        3331.50           6586          44.00       191.81
   34.49        3331.75           6590          43.00       187.45
   34.52        3332.00           6594          44.00       191.81
   34.55        3332.25           6597          43.00       187.45
   34.58        3332.50           6601          46.00       200.52
   34.61        3332.75           6605          45.00       196.16
   34.64        3333.00           6608          45.00       196.16
   34.67        3333.25           6612          40.00       174.37
   34.70        3333.50           6616          46.00       200.52
   34.73        3333.75           6620          49.00       213.60
   34.76        3334.00           6623          42.00       183.09
   34.79        3334.25           6627          42.00       183.09
   34.82        3334.50           6631          43.00       187.45
   34.85        3334.75           6635          44.00       191.81
   34.88        3335.00           6638          46.00       200.52
   34.91        3335.25           6642          56.00       244.12
   34.94        3335.50           6646          52.00       226.68
   34.97        3335.75           6649          56.00       244.12
   35.00        3336.00           6653          60.00       261.55
   35.03        3336.25           6657         109.00       475.16
   35.06        3336.50           6661         654.00      2851.14
   35.09        3336.75           6664        1486.00      6478.90
   35.12        3337.00           6668        2746.00     11974.23
   35.15        3337.25           6672        4380.00     19103.14
   35.17        3337.50           6676        5791.00     25261.34
   35.21        3337.75           6679        7010.00     30583.22
   35.24        3338.00           6683        8361.00     36483.17
   35.26        3338.25           6687        9813.00     42826.30
   35.29        3338.50           6690       11055.00     48253.76
   35.32        3338.75           6694       12724.00     55549.69
   35.36        3339.00           6698       13886.00     60631.00
   35.38        3339.25           6702       15279.00     66724.28
   35.41        3339.50           6705       16425.00     71738.65
   35.44        3339.75           6709       17842.00     77940.66
   35.47        3340.00           6713       19662.00     85909.59
   35.50        3340.25           6717       20892.00     91297.14
   35.53        3340.50           6720       21881.00     95630.22
   35.56        3340.75           6724       23234.00    101559.70
   35.59        3341.00           6728       24742.00    108170.80
   35.62        3341.25           6732       25744.00    112564.80
   35.65        3341.50           6735       25652.00    112161.30
   35.68        3341.75           6739       25802.00    112819.20
   35.71        3342.00           6743       25445.00    111253.50
   35.74        3342.25           6747       23986.00    104856.20
   35.77        3342.50           6750       23154.00    101209.10
   35.80        3342.75           6754       21710.00     94880.94
   35.83        3343.00           6758       20180.00     88178.31
   35.86        3343.25           6761       19198.00     83877.63
   35.89        3343.50           6765       17709.00     77358.45
   35.92        3343.75           6769       16248.00     70964.09
   35.95        3344.00           6773       15038.00     65669.96
   35.98        3344.25           6776       14045.00     61326.40
   36.01        3344.50           6780       12416.00     54203.07
   36.04        3344.75           6784       10856.00     47384.04
   36.07        3345.00           6788        9211.00     40196.18
   36.10        3345.25           6791        8002.00     34915.20
   36.13        3345.50           6795        6493.00     28325.93
   36.16        3345.75           6799        5221.00     22773.37
   36.19        3346.00           6803        3647.00     15904.82
   36.22        3346.25           6806        2511.00     10949.18
   36.25        3346.50           6810        1351.00      5890.21
   36.28        3346.75           6814         346.00      1508.34
   36.31        3347.00           6818          80.00       348.74
   36.34        3347.25           6821          67.00       292.07
   36.37        3347.50           6825          49.00       213.60
   36.40        3347.75           6829          47.00       204.88
   36.43        3348.00           6833          50.00       217.96
   36.46        3348.25           6836          49.00       213.60
   36.49        3348.50           6840          47.00       204.88
   36.52        3348.75           6844          48.00       209.24
   36.55        3349.00           6848          46.00       200.52
   36.58        3349.25           6851          46.00       200.52
   36.61        3349.50           6855          46.00       200.52
   36.64        3349.75           6859          50.00       217.96
   36.66        3350.00           6863          46.00       200.52
   36.70        3350.25           6866          45.00       196.16
   36.72        3350.50           6870          40.00       174.37
   36.75        3350.75           6874          38.00       165.65
   36.78        3351.00           6878          41.00       178.73
HL scan finished at 00:38:17
end
************************************************************
  HL Scan of (1) Internal mercury lamp
************************************************************
Integration time is 0.2294 seconds per sample
dh060418Delft 51.9969-4.3863 2.214056pr1000
************************************************************
Dead Time -------------------------  2.7E-08 
Number of Cycles Used -------------  4 
Starting Wavelength (Angstroms) ---  3331 
Final Wavelength (Angstoms) -------  3351 
Wavelength Increment (Angstroms) --  .25 
Filter Wheel #1 Position ---------- (1) Ground quartz diffuser (ND=2.32)
Filter Wheel #2 Position ---------- 



************************************************************
HL scan start time = 03:59:07
Dark Count =  0 


Time (GMT)  Wavelength (Ang)  Step Number  Raw Counts  Counts/Second

  239.88        3331.00           6579          35.00       152.57
  240.29        3331.25           6582          38.00       165.65
  240.32        3331.50           6586          42.00       183.09
  240.35        3331.75           6590          43.00       187.45
  240.38        3332.00           6594          42.00       183.09
  240.41        3332.25           6597          38.00       165.65
  240.44        3332.50           6601          38.00       165.65
  240.47        3332.75           6605          35.00       152.57
  240.50        3333.00           6608          38.00       165.65
  240.53        3333.25           6612          36.00       156.93
  240.56        3333.50           6616          45.00       196.16
  240.59        3333.75           6620          42.00       183.09
  240.62        3334.00           6623          37.00       161.29
  240.65        3334.25           6627          33.00       143.85
  240.68        3334.50           6631          40.00       174.37
  240.71        3334.75           6635          41.00       178.73
  240.74        3335.00           6638          41.00       178.73
  240.77        3335.25           6642          38.00       165.65
  240.80        3335.50           6646          43.00       187.45
  240.83        3335.75           6649          48.00       209.24
  240.86        3336.00           6653          53.00       231.04
  240.89        3336.25           6657         121.00       527.47
  240.92        3336.50           6661         805.00      3509.49
  240.95        3336.75           6664        1561.00      6805.96
  240.98        3337.00           6668        2522.00     10997.16
  241.01        3337.25           6672        3605.00     15721.58
  241.04        3337.50           6676        4809.00     20975.26
  241.07        3337.75           6679        5608.00     24462.53
  241.10        3338.00           6683        6646.00     28993.92
  241.13        3338.25           6687        7774.00     33919.46
  241.16        3338.50           6690        8631.00     37662.52
  241.19        3338.75           6694        9736.00     42489.87
  241.22        3339.00           6698       11060.00     48275.62
  241.25        3339.25           6702       12083.00     52747.26
  241.28        3339.50           6705       13009.00     56795.84
  241.31        3339.75           6709       14139.00     61737.53
  241.34        3340.00           6713       15303.00     66829.28
  241.37        3340.25           6717       16237.00     70915.96
  241.40        3340.50           6720       16924.00     73922.47
  241.43        3340.75           6724       17969.00     78496.63
  241.46        3341.00           6728       18925.00     82682.20
  241.49        3341.25           6732       19535.00     85353.40
  241.52        3341.50           6735       19629.00     85765.07
  241.55        3341.75           6739       19702.00     86084.78
  241.57        3342.00           6743       19208.00     83921.41
  241.61        3342.25           6747       18390.00     80339.73
  241.64        3342.50           6750       17429.00     76132.80
  241.67        3342.75           6754       16224.00     70859.06
  241.70        3343.00           6758       15369.00     67118.04
  241.72        3343.25           6761       14563.00     63592.09
  241.76        3343.50           6765       13500.00     58942.90
  241.79        3343.75           6769       12218.00     53337.44
  241.82        3344.00           6773       11159.00     48708.30
  241.85        3344.25           6776       10152.00     44307.55
  241.88        3344.50           6780        9124.00     39816.11
  241.91        3344.75           6784        7885.00     34404.22
  241.93        3345.00           6788        6746.00     29430.53
  241.96        3345.25           6791        5870.00     25606.19
  241.99        3345.50           6795        4850.00     21154.19
  242.03        3345.75           6799        3842.00     16755.62
  242.05        3346.00           6803        2683.00     11699.42
  242.09        3346.25           6806        1869.00      8149.13
  242.11        3346.50           6810         734.00      3199.93
  242.15        3346.75           6814         176.00       767.23
  242.17        3347.00           6818          65.00       283.35
  242.20        3347.25           6821          48.00       209.24
  242.23        3347.50           6825          44.00       191.81
  242.26        3347.75           6829          49.00       213.60
  242.29        3348.00           6833          44.00       191.81
  242.32        3348.25           6836          42.00       183.09
  242.35        3348.50           6840          37.00       161.29
  242.38        3348.75           6844          41.00       178.73
  242.41        3349.00           6848          41.00       178.73
  242.44        3349.25           6851          34.00       148.21
  242.47        3349.50           6855          40.00       174.37
  242.50        3349.75           6859          42.00       183.09
  242.53        3350.00           6863          46.00       200.52
  242.56        3350.25           6866          43.00       187.45
  242.59        3350.50           6870          41.00       178.73
  242.62        3350.75           6874          39.00       170.01
  242.65        3351.00           6878          37.00       161.29
HL scan finished at 04:04:08
end
************************************************************
  HL Scan of (1) Internal mercury lamp
************************************************************
Integration time is 0.2294 seconds per sample
dh060418Delft 51.9969-4.3863 2.750537pr1000
************************************************************
Dead Time -------------------------  2.7E-08 
Number of Cycles Used -------------  4 
Starting Wavelength (Angstroms) ---  3331 
Final Wavelength (Angstoms) -------  3351 
Wavelength Increment (Angstroms) --  .25 
Filter Wheel #1 Position ---------- (1) Ground quartz diffuser (ND=2.32)
Filter Wheel #2 Position ---------- 



************************************************************
HL scan start time = 19:29:13
Dark Count =  .1 


Time (GMT)  Wavelength (Ang)  Step Number  Raw Counts  Counts/Second

 1169.99        3331.00           6579          49.00       213.17
 1170.40        3331.25           6582          42.00       182.65
 1170.43        3331.50           6586          45.00       195.73
 1170.46        3331.75           6590          45.00       195.73
 1170.49        3332.00           6594          46.00       200.09
 1170.52        3332.25           6597          40.00       173.93
 1170.55        3332.50           6601          49.00       213.17
 1170.58        3332.75           6605          47.00       204.45
 1170.61        3333.00           6608          45.00       195.73
 1170.64        3333.25           6612          45.00       195.73
 1170.67        3333.50           6616          45.00       195.73
 1170.70        3333.75           6620          40.00       173.93
 1170.73        3334.00           6623          47.00       204.45
 1170.76        3334.25           6627          41.00       178.29
 1170.79        3334.50           6631          41.00       178.29
 1170.82        3334.75           6635          48.00       208.81
 1170.85        3335.00           6638          53.00       230.60
 1170.88        3335.25           6642          48.00       208.81
 1170.91        3335.50           6646          59.00       256.76
 1170.94        3335.75           6649          58.00       252.40
 1170.97        3336.00           6653          61.00       265.48
 1171.00        3336.25           6657          97.00       422.41
 1171.02        3336.50           6661         733.00      3195.13
 1171.06        3336.75           6664        1775.00      7738.76
 1171.09        3337.00           6668        3500.00     15263.05
 1171.12        3337.25           6672        5388.00     23501.83
 1171.15        3337.50           6676        6987.00     30482.36
 1171.18        3337.75           6679        8254.00     36015.39
 1171.21        3338.00           6683        9902.00     43214.74
 1171.24        3338.25           6687       11850.00     51728.26
 1171.27        3338.50           6690       13211.00     57678.69
 1171.30        3338.75           6694       14762.00     64462.15
 1171.33        3339.00           6698       16568.00     72364.01
 1171.36        3339.25           6702       18372.00     80260.49
 1171.39        3339.50           6705       19706.00     86101.85
 1171.42        3339.75           6709       21463.00     93798.28
 1171.45        3340.00           6713       23618.00    103242.50
 1171.48        3340.25           6717       25121.00    109832.20
 1171.51        3340.50           6720       26456.00    115687.30
 1171.54        3340.75           6724       28145.00    123097.70
 1171.57        3341.00           6728       29771.00    130234.40
 1171.60        3341.25           6732       30579.00    133781.90
 1171.63        3341.50           6735       30972.00    135507.50
 1171.66        3341.75           6739       30956.00    135437.30
 1171.69        3342.00           6743       30613.00    133931.10
 1171.72        3342.25           6747       29084.00    127218.70
 1171.75        3342.50           6750       27977.00    122360.40
 1171.78        3342.75           6754       26099.00    114121.40
 1171.81        3343.00           6758       24550.00    107328.50
 1171.84        3343.25           6761       23230.00    101541.70
 1171.87        3343.50           6765       21507.00     93991.06
 1171.90        3343.75           6769       19800.00     86513.54
 1171.93        3344.00           6773       18270.00     79813.93
 1171.96        3344.25           6776       16988.00     74202.13
 1171.99        3344.50           6780       15105.00     65962.63
 1172.02        3344.75           6784       13399.00     58500.79
 1172.05        3345.00           6788       11184.00     48817.14
 1172.08        3345.25           6791        9913.00     43262.80
 1172.11        3345.50           6795        8214.00     35840.69
 1172.14        3345.75           6799        6351.00     27705.55
 1172.17        3346.00           6803        4450.00     19408.16
 1172.20        3346.25           6806        3267.00     14246.54
 1172.23        3346.50           6810        1769.00      7712.59
 1172.26        3346.75           6814         456.00      1987.47
 1172.29        3347.00           6818         120.00       522.68
 1172.32        3347.25           6821          66.00       287.27
 1172.35        3347.50           6825          61.00       265.48
 1172.38        3347.75           6829          62.00       269.84
 1172.41        3348.00           6833          56.00       243.68
 1172.44        3348.25           6836          55.00       239.32
 1172.47        3348.50           6840          47.00       204.45
 1172.50        3348.75           6844          43.00       187.01
 1172.53        3349.00           6848          46.00       200.09
 1172.55        3349.25           6851          45.00       195.73
 1172.59        3349.50           6855          41.00       178.29
 1172.61        3349.75           6859          49.00       213.17
 1172.65        3350.00           6863          47.00       204.45
 1172.68        3350.25           6866          44.00       191.37
 1172.71        3350.50           6870          44.00       191.37
 1172.73        3350.75           6874          48.00       208.81
 1172.77        3351.00           6878          50.00       217.53
HL scan finished at 19:34:15
end
