************************************************************
  HL Scan of (1) Internal mercury lamp
************************************************************
Integration time is 0.2294 seconds per sample
dh120418Delft 51.9969-4.3863 2.535944pr1000
************************************************************
Dead Time -------------------------  2.7E-08 
Number of Cycles Used -------------  4 
Starting Wavelength (Angstroms) ---  3331 
Final Wavelength (Angstoms) -------  3351 
Wavelength Increment (Angstroms) --  .25 
Filter Wheel #1 Position ---------- (1) Ground quartz diffuser (ND=2.32)
Filter Wheel #2 Position ---------- 



************************************************************
HL scan start time = 03:39:32
Dark Count =  0 


Time (GMT)  Wavelength (Ang)  Step Number  Raw Counts  Counts/Second

  220.30        3331.00           6579          45.00       196.16
  220.71        3331.25           6582          31.00       135.14
  220.74        3331.50           6586          43.00       187.45
  220.77        3331.75           6590          36.00       156.93
  220.80        3332.00           6594          38.00       165.65
  220.83        3332.25           6597          41.00       178.73
  220.86        3332.50           6601          40.00       174.37
  220.89        3332.75           6605          34.00       148.21
  220.92        3333.00           6608          37.00       161.29
  220.95        3333.25           6612          43.00       187.45
  220.98        3333.50           6616          36.00       156.93
  221.01        3333.75           6620          43.00       187.45
  221.04        3334.00           6623          47.00       204.88
  221.07        3334.25           6627          41.00       178.73
  221.10        3334.50           6631          42.00       183.09
  221.13        3334.75           6635          47.00       204.88
  221.16        3335.00           6638          51.00       222.32
  221.19        3335.25           6642          52.00       226.68
  221.22        3335.50           6646          54.00       235.40
  221.25        3335.75           6649          54.00       235.40
  221.28        3336.00           6653          69.00       300.79
  221.31        3336.25           6657          97.00       422.85
  221.34        3336.50           6661         816.00      3557.45
  221.37        3336.75           6664        1904.00      8301.77
  221.40        3337.00           6668        3296.00     14373.49
  221.43        3337.25           6672        4577.00     19962.81
  221.46        3337.50           6676        6043.00     26361.39
  221.49        3337.75           6679        7279.00     31757.82
  221.52        3338.00           6683        8752.00     38191.06
  221.55        3338.25           6687       10335.00     45107.22
  221.58        3338.50           6690       11434.00     49910.28
  221.61        3338.75           6694       13152.00     57421.13
  221.64        3339.00           6698       14699.00     64186.99
  221.67        3339.25           6702       16379.00     71537.35
  221.70        3339.50           6705       17456.00     76250.99
  221.73        3339.75           6709       18878.00     82476.40
  221.76        3340.00           6713       20576.00     89912.87
  221.79        3340.25           6717       21854.00     95511.91
  221.82        3340.50           6720       23006.00    100560.40
  221.85        3340.75           6724       24514.00    107171.10
  221.88        3341.00           6728       25602.00    111942.00
  221.91        3341.25           6732       26729.00    116885.30
  221.94        3341.50           6735       26975.00    117964.50
  221.97        3341.75           6739       26916.00    117705.70
  222.00        3342.00           6743       26681.00    116674.70
  222.03        3342.25           6747       25295.00    110595.70
  222.06        3342.50           6750       24324.00    106338.00
  222.09        3342.75           6754       22621.00     98873.02
  222.12        3343.00           6758       21221.00     92738.46
  222.15        3343.25           6761       20335.00     88857.22
  222.19        3343.50           6765       18915.00     82638.41
  222.22        3343.75           6769       17112.00     74745.28
  222.25        3344.00           6773       15791.00     68964.38
  222.28        3344.25           6776       14493.00     63285.90
  222.31        3344.50           6780       12896.00     56301.74
  222.34        3344.75           6784       11378.00     49665.51
  222.37        3345.00           6788        9659.00     42153.44
  222.40        3345.25           6791        8426.00     36767.09
  222.43        3345.50           6795        6853.00     29897.71
  222.46        3345.75           6799        5579.00     24335.95
  222.49        3346.00           6803        4060.00     17706.81
  222.52        3346.25           6806        2992.00     13047.32
  222.55        3346.50           6810        1584.00      6906.26
  222.58        3346.75           6814         357.00      1556.30
  222.61        3347.00           6818          93.00       405.41
  222.64        3347.25           6821          65.00       283.35
  222.67        3347.50           6825          58.00       252.84
  222.70        3347.75           6829          51.00       222.32
  222.73        3348.00           6833          51.00       222.32
  222.76        3348.25           6836          46.00       200.52
  222.79        3348.50           6840          45.00       196.16
  222.82        3348.75           6844          39.00       170.01
  222.85        3349.00           6848          46.00       200.52
  222.88        3349.25           6851          45.00       196.16
  222.91        3349.50           6855          39.00       170.01
  222.94        3349.75           6859          42.00       183.09
  222.97        3350.00           6863          39.00       170.01
  223.00        3350.25           6866          39.00       170.01
  223.03        3350.50           6870          43.00       187.45
  223.06        3350.75           6874          48.00       209.24
  223.09        3351.00           6878          42.00       183.09
HL scan finished at 03:44:35
end
************************************************************
  HL Scan of (1) Internal mercury lamp
************************************************************
Integration time is 0.2294 seconds per sample
dh120418Delft 51.9969-4.3863 2.750537pr1000
************************************************************
Dead Time -------------------------  2.7E-08 
Number of Cycles Used -------------  4 
Starting Wavelength (Angstroms) ---  3331 
Final Wavelength (Angstoms) -------  3351 
Wavelength Increment (Angstroms) --  .25 
Filter Wheel #1 Position ---------- (1) Ground quartz diffuser (ND=2.32)
Filter Wheel #2 Position ---------- 



************************************************************
HL scan start time = 19:48:39
Dark Count =  .1 


Time (GMT)  Wavelength (Ang)  Step Number  Raw Counts  Counts/Second

 1189.42        3331.00           6579          41.00       178.29
 1189.83        3331.25           6582          43.00       187.01
 1189.86        3331.50           6586          51.00       221.88
 1189.89        3331.75           6590          41.00       178.29
 1189.92        3332.00           6594          42.00       182.65
 1189.95        3332.25           6597          42.00       182.65
 1189.98        3332.50           6601          44.00       191.37
 1190.01        3332.75           6605          46.00       200.09
 1190.04        3333.00           6608          44.00       191.37
 1190.07        3333.25           6612          41.00       178.29
 1190.10        3333.50           6616          48.00       208.81
 1190.13        3333.75           6620          42.00       182.65
 1190.16        3334.00           6623          47.00       204.45
 1190.19        3334.25           6627          47.00       204.45
 1190.22        3334.50           6631          42.00       182.65
 1190.25        3334.75           6635          39.00       169.57
 1190.28        3335.00           6638          47.00       204.45
 1190.31        3335.25           6642          55.00       239.32
 1190.34        3335.50           6646          58.00       252.40
 1190.37        3335.75           6649          55.00       239.32
 1190.40        3336.00           6653          68.00       295.99
 1190.43        3336.25           6657         147.00       640.38
 1190.46        3336.50           6661        1006.00      4385.44
 1190.49        3336.75           6664        2173.00      9474.52
 1190.52        3337.00           6668        3720.00     16222.89
 1190.55        3337.25           6672        5682.00     24785.11
 1190.58        3337.50           6676        7456.00     32530.30
 1190.61        3337.75           6679        8588.00     37474.26
 1190.64        3338.00           6683       10489.00     45779.75
 1190.67        3338.25           6687       12562.00     54840.96
 1190.70        3338.50           6690       13959.00     60949.83
 1190.73        3338.75           6694       16010.00     69922.21
 1190.76        3339.00           6698       17817.00     77830.79
 1190.79        3339.25           6702       19557.00     85449.31
 1190.82        3339.50           6705       21045.00     91966.98
 1190.85        3339.75           6709       22860.00     99920.05
 1190.88        3340.00           6713       24592.00    107512.60
 1190.91        3340.25           6717       26065.00    113972.30
 1190.94        3340.50           6720       27318.00    119468.90
 1190.97        3340.75           6724       29114.00    127350.40
 1191.00        3341.00           6728       30803.00    134765.40
 1191.04        3341.25           6732       32071.00    140334.10
 1191.07        3341.50           6735       31972.00    139899.30
 1191.10        3341.75           6739       32205.00    140922.70
 1191.13        3342.00           6743       31508.00    137861.40
 1191.16        3342.25           6747       30023.00    131340.70
 1191.19        3342.50           6750       28757.00    125783.50
 1191.22        3342.75           6754       26947.00    117841.20
 1191.25        3343.00           6758       25587.00    111875.80
 1191.28        3343.25           6761       24145.00    105552.80
 1191.31        3343.50           6765       22235.00     97181.00
 1191.34        3343.75           6769       20277.00     88602.74
 1191.37        3344.00           6773       18423.00     80483.78
 1191.40        3344.25           6776       17005.00     74276.54
 1191.43        3344.50           6780       15271.00     66688.85
 1191.46        3344.75           6784       13198.00     57621.84
 1191.49        3345.00           6788       11281.00     49241.10
 1191.52        3345.25           6791       10032.00     43782.77
 1191.55        3345.50           6795        8415.00     36718.61
 1191.58        3345.75           6799        6656.00     29037.14
 1191.61        3346.00           6803        4743.00     20686.79
 1191.64        3346.25           6806        3212.00     14006.60
 1191.67        3346.50           6810        1418.00      6181.94
 1191.70        3346.75           6814         343.00      1494.83
 1191.73        3347.00           6818         107.00       466.00
 1191.76        3347.25           6821          69.00       300.35
 1191.79        3347.50           6825          67.00       291.63
 1191.82        3347.75           6829          60.00       261.12
 1191.85        3348.00           6833          62.00       269.84
 1191.88        3348.25           6836          48.00       208.81
 1191.91        3348.50           6840          48.00       208.81
 1191.94        3348.75           6844          40.00       173.93
 1191.97        3349.00           6848          43.00       187.01
 1192.00        3349.25           6851          49.00       213.17
 1192.03        3349.50           6855          46.00       200.09
 1192.06        3349.75           6859          46.00       200.09
 1192.09        3350.00           6863          48.00       208.81
 1192.12        3350.25           6866          42.00       182.65
 1192.15        3350.50           6870          52.00       226.24
 1192.18        3350.75           6874          49.00       213.17
 1192.21        3351.00           6878          44.00       191.37
HL scan finished at 19:53:42
end
