************************************************************
  HL Scan of (1) Internal mercury lamp
************************************************************
Integration time is 0.2294 seconds per sample
dh190417DelftKZ 51.997-4.386 2.214056pr1000
************************************************************
Dead Time -------------------------  3E-08 
Number of Cycles Used -------------  4 
Starting Wavelength (Angstroms) ---  3331 
Final Wavelength (Angstoms) -------  3351 
Wavelength Increment (Angstroms) --  .25 
Filter Wheel #1 Position ---------- (1) Ground quartz diffuser (ND=2.32)
Filter Wheel #2 Position ---------- 



************************************************************
HL scan start time = 02:58:15
Dark Count =  .1 


Time (GMT)  Wavelength (Ang)  Step Number  Raw Counts  Counts/Second

  179.01        3331.00           6581          36.00       156.50
  179.42        3331.25           6584          36.00       156.50
  179.45        3331.50           6588          40.00       173.93
  179.48        3331.75           6592          35.00       152.14
  179.50        3332.00           6595          37.00       160.86
  179.53        3332.25           6599          37.00       160.86
  179.56        3332.50           6603          40.00       173.93
  179.59        3332.75           6607          41.00       178.29
  179.62        3333.00           6610          39.00       169.57
  179.64        3333.25           6614          31.00       134.70
  179.67        3333.50           6618          35.00       152.14
  179.70        3333.75           6622          46.00       200.09
  179.73        3334.00           6625          37.00       160.86
  179.75        3334.25           6629          39.00       169.57
  179.78        3334.50           6633          42.00       182.65
  179.81        3334.75           6636          45.00       195.73
  179.84        3335.00           6640          42.00       182.65
  179.86        3335.25           6644          40.00       173.93
  179.89        3335.50           6648          52.00       226.24
  179.92        3335.75           6651          52.00       226.24
  179.95        3336.00           6655          60.00       261.12
  179.97        3336.25           6659         289.00      1259.42
  180.00        3336.50           6663        1030.00      4490.14
  180.03        3336.75           6666        1748.00      7621.18
  180.06        3337.00           6670        2918.00     12724.56
  180.09        3337.25           6674        3920.00     17096.39
  180.13        3337.50           6677        4634.00     20212.34
  180.15        3337.75           6681        5621.00     24520.65
  180.18        3338.00           6685        6615.00     28860.64
  180.21        3338.25           6689        7649.00     33376.47
  180.24        3338.50           6692        8594.00     37504.69
  180.26        3338.75           6696        9762.00     42608.49
  180.29        3339.00           6700       10745.00     46905.10
  180.32        3339.25           6704       11876.00     51849.99
  180.35        3339.50           6707       12690.00     55409.82
  180.38        3339.75           6711       13759.00     60085.99
  180.40        3340.00           6715       14832.00     64780.97
  180.43        3340.25           6719       15648.00     68352.31
  180.46        3340.50           6722       16478.00     71985.72
  180.49        3340.75           6726       17545.00     76657.79
  180.51        3341.00           6730       18213.00     79583.43
  180.54        3341.25           6733       18310.00     80008.30
  180.57        3341.50           6737       18531.00     80976.35
  180.61        3341.75           6741       18397.00     80389.38
  180.63        3342.00           6745       17705.00     77358.50
  180.66        3342.25           6748       16826.00     73509.36
  180.69        3342.50           6752       16053.00     70125.15
  180.72        3342.75           6756       15054.00     65752.50
  180.75        3343.00           6760       13907.00     60733.49
  180.77        3343.25           6763       13123.00     57303.75
  180.80        3343.50           6767       11999.00     52387.85
  180.83        3343.75           6771       10826.00     47259.20
  180.86        3344.00           6775        9949.00     43425.77
  180.88        3344.25           6778        9082.00     39636.91
  180.91        3344.50           6782        8075.00     35237.31
  180.94        3344.75           6786        7030.00     30672.94
  180.97        3345.00           6790        6037.00     26336.85
  180.99        3345.25           6793        5278.00     23023.31
  181.02        3345.50           6797        4241.00     18497.18
  181.05        3345.75           6801        3126.00     13631.99
  181.08        3346.00           6805        1964.00      8563.23
  181.11        3346.25           6808        1202.00      5240.14
  181.13        3346.50           6812         316.00      1377.13
  181.16        3346.75           6816          83.00       361.38
  181.19        3347.00           6819          51.00       221.88
  181.23        3347.25           6823          52.00       226.24
  181.26        3347.50           6827          42.00       182.65
  181.29        3347.75           6831          44.00       191.37
  181.31        3348.00           6834          44.00       191.37
  181.34        3348.25           6838          41.00       178.29
  181.37        3348.50           6842          44.00       191.37
  181.40        3348.75           6846          33.00       143.42
  181.43        3349.00           6849          40.00       173.93
  181.46        3349.25           6853          40.00       173.93
  181.49        3349.50           6857          39.00       169.57
  181.52        3349.75           6861          35.00       152.14
  181.55        3350.00           6864          33.00       143.42
  181.58        3350.25           6868          40.00       173.93
  181.61        3350.50           6872          41.00       178.29
  181.63        3350.75           6876          37.00       160.86
  181.66        3351.00           6879          40.00       173.93
HL scan finished at 03:03:08
end
