************************************************************
  HL Scan of (1) Internal mercury lamp
************************************************************
Integration time is 0.2294 seconds per sample
dh140417DelftKZ 51.997-4.386 2.482296pr1000
************************************************************
Dead Time -------------------------  3E-08 
Number of Cycles Used -------------  4 
Starting Wavelength (Angstroms) ---  3331 
Final Wavelength (Angstoms) -------  3351 
Wavelength Increment (Angstroms) --  .25 
Filter Wheel #1 Position ---------- (1) Ground quartz diffuser (ND=2.32)
Filter Wheel #2 Position ---------- 



************************************************************
HL scan start time = 03:16:13
Dark Count =  .1 


Time (GMT)  Wavelength (Ang)  Step Number  Raw Counts  Counts/Second

  196.98        3331.00           6581          46.00       200.09
  197.39        3331.25           6584          47.00       204.45
  197.41        3331.50           6588          43.00       187.01
  197.44        3331.75           6592          41.00       178.29
  197.47        3332.00           6595          40.00       173.93
  197.50        3332.25           6599          40.00       173.93
  197.52        3332.50           6603          44.00       191.37
  197.55        3332.75           6607          43.00       187.01
  197.58        3333.00           6610          46.00       200.09
  197.61        3333.25           6614          43.00       187.01
  197.63        3333.50           6618          46.00       200.09
  197.66        3333.75           6622          40.00       173.93
  197.69        3334.00           6625          45.00       195.73
  197.72        3334.25           6629          41.00       178.29
  197.76        3334.50           6633          42.00       182.65
  197.78        3334.75           6636          41.00       178.29
  197.81        3335.00           6640          39.00       169.57
  197.84        3335.25           6644          61.00       265.48
  197.87        3335.50           6648          58.00       252.40
  197.89        3335.75           6651          64.00       278.56
  197.92        3336.00           6655          57.00       248.04
  197.95        3336.25           6659         226.00       984.77
  197.98        3336.50           6663        1349.00      5881.16
  198.00        3336.75           6666        2368.00     10325.34
  198.03        3337.00           6670        3684.00     16066.59
  198.06        3337.25           6674        4953.00     21604.67
  198.09        3337.50           6677        6013.00     26232.06
  198.12        3337.75           6681        7454.00     32524.75
  198.15        3338.00           6685        8896.00     38824.18
  198.18        3338.25           6689       10050.00     43867.20
  198.21        3338.50           6692       11145.00     48653.80
  198.23        3338.75           6696       12610.00     55059.93
  198.26        3339.00           6700       14301.00     62457.38
  198.29        3339.25           6704       15628.00     68264.77
  198.32        3339.50           6707       16770.00     73264.18
  198.35        3339.75           6711       18322.00     80060.85
  198.38        3340.00           6715       19613.00     85716.65
  198.41        3340.25           6719       21105.00     92255.41
  198.44        3340.50           6722       22053.00     96411.41
  198.46        3340.75           6726       23332.00    102020.20
  198.49        3341.00           6730       24431.00    106841.00
  198.52        3341.25           6733       24781.00    108376.60
  198.55        3341.50           6737       25041.00    109517.50
  198.57        3341.75           6741       25023.00    109438.50
  198.60        3342.00           6745       24236.00    105985.60
  198.63        3342.25           6748       23163.00    101278.90
  198.66        3342.50           6752       21989.00     96130.81
  198.69        3342.75           6756       20521.00     89695.71
  198.71        3343.00           6760       19282.00     84266.38
  198.74        3343.25           6763       18244.00     79719.21
  198.77        3343.50           6767       16768.00     73255.43
  198.80        3343.75           6771       15356.00     67074.25
  198.82        3344.00           6775       13822.00     60361.61
  198.86        3344.25           6778       12701.00     55457.93
  198.89        3344.50           6782       11317.00     49405.79
  198.92        3344.75           6786        9863.00     43049.90
  198.94        3345.00           6790        8402.00     36665.86
  198.97        3345.25           6793        7184.00     31345.51
  199.00        3345.50           6797        5892.00     25703.77
  199.04        3345.75           6801        4551.00     19850.09
  199.06        3346.00           6805        3240.00     14129.35
  199.10        3346.25           6808        2210.00      9636.18
  199.13        3346.50           6812         766.00      3339.04
  199.16        3346.75           6816         135.00       588.07
  199.19        3347.00           6819          74.00       322.15
  199.22        3347.25           6823          50.00       217.53
  199.24        3347.50           6827          54.00       234.96
  199.27        3347.75           6831          44.00       191.37
  199.30        3348.00           6834          42.00       182.65
  199.34        3348.25           6838          43.00       187.01
  199.36        3348.50           6842          41.00       178.29
  199.39        3348.75           6846          41.00       178.29
  199.42        3349.00           6849          46.00       200.09
  199.45        3349.25           6853          42.00       182.65
  199.47        3349.50           6857          45.00       195.73
  199.50        3349.75           6861          46.00       200.09
  199.53        3350.00           6864          41.00       178.29
  199.56        3350.25           6868          38.00       165.21
  199.58        3350.50           6872          40.00       173.93
  199.61        3350.75           6876          39.00       169.57
  199.64        3351.00           6879          45.00       195.73
HL scan finished at 03:21:07
end
