************************************************************
  HL Scan of (1) Internal mercury lamp
************************************************************
Integration time is 0.2294 seconds per sample
dh180417DelftKZ 51.997-4.386 2.321352pr1000
************************************************************
Dead Time -------------------------  3E-08 
Number of Cycles Used -------------  4 
Starting Wavelength (Angstroms) ---  3331 
Final Wavelength (Angstoms) -------  3351 
Wavelength Increment (Angstroms) --  .25 
Filter Wheel #1 Position ---------- (1) Ground quartz diffuser (ND=2.32)
Filter Wheel #2 Position ---------- 



************************************************************
HL scan start time = 03:01:54
Dark Count =  0 


Time (GMT)  Wavelength (Ang)  Step Number  Raw Counts  Counts/Second

  182.65        3331.00           6581          48.00       209.24
  183.06        3331.25           6584          36.00       156.93
  183.09        3331.50           6588          41.00       178.73
  183.12        3331.75           6592          38.00       165.65
  183.14        3332.00           6595          38.00       165.65
  183.17        3332.25           6599          42.00       183.09
  183.20        3332.50           6603          42.00       183.09
  183.23        3332.75           6607          40.00       174.37
  183.26        3333.00           6610          38.00       165.65
  183.28        3333.25           6614          43.00       187.45
  183.31        3333.50           6618          35.00       152.57
  183.34        3333.75           6622          42.00       183.09
  183.37        3334.00           6625          45.00       196.17
  183.39        3334.25           6629          42.00       183.09
  183.42        3334.50           6633          35.00       152.57
  183.45        3334.75           6636          44.00       191.81
  183.48        3335.00           6640          49.00       213.60
  183.50        3335.25           6644          45.00       196.17
  183.53        3335.50           6648          47.00       204.88
  183.56        3335.75           6651          50.00       217.96
  183.59        3336.00           6655          64.00       278.99
  183.61        3336.25           6659         399.00      1739.41
  183.64        3336.50           6663        1376.00      5999.34
  183.67        3336.75           6666        2149.00      9370.55
  183.70        3337.00           6670        3139.00     13689.14
  183.73        3337.25           6674        4229.00     18445.25
  183.75        3337.50           6677        4991.00     21770.97
  183.78        3337.75           6681        6272.00     27363.35
  183.81        3338.00           6685        7370.00     32158.30
  183.84        3338.25           6689        8472.00     36972.11
  183.86        3338.50           6692        9264.00     40432.62
  183.89        3338.75           6696       10392.00     45362.48
  183.92        3339.00           6700       11617.00     50717.92
  183.95        3339.25           6704       12805.00     55913.24
  183.98        3339.50           6707       13567.00     59246.45
  184.00        3339.75           6711       14632.00     63906.19
  184.03        3340.00           6715       15904.00     69473.34
  184.06        3340.25           6719       17035.00     74424.93
  184.09        3340.50           6722       17854.00     78011.49
  184.11        3340.75           6726       19031.00     83167.15
  184.14        3341.00           6730       19867.00     86830.08
  184.17        3341.25           6733       19999.00     87408.51
  184.20        3341.50           6737       20167.00     88144.72
  184.23        3341.75           6741       19988.00     87360.31
  184.25        3342.00           6745       19435.00     84937.16
  184.28        3342.25           6748       18655.00     81519.96
  184.31        3342.50           6752       17461.00     76290.36
  184.34        3342.75           6756       16341.00     71386.38
  184.36        3343.00           6760       15031.00     65652.28
  184.39        3343.25           6763       14295.00     62431.56
  184.42        3343.50           6767       13037.00     56928.01
  184.45        3343.75           6771       12001.00     52397.04
  184.48        3344.00           6775       10853.00     47377.67
  184.50        3344.25           6778       10045.00     43845.78
  184.53        3344.50           6782        8979.00     39187.28
  184.56        3344.75           6786        7945.00     34669.87
  184.59        3345.00           6790        6692.00     29197.32
  184.61        3345.25           6793        5706.00     24892.17
  184.64        3345.50           6797        4424.00     19296.26
  184.67        3345.75           6801        3232.00     14094.89
  184.70        3346.00           6805        2186.00      9531.93
  184.72        3346.25           6808        1316.00      5737.69
  184.75        3346.50           6812         304.00      1325.25
  184.78        3346.75           6816          77.00       335.66
  184.81        3347.00           6819          54.00       235.40
  184.83        3347.25           6823          51.00       222.32
  184.86        3347.50           6827          43.00       187.45
  184.89        3347.75           6831          48.00       209.24
  184.92        3348.00           6834          45.00       196.17
  184.95        3348.25           6838          45.00       196.17
  184.97        3348.50           6842          37.00       161.29
  185.00        3348.75           6846          37.00       161.29
  185.04        3349.00           6849          44.00       191.81
  185.06        3349.25           6853          33.00       143.85
  185.09        3349.50           6857          39.00       170.01
  185.12        3349.75           6861          45.00       196.17
  185.15        3350.00           6864          44.00       191.81
  185.17        3350.25           6868          42.00       183.09
  185.20        3350.50           6872          40.00       174.37
  185.23        3350.75           6876          39.00       170.01
  185.26        3351.00           6879          38.00       165.65
HL scan finished at 03:06:44
end
