************************************************************
  HL Scan of (1) Internal mercury lamp
************************************************************
Integration time is 0.2294 seconds per sample
dh110418Delft 51.9969-4.3863 2.750537pr1000
************************************************************
Dead Time -------------------------  2.7E-08 
Number of Cycles Used -------------  4 
Starting Wavelength (Angstroms) ---  3331 
Final Wavelength (Angstoms) -------  3351 
Wavelength Increment (Angstroms) --  .25 
Filter Wheel #1 Position ---------- (1) Ground quartz diffuser (ND=2.32)
Filter Wheel #2 Position ---------- 



************************************************************
HL scan start time = 03:57:57
Dark Count =  .1 


Time (GMT)  Wavelength (Ang)  Step Number  Raw Counts  Counts/Second

  238.72        3331.00           6579          45.00       195.73
  239.13        3331.25           6582          36.00       156.50
  239.16        3331.50           6586          49.00       213.17
  239.19        3331.75           6590          41.00       178.29
  239.22        3332.00           6594          48.00       208.81
  239.25        3332.25           6597          49.00       213.17
  239.28        3332.50           6601          55.00       239.32
  239.31        3332.75           6605          51.00       221.88
  239.34        3333.00           6608          44.00       191.37
  239.37        3333.25           6612          41.00       178.29
  239.40        3333.50           6616          43.00       187.01
  239.43        3333.75           6620          45.00       195.73
  239.46        3334.00           6623          46.00       200.09
  239.49        3334.25           6627          39.00       169.57
  239.52        3334.50           6631          49.00       213.17
  239.55        3334.75           6635          47.00       204.45
  239.58        3335.00           6638          49.00       213.17
  239.61        3335.25           6642          53.00       230.60
  239.64        3335.50           6646          64.00       278.55
  239.67        3335.75           6649          68.00       295.99
  239.70        3336.00           6653          70.00       304.71
  239.73        3336.25           6657         113.00       492.16
  239.76        3336.50           6661        1007.00      4389.80
  239.79        3336.75           6664        2174.00      9478.89
  239.82        3337.00           6668        3955.00     17248.22
  239.85        3337.25           6672        5796.00     25282.73
  239.88        3337.50           6676        7518.00     32801.05
  239.91        3337.75           6679        8703.00     37976.59
  239.94        3338.00           6683       10327.00     45071.82
  239.97        3338.25           6687       12092.00     52786.17
  240.00        3338.50           6690       13586.00     59318.56
  240.03        3338.75           6694       15678.00     68469.53
  240.06        3339.00           6698       17424.00     76110.48
  240.09        3339.25           6702       19089.00     83399.90
  240.12        3339.50           6705       20357.00     88953.14
  240.15        3339.75           6709       22179.00     96935.59
  240.18        3340.00           6713       23963.00    104754.90
  240.21        3340.25           6717       25623.00    112033.70
  240.24        3340.50           6720       26820.00    117284.10
  240.27        3340.75           6724       28549.00    124870.60
  240.30        3341.00           6728       30123.00    131779.70
  240.33        3341.25           6732       31334.00    137097.20
  240.36        3341.50           6735       31632.00    138406.00
  240.39        3341.75           6739       31554.00    138063.40
  240.42        3342.00           6743       30977.00    135529.50
  240.45        3342.25           6747       29522.00    129141.30
  240.48        3342.50           6750       28114.00    122961.60
  240.51        3342.75           6754       26522.00    115976.80
  240.54        3343.00           6758       24985.00    109235.80
  240.57        3343.25           6761       23782.00    103961.40
  240.60        3343.50           6765       21798.00     95266.09
  240.63        3343.75           6769       19771.00     86386.53
  240.66        3344.00           6773       18143.00     79257.93
  240.69        3344.25           6776       16832.00     73519.38
  240.72        3344.50           6780       15029.00     65630.15
  240.75        3344.75           6784       13268.00     57927.94
  240.78        3345.00           6788       11278.00     49227.99
  240.81        3345.25           6791       10035.00     43795.88
  240.84        3345.50           6795        8414.00     36714.24
  240.87        3345.75           6799        6643.00     28980.38
  240.90        3346.00           6803        4575.00     19953.64
  240.93        3346.25           6806        3169.00     13819.02
  240.96        3346.50           6810        1397.00      6090.37
  240.99        3346.75           6814         355.00      1547.14
  241.02        3347.00           6818          89.00       387.54
  241.05        3347.25           6821          67.00       291.63
  241.08        3347.50           6825          61.00       265.48
  241.11        3347.75           6829          62.00       269.84
  241.14        3348.00           6833          60.00       261.12
  241.17        3348.25           6836          51.00       221.88
  241.20        3348.50           6840          48.00       208.81
  241.23        3348.75           6844          50.00       217.53
  241.26        3349.00           6848          48.00       208.81
  241.29        3349.25           6851          46.00       200.09
  241.32        3349.50           6855          42.00       182.65
  241.35        3349.75           6859          44.00       191.37
  241.38        3350.00           6863          45.00       195.73
  241.41        3350.25           6866          51.00       221.88
  241.44        3350.50           6870          47.00       204.45
  241.47        3350.75           6874          36.00       156.50
  241.50        3351.00           6878          49.00       213.17
HL scan finished at 04:02:59
end
************************************************************
  HL Scan of (1) Internal mercury lamp
************************************************************
Integration time is 0.2294 seconds per sample
dh110418Delft 51.9969-4.3863 2.857833pr1000
************************************************************
Dead Time -------------------------  2.7E-08 
Number of Cycles Used -------------  4 
Starting Wavelength (Angstroms) ---  3331 
Final Wavelength (Angstoms) -------  3351 
Wavelength Increment (Angstroms) --  .25 
Filter Wheel #1 Position ---------- (1) Ground quartz diffuser (ND=2.32)
Filter Wheel #2 Position ---------- 



************************************************************
HL scan start time = 19:43:28
Dark Count =  0 


Time (GMT)  Wavelength (Ang)  Step Number  Raw Counts  Counts/Second

 1184.23        3331.00           6579          46.00       200.52
 1184.64        3331.25           6582          48.00       209.24
 1184.67        3331.50           6586          41.00       178.73
 1184.70        3331.75           6590          48.00       209.24
 1184.73        3332.00           6594          38.00       165.65
 1184.76        3332.25           6597          41.00       178.73
 1184.79        3332.50           6601          42.00       183.09
 1184.82        3332.75           6605          49.00       213.60
 1184.85        3333.00           6608          49.00       213.60
 1184.88        3333.25           6612          40.00       174.37
 1184.91        3333.50           6616          42.00       183.09
 1184.94        3333.75           6620          43.00       187.45
 1184.97        3334.00           6623          51.00       222.32
 1185.00        3334.25           6627          49.00       213.60
 1185.03        3334.50           6631          44.00       191.81
 1185.06        3334.75           6635          49.00       213.60
 1185.09        3335.00           6638          45.00       196.16
 1185.12        3335.25           6642          51.00       222.32
 1185.15        3335.50           6646          54.00       235.40
 1185.18        3335.75           6649          61.00       265.91
 1185.21        3336.00           6653          71.00       309.51
 1185.24        3336.25           6657         114.00       496.96
 1185.27        3336.50           6661        1069.00      4660.57
 1185.30        3336.75           6664        2418.00     10543.54
 1185.33        3337.00           6668        4129.00     18007.88
 1185.36        3337.25           6672        5991.00     26134.39
 1185.39        3337.50           6676        7854.00     34268.83
 1185.42        3337.75           6679        9233.00     40292.29
 1185.45        3338.00           6683       10871.00     47449.59
 1185.48        3338.25           6687       12756.00     55689.61
 1185.51        3338.50           6690       14166.00     61855.62
 1185.54        3338.75           6694       16253.00     70985.97
 1185.57        3339.00           6698       18253.00     79739.94
 1185.60        3339.25           6702       20191.00     88226.49
 1185.63        3339.50           6705       21602.00     94407.74
 1185.66        3339.75           6709       23156.00    101217.80
 1185.69        3340.00           6713       25255.00    110420.30
 1185.72        3340.25           6717       26853.00    117429.30
 1185.75        3340.50           6720       28308.00    123813.40
 1185.78        3340.75           6724       30222.00    132214.80
 1185.81        3341.00           6728       32025.00    140132.50
 1185.84        3341.25           6732       33123.00    144955.90
 1185.87        3341.50           6735       33268.00    145593.00
 1185.90        3341.75           6739       33477.00    146511.30
 1185.93        3342.00           6743       32935.00    144130.00
 1185.96        3342.25           6747       31331.00    137084.50
 1185.99        3342.50           6750       29816.00    130432.40
 1186.03        3342.75           6754       27962.00    122295.10
 1186.06        3343.00           6758       26141.00    114306.00
 1186.09        3343.25           6761       25102.00    109749.30
 1186.12        3343.50           6765       23189.00    101362.50
 1186.15        3343.75           6769       21314.00     93145.91
 1186.18        3344.00           6773       19183.00     83811.94
 1186.21        3344.25           6776       17775.00     77647.36
 1186.24        3344.50           6780       15876.00     69336.31
 1186.27        3344.75           6784       14163.00     61842.50
 1186.30        3345.00           6788       12191.00     53219.40
 1186.33        3345.25           6791       10690.00     46658.57
 1186.36        3345.50           6795        8831.00     38536.16
 1186.39        3345.75           6799        7144.00     31168.33
 1186.42        3346.00           6803        5136.00     22402.39
 1186.45        3346.25           6806        3506.00     15289.66
 1186.48        3346.50           6810        1598.00      6967.31
 1186.51        3346.75           6814         348.00      1517.06
 1186.54        3347.00           6818         100.00       435.92
 1186.57        3347.25           6821          71.00       309.51
 1186.60        3347.50           6825          60.00       261.55
 1186.63        3347.75           6829          57.00       248.48
 1186.66        3348.00           6833          61.00       265.91
 1186.69        3348.25           6836          55.00       239.76
 1186.72        3348.50           6840          53.00       231.04
 1186.75        3348.75           6844          44.00       191.81
 1186.78        3349.00           6848          46.00       200.52
 1186.81        3349.25           6851          53.00       231.04
 1186.84        3349.50           6855          48.00       209.24
 1186.87        3349.75           6859          40.00       174.37
 1186.90        3350.00           6863          47.00       204.88
 1186.93        3350.25           6866          48.00       209.24
 1186.96        3350.50           6870          45.00       196.16
 1186.99        3350.75           6874          45.00       196.16
 1187.02        3351.00           6878          39.00       170.01
HL scan finished at 19:48:31
end
