************************************************************
  HL Scan of (1) Internal mercury lamp
************************************************************
Integration time is 0.2294 seconds per sample
dh140418Delft 51.9969-4.3863 2.589593pr1000
************************************************************
Dead Time -------------------------  2.7E-08 
Number of Cycles Used -------------  4 
Starting Wavelength (Angstroms) ---  3331 
Final Wavelength (Angstoms) -------  3351 
Wavelength Increment (Angstroms) --  .25 
Filter Wheel #1 Position ---------- (1) Ground quartz diffuser (ND=2.32)
Filter Wheel #2 Position ---------- 



************************************************************
HL scan start time = 03:32:44
Dark Count =  .1 


Time (GMT)  Wavelength (Ang)  Step Number  Raw Counts  Counts/Second

  213.49        3331.00           6579          44.00       191.37
  213.90        3331.25           6582          47.00       204.45
  213.93        3331.50           6586          42.00       182.65
  213.96        3331.75           6590          46.00       200.09
  213.99        3332.00           6594          40.00       173.93
  214.02        3332.25           6597          44.00       191.37
  214.05        3332.50           6601          41.00       178.29
  214.08        3332.75           6605          39.00       169.57
  214.11        3333.00           6608          40.00       173.93
  214.14        3333.25           6612          45.00       195.73
  214.17        3333.50           6616          40.00       173.93
  214.20        3333.75           6620          40.00       173.93
  214.23        3334.00           6623          45.00       195.73
  214.26        3334.25           6627          37.00       160.86
  214.29        3334.50           6631          44.00       191.37
  214.32        3334.75           6635          48.00       208.81
  214.35        3335.00           6638          48.00       208.81
  214.38        3335.25           6642          50.00       217.53
  214.41        3335.50           6646          48.00       208.81
  214.44        3335.75           6649          56.00       243.68
  214.47        3336.00           6653          63.00       274.20
  214.50        3336.25           6657         113.00       492.16
  214.53        3336.50           6661         951.00      4145.63
  214.56        3336.75           6664        2155.00      9396.02
  214.59        3337.00           6668        3637.00     15860.76
  214.62        3337.25           6672        5070.00     22113.90
  214.65        3337.50           6676        6479.00     28264.37
  214.68        3337.75           6679        7609.00     33198.45
  214.71        3338.00           6683        9215.00     40213.21
  214.74        3338.25           6687       11142.00     48633.57
  214.77        3338.50           6690       12481.00     54486.82
  214.80        3338.75           6694       13951.00     60914.85
  214.83        3339.00           6698       15597.00     68115.13
  214.86        3339.25           6702       17241.00     75309.47
  214.89        3339.50           6705       18407.00     80413.73
  214.92        3339.75           6709       19929.00     87078.52
  214.95        3340.00           6713       21429.00     93649.32
  214.98        3340.25           6717       22855.00     99898.12
  215.01        3340.50           6720       24241.00    105973.70
  215.04        3340.75           6724       25631.00    112068.80
  215.07        3341.00           6728       27315.00    119455.70
  215.10        3341.25           6732       28384.00    124146.50
  215.13        3341.50           6735       28456.00    124462.50
  215.16        3341.75           6739       28487.00    124598.50
  215.19        3342.00           6743       27866.00    121873.40
  215.22        3342.25           6747       26514.00    115941.70
  215.25        3342.50           6750       25740.00    112546.80
  215.28        3342.75           6754       24135.00    105509.00
  215.31        3343.00           6758       22608.00     98815.60
  215.34        3343.25           6761       21379.00     93430.25
  215.37        3343.50           6765       19533.00     85344.21
  215.40        3343.75           6769       18022.00     78728.21
  215.43        3344.00           6773       16546.00     72267.74
  215.46        3344.25           6776       15287.00     66758.85
  215.49        3344.50           6780       13831.00     60390.02
  215.52        3344.75           6784       11929.00     52073.60
  215.55        3345.00           6788       10417.00     45465.11
  215.58        3345.25           6791        9174.00     40034.10
  215.61        3345.50           6795        7698.00     33587.12
  215.64        3345.75           6799        5804.00     25317.65
  215.67        3346.00           6803        4037.00     17606.01
  215.70        3346.25           6806        2758.00     12026.14
  215.73        3346.50           6810        1288.00      5615.06
  215.76        3346.75           6814         295.00      1285.57
  215.79        3347.00           6818          88.00       383.18
  215.82        3347.25           6821          69.00       300.35
  215.85        3347.50           6825          59.00       256.76
  215.88        3347.75           6829          63.00       274.20
  215.92        3348.00           6833          59.00       256.76
  215.94        3348.25           6836          46.00       200.09
  215.98        3348.50           6840          44.00       191.37
  216.00        3348.75           6844          47.00       204.45
  216.04        3349.00           6848          44.00       191.37
  216.06        3349.25           6851          43.00       187.01
  216.10        3349.50           6855          46.00       200.09
  216.12        3349.75           6859          44.00       191.37
  216.16        3350.00           6863          47.00       204.45
  216.18        3350.25           6866          46.00       200.09
  216.22        3350.50           6870          47.00       204.45
  216.24        3350.75           6874          35.00       152.14
  216.28        3351.00           6878          47.00       204.45
HL scan finished at 03:37:46
end
