************************************************************
  HL Scan of (1) Internal mercury lamp
************************************************************
Integration time is 0.2294 seconds per sample
dh160417DelftKZ 51.997-4.386 2.428648pr1000
************************************************************
Dead Time -------------------------  3E-08 
Number of Cycles Used -------------  4 
Starting Wavelength (Angstroms) ---  3331 
Final Wavelength (Angstoms) -------  3351 
Wavelength Increment (Angstroms) --  .25 
Filter Wheel #1 Position ---------- (1) Ground quartz diffuser (ND=2.32)
Filter Wheel #2 Position ---------- 



************************************************************
HL scan start time = 03:09:07
Dark Count =  .1 


Time (GMT)  Wavelength (Ang)  Step Number  Raw Counts  Counts/Second

  189.88        3331.00           6581          43.00       187.01
  190.30        3331.25           6584          46.00       200.09
  190.33        3331.50           6588          43.00       187.01
  190.36        3331.75           6592          36.00       156.50
  190.39        3332.00           6595          43.00       187.01
  190.42        3332.25           6599          41.00       178.29
  190.45        3332.50           6603          46.00       200.09
  190.47        3332.75           6607          42.00       182.65
  190.50        3333.00           6610          43.00       187.01
  190.53        3333.25           6614          36.00       156.50
  190.57        3333.50           6618          40.00       173.93
  190.60        3333.75           6622          48.00       208.81
  190.63        3334.00           6625          44.00       191.37
  190.66        3334.25           6629          45.00       195.73
  190.68        3334.50           6633          46.00       200.09
  190.71        3334.75           6636          45.00       195.73
  190.74        3335.00           6640          41.00       178.29
  190.77        3335.25           6644          47.00       204.45
  190.79        3335.50           6648          55.00       239.32
  190.82        3335.75           6651          54.00       234.96
  190.85        3336.00           6655          60.00       261.12
  190.89        3336.25           6659         163.00       710.13
  190.92        3336.50           6663        1083.00      4721.24
  190.95        3336.75           6666        2145.00      9352.67
  190.97        3337.00           6670        3596.00     15682.62
  191.01        3337.25           6674        4875.00     21264.22
  191.04        3337.50           6677        5774.00     25188.60
  191.06        3337.75           6681        7026.00     30655.47
  191.09        3338.00           6685        8483.00     37019.74
  191.12        3338.25           6689        9576.00     41795.62
  191.15        3338.50           6692       10640.00     46446.11
  191.18        3338.75           6696       11948.00     52164.84
  191.20        3339.00           6700       13509.00     58992.28
  191.24        3339.25           6704       14907.00     65109.18
  191.27        3339.50           6707       16205.00     70790.55
  191.29        3339.75           6711       17548.00     76670.93
  191.32        3340.00           6715       18866.00     82443.85
  191.35        3340.25           6719       20236.00     88446.68
  191.38        3340.50           6722       21219.00     92755.13
  191.41        3340.75           6726       22474.00     98257.39
  191.43        3341.00           6730       23419.00    102401.70
  191.46        3341.25           6733       24021.00    105042.40
  191.49        3341.50           6737       24125.00    105498.60
  191.52        3341.75           6741       24070.00    105257.30
  191.56        3342.00           6745       23290.00    101835.90
  191.59        3342.25           6748       22371.00     97805.75
  191.62        3342.50           6752       21121.00     92325.56
  191.64        3342.75           6756       19937.00     87136.38
  191.67        3343.00           6760       18500.00     80840.55
  191.70        3343.25           6763       17336.00     75742.54
  191.73        3343.50           6767       16206.00     70794.93
  191.75        3343.75           6771       14826.00     64754.71
  191.78        3344.00           6775       13564.00     59232.89
  191.81        3344.25           6778       12390.00     54097.75
  191.84        3344.50           6782       10991.00     47980.53
  191.87        3344.75           6786        9589.00     41852.43
  191.90        3345.00           6790        8293.00     36189.67
  191.93        3345.25           6793        7142.00     31162.08
  191.96        3345.50           6797        5620.00     24516.28
  191.99        3345.75           6801        4260.00     18580.10
  192.01        3346.00           6805        3060.00     13344.05
  192.04        3346.25           6808        2072.00      9034.27
  192.07        3346.50           6812         808.00      3522.17
  192.10        3346.75           6816         156.00       679.61
  192.12        3347.00           6819          66.00       287.27
  192.15        3347.25           6823          56.00       243.68
  192.18        3347.50           6827          48.00       208.81
  192.21        3347.75           6831          52.00       226.24
  192.24        3348.00           6834          44.00       191.37
  192.26        3348.25           6838          41.00       178.29
  192.29        3348.50           6842          43.00       187.01
  192.32        3348.75           6846          40.00       173.93
  192.34        3349.00           6849          39.00       169.57
  192.37        3349.25           6853          41.00       178.29
  192.40        3349.50           6857          41.00       178.29
  192.43        3349.75           6861          43.00       187.01
  192.45        3350.00           6864          37.00       160.86
  192.48        3350.25           6868          47.00       204.45
  192.51        3350.50           6872          43.00       187.01
  192.54        3350.75           6876          40.00       173.93
  192.57        3351.00           6879          43.00       187.01
HL scan finished at 03:14:03
end
