************************************************************
  HL Scan of (1) Internal mercury lamp
************************************************************
Integration time is 0.2294 seconds per sample
dh100417DelftKZ 51.997-4.386 2.589593pr1000
************************************************************
Dead Time -------------------------  3E-08 
Number of Cycles Used -------------  4 
Starting Wavelength (Angstroms) ---  3331 
Final Wavelength (Angstoms) -------  3351 
Wavelength Increment (Angstroms) --  .25 
Filter Wheel #1 Position ---------- (1) Ground quartz diffuser (ND=2.32)
Filter Wheel #2 Position ---------- 



************************************************************
HL scan start time = 03:29:26
Dark Count =  0 


Time (GMT)  Wavelength (Ang)  Step Number  Raw Counts  Counts/Second

  210.19        3331.00           6581          41.00       178.73
  210.59        3331.25           6584          46.00       200.52
  210.62        3331.50           6588          40.00       174.37
  210.65        3331.75           6592          43.00       187.45
  210.68        3332.00           6595          43.00       187.45
  210.71        3332.25           6599          39.00       170.01
  210.74        3332.50           6603          45.00       196.17
  210.77        3332.75           6607          49.00       213.60
  210.79        3333.00           6610          43.00       187.45
  210.82        3333.25           6614          46.00       200.52
  210.85        3333.50           6618          39.00       170.01
  210.88        3333.75           6622          45.00       196.17
  210.91        3334.00           6625          43.00       187.45
  210.93        3334.25           6629          39.00       170.01
  210.96        3334.50           6633          45.00       196.17
  210.99        3334.75           6636          49.00       213.60
  211.02        3335.00           6640          53.00       231.04
  211.04        3335.25           6644          53.00       231.04
  211.07        3335.50           6648          52.00       226.68
  211.10        3335.75           6651          67.00       292.07
  211.13        3336.00           6655          79.00       344.38
  211.15        3336.25           6659         304.00      1325.25
  211.18        3336.50           6663        1334.00      5816.18
  211.21        3336.75           6666        2255.00      9832.89
  211.24        3337.00           6670        3727.00     16254.66
  211.26        3337.25           6674        5451.00     23778.95
  211.29        3337.50           6677        6732.00     29371.99
  211.32        3337.75           6681        8117.00     35421.23
  211.35        3338.00           6685        9600.00     41900.94
  211.38        3338.25           6689       10836.00     47303.35
  211.40        3338.50           6692       12073.00     52711.89
  211.43        3338.75           6696       13654.00     59627.06
  211.46        3339.00           6700       15148.00     66164.33
  211.49        3339.25           6704       16703.00     72971.26
  211.51        3339.50           6707       17860.00     78037.76
  211.54        3339.75           6711       19422.00     84880.21
  211.57        3340.00           6715       21126.00     92347.90
  211.60        3340.25           6719       22702.00     99257.63
  211.63        3340.50           6722       23825.00    104183.00
  211.65        3340.75           6726       25204.00    110233.20
  211.68        3341.00           6730       26632.00    116500.60
  211.71        3341.25           6733       26899.00    117672.80
  211.74        3341.50           6737       26994.00    118089.80
  211.76        3341.75           6741       26853.00    117470.80
  211.79        3342.00           6745       26291.00    115003.80
  211.82        3342.25           6748       25288.00    110601.80
  211.85        3342.50           6752       23589.00    103147.80
  211.88        3342.75           6756       22026.00     96293.47
  211.90        3343.00           6760       20605.00     90064.29
  211.93        3343.25           6763       19510.00     85265.78
  211.96        3343.50           6767       17986.00     78589.61
  211.99        3343.75           6771       16411.00     71692.83
  212.01        3344.00           6775       15143.00     66142.46
  212.04        3344.25           6778       13979.00     61048.94
  212.07        3344.50           6782       12664.00     55296.54
  212.10        3344.75           6786       10877.00     47482.59
  212.13        3345.00           6790        9267.00     40445.74
  212.16        3345.25           6793        7815.00     34102.00
  212.19        3345.50           6797        6315.00     27551.10
  212.21        3345.75           6801        4784.00     20867.46
  212.24        3346.00           6805        3080.00     13431.74
  212.27        3346.25           6808        1913.00      8341.23
  212.30        3346.50           6812         707.00      3082.24
  212.33        3346.75           6816         166.00       723.64
  212.35        3347.00           6819          74.00       322.58
  212.38        3347.25           6823          60.00       261.55
  212.41        3347.50           6827          52.00       226.68
  212.44        3347.75           6831          56.00       244.12
  212.46        3348.00           6834          51.00       222.32
  212.49        3348.25           6838          53.00       231.04
  212.52        3348.50           6842          39.00       170.01
  212.55        3348.75           6846          45.00       196.17
  212.57        3349.00           6849          45.00       196.17
  212.60        3349.25           6853          42.00       183.09
  212.63        3349.50           6857          47.00       204.88
  212.66        3349.75           6861          39.00       170.01
  212.69        3350.00           6864          41.00       178.73
  212.71        3350.25           6868          48.00       209.24
  212.74        3350.50           6872          41.00       178.73
  212.77        3350.75           6876          42.00       183.09
  212.80        3351.00           6879          45.00       196.17
HL scan finished at 03:34:16
end
