************************************************************
  HL Scan of (1) Internal mercury lamp
************************************************************
Integration time is 0.2294 seconds per sample
dh110417DelftKZ 51.997-4.386 2.482296pr1000
************************************************************
Dead Time -------------------------  3E-08 
Number of Cycles Used -------------  4 
Starting Wavelength (Angstroms) ---  3331 
Final Wavelength (Angstoms) -------  3351 
Wavelength Increment (Angstroms) --  .25 
Filter Wheel #1 Position ---------- (1) Ground quartz diffuser (ND=2.32)
Filter Wheel #2 Position ---------- 



************************************************************
HL scan start time = 03:26:06
Dark Count =  0 


Time (GMT)  Wavelength (Ang)  Step Number  Raw Counts  Counts/Second

  206.86        3331.00           6581          51.00       222.32
  207.27        3331.25           6584          46.00       200.52
  207.29        3331.50           6588          35.00       152.57
  207.32        3331.75           6592          47.00       204.88
  207.35        3332.00           6595          39.00       170.01
  207.38        3332.25           6599          47.00       204.88
  207.40        3332.50           6603          51.00       222.32
  207.43        3332.75           6607          38.00       165.65
  207.46        3333.00           6610          49.00       213.60
  207.49        3333.25           6614          43.00       187.45
  207.51        3333.50           6618          36.00       156.93
  207.54        3333.75           6622          39.00       170.01
  207.57        3334.00           6625          42.00       183.09
  207.60        3334.25           6629          42.00       183.09
  207.63        3334.50           6633          45.00       196.17
  207.65        3334.75           6636          42.00       183.09
  207.68        3335.00           6640          47.00       204.88
  207.71        3335.25           6644          44.00       191.81
  207.74        3335.50           6648          53.00       231.04
  207.76        3335.75           6651          64.00       278.99
  207.79        3336.00           6655          62.00       270.27
  207.82        3336.25           6659         217.00       945.97
  207.85        3336.50           6663        1097.00      4782.73
  207.88        3336.75           6666        2038.00      8886.42
  207.91        3337.00           6670        3509.00     15303.45
  207.94        3337.25           6674        5083.00     22172.55
  207.96        3337.50           6677        6298.00     27476.87
  207.99        3337.75           6681        7771.00     33909.81
  208.02        3338.00           6685        9116.00     39785.91
  208.05        3338.25           6689       10540.00     46009.41
  208.07        3338.50           6692       11803.00     51531.22
  208.10        3338.75           6696       12946.00     56529.96
  208.13        3339.00           6700       14333.00     62597.83
  208.16        3339.25           6704       15687.00     68523.46
  208.19        3339.50           6707       16786.00     73334.66
  208.21        3339.75           6711       18400.00     80402.95
  208.24        3340.00           6715       19899.00     86970.30
  208.27        3340.25           6719       21371.00     93421.88
  208.30        3340.50           6722       22399.00     97928.96
  208.32        3340.75           6726       23604.00    103213.60
  208.35        3341.00           6730       24796.00    108442.90
  208.39        3341.25           6733       25211.00    110263.90
  208.42        3341.50           6737       25131.00    109912.80
  208.45        3341.75           6741       25252.00    110443.80
  208.48        3342.00           6745       24239.00    105999.10
  208.50        3342.25           6748       23484.00    102687.30
  208.53        3342.50           6752       21950.00     95960.25
  208.56        3342.75           6756       20259.00     88547.90
  208.59        3343.00           6760       18949.00     82807.91
  208.62        3343.25           6763       17808.00     77810.02
  208.65        3343.50           6767       16460.00     71907.35
  208.68        3343.75           6771       15057.00     65766.07
  208.70        3344.00           6775       13749.00     60042.67
  208.73        3344.25           6778       12829.00     56018.21
  208.76        3344.50           6782       11371.00     49642.32
  208.79        3344.75           6786       10107.00     44116.77
  208.81        3345.00           6790        8430.00     36788.62
  208.84        3345.25           6793        7161.00     31245.49
  208.87        3345.50           6797        5865.00     25586.33
  208.90        3345.75           6801        4488.00     19575.57
  208.93        3346.00           6805        3059.00     13340.13
  208.95        3346.25           6808        2005.00      8742.48
  208.98        3346.50           6812         696.00      3034.28
  209.01        3346.75           6816         169.00       736.72
  209.04        3347.00           6819          76.00       331.30
  209.06        3347.25           6823          54.00       235.40
  209.09        3347.50           6827          57.00       248.48
  209.12        3347.75           6831          48.00       209.24
  209.15        3348.00           6834          47.00       204.88
  209.17        3348.25           6838          46.00       200.52
  209.20        3348.50           6842          44.00       191.81
  209.23        3348.75           6846          43.00       187.45
  209.26        3349.00           6849          40.00       174.37
  209.28        3349.25           6853          42.00       183.09
  209.31        3349.50           6857          47.00       204.88
  209.34        3349.75           6861          46.00       200.52
  209.37        3350.00           6864          37.00       161.29
  209.39        3350.25           6868          37.00       161.29
  209.42        3350.50           6872          46.00       200.52
  209.45        3350.75           6876          43.00       187.45
  209.48        3351.00           6879          39.00       170.01
HL scan finished at 03:30:57
end
