************************************************************
  HL Scan of (1) Internal mercury lamp
************************************************************
Integration time is 0.2294 seconds per sample
dh190418Delft 51.9969-4.3863 2.857833pr1000
************************************************************
Dead Time -------------------------  2.7E-08 
Number of Cycles Used -------------  4 
Starting Wavelength (Angstroms) ---  3331 
Final Wavelength (Angstoms) -------  3351 
Wavelength Increment (Angstroms) --  .25 
Filter Wheel #1 Position ---------- (1) Ground quartz diffuser (ND=2.32)
Filter Wheel #2 Position ---------- 



************************************************************
HL scan start time = 03:14:52
Dark Count =  .1 


Time (GMT)  Wavelength (Ang)  Step Number  Raw Counts  Counts/Second

  195.63        3331.00           6579          45.00       195.73
  196.04        3331.25           6582          48.00       208.81
  196.07        3331.50           6586          45.00       195.73
  196.10        3331.75           6590          47.00       204.45
  196.13        3332.00           6594          49.00       213.17
  196.16        3332.25           6597          47.00       204.45
  196.19        3332.50           6601          41.00       178.29
  196.22        3332.75           6605          48.00       208.81
  196.25        3333.00           6608          41.00       178.29
  196.28        3333.25           6612          44.00       191.37
  196.31        3333.50           6616          46.00       200.09
  196.34        3333.75           6620          52.00       226.24
  196.37        3334.00           6623          45.00       195.73
  196.40        3334.25           6627          41.00       178.29
  196.43        3334.50           6631          48.00       208.81
  196.46        3334.75           6635          49.00       213.17
  196.49        3335.00           6638          46.00       200.09
  196.52        3335.25           6642          50.00       217.53
  196.55        3335.50           6646          59.00       256.76
  196.58        3335.75           6649          56.00       243.68
  196.61        3336.00           6653          71.00       309.07
  196.64        3336.25           6657         111.00       483.44
  196.67        3336.50           6661         929.00      4049.70
  196.70        3336.75           6664        2178.00      9496.33
  196.73        3337.00           6668        3819.00     16654.83
  196.75        3337.25           6672        5394.00     23528.02
  196.79        3337.50           6676        7205.00     31434.26
  196.81        3337.75           6679        8708.00     37998.43
  196.84        3338.00           6683       10777.00     47038.35
  196.88        3338.25           6687       12868.00     56178.88
  196.90        3338.50           6690       14156.00     61811.45
  196.93        3338.75           6694       15925.00     69550.28
  196.96        3339.00           6698       17844.00     77948.97
  196.99        3339.25           6702       19932.00     87091.66
  197.02        3339.50           6705       21168.00     92505.83
  197.05        3339.75           6709       23209.00    101449.70
  197.08        3340.00           6713       24924.00    108968.40
  197.11        3340.25           6717       26666.00    116608.50
  197.14        3340.50           6720       28291.00    123738.40
  197.17        3340.75           6724       30214.00    132179.30
  197.20        3341.00           6728       31860.00    139407.40
  197.23        3341.25           6732       33233.00    145438.80
  197.26        3341.50           6735       33473.00    146493.30
  197.29        3341.75           6739       33585.00    146985.40
  197.32        3342.00           6743       33212.00    145346.50
  197.35        3342.25           6747       32091.00    140422.00
  197.38        3342.50           6750       30763.00    134589.80
  197.41        3342.75           6754       28741.00    125713.30
  197.44        3343.00           6758       26668.00    116617.30
  197.47        3343.25           6761       25218.00    110257.60
  197.50        3343.50           6765       23312.00    101901.20
  197.53        3343.75           6769       21677.00     94735.91
  197.56        3344.00           6773       19831.00     86649.30
  197.59        3344.25           6776       18429.00     80510.05
  197.62        3344.50           6780       16542.00     72250.23
  197.65        3344.75           6784       14722.00     64287.17
  197.68        3345.00           6788       12744.00     55636.70
  197.71        3345.25           6791       11157.00     48699.13
  197.74        3345.50           6795        9147.00     39916.15
  197.77        3345.75           6799        6875.00     29993.33
  197.80        3346.00           6803        5020.00     21895.68
  197.83        3346.25           6806        3649.00     15913.11
  197.86        3346.50           6810        1806.00      7873.95
  197.89        3346.75           6814         414.00      1804.36
  197.92        3347.00           6818         125.00       544.47
  197.95        3347.25           6821          70.00       304.71
  197.98        3347.50           6825          65.00       282.91
  198.01        3347.75           6829          65.00       282.91
  198.04        3348.00           6833          53.00       230.60
  198.07        3348.25           6836          53.00       230.60
  198.09        3348.50           6840          51.00       221.88
  198.13        3348.75           6844          55.00       239.32
  198.16        3349.00           6848          41.00       178.29
  198.18        3349.25           6851          53.00       230.60
  198.21        3349.50           6855          48.00       208.81
  198.24        3349.75           6859          49.00       213.17
  198.27        3350.00           6863          48.00       208.81
  198.30        3350.25           6866          48.00       208.81
  198.33        3350.50           6870          46.00       200.09
  198.36        3350.75           6874          47.00       204.45
  198.39        3351.00           6878          48.00       208.81
HL scan finished at 03:19:53
end
************************************************************
  HL Scan of (1) Internal mercury lamp
************************************************************
Integration time is 0.2294 seconds per sample
dh190418Delft 51.9969-4.3863 3.233369pr1000
************************************************************
Dead Time -------------------------  2.7E-08 
Number of Cycles Used -------------  4 
Starting Wavelength (Angstroms) ---  3331 
Final Wavelength (Angstoms) -------  3351 
Wavelength Increment (Angstroms) --  .25 
Filter Wheel #1 Position ---------- (1) Ground quartz diffuser (ND=2.32)
Filter Wheel #2 Position ---------- 



************************************************************
HL scan start time = 19:51:31
Dark Count =  .2 


Time (GMT)  Wavelength (Ang)  Step Number  Raw Counts  Counts/Second

 1192.28        3331.00           6579          46.00       199.65
 1192.69        3331.25           6582          48.00       208.37
 1192.72        3331.50           6586          46.00       199.65
 1192.75        3331.75           6590          47.00       204.01
 1192.78        3332.00           6594          49.00       212.73
 1192.81        3332.25           6597          49.00       212.73
 1192.84        3332.50           6601          45.00       195.29
 1192.87        3332.75           6605          52.00       225.81
 1192.90        3333.00           6608          49.00       212.73
 1192.93        3333.25           6612          50.00       217.09
 1192.96        3333.50           6616          49.00       212.73
 1192.99        3333.75           6620          45.00       195.29
 1193.02        3334.00           6623          47.00       204.01
 1193.05        3334.25           6627          46.00       199.65
 1193.08        3334.50           6631          53.00       230.17
 1193.11        3334.75           6635          53.00       230.17
 1193.14        3335.00           6638          48.00       208.37
 1193.16        3335.25           6642          58.00       251.96
 1193.20        3335.50           6646          66.00       286.84
 1193.22        3335.75           6649          60.00       260.68
 1193.25        3336.00           6653          64.00       278.12
 1193.28        3336.25           6657         107.00       465.57
 1193.31        3336.50           6661         882.00      3844.34
 1193.34        3336.75           6664        2430.00     10595.01
 1193.37        3337.00           6668        4394.00     19163.36
 1193.40        3337.25           6672        6321.00     27574.14
 1193.43        3337.50           6676        8432.00     36792.42
 1193.46        3337.75           6679       10202.00     44525.16
 1193.49        3338.00           6683       12658.00     55260.24
 1193.52        3338.25           6687       15281.00     66732.16
 1193.55        3338.50           6690       16857.00     73628.36
 1193.58        3338.75           6694       19102.00     83456.38
 1193.61        3339.00           6698       21287.00     93026.74
 1193.64        3339.25           6702       23777.00    103939.10
 1193.67        3339.50           6705       25586.00    111871.00
 1193.70        3339.75           6709       27769.00    121447.30
 1193.73        3340.00           6713       29954.00    131037.40
 1193.76        3340.25           6717       32073.00    140342.50
 1193.79        3340.50           6720       33820.00    148017.60
 1193.82        3340.75           6724       36050.00    157819.30
 1193.85        3341.00           6728       38624.00    169139.50
 1193.88        3341.25           6732       40282.00    176434.80
 1193.91        3341.50           6735       40694.00    178248.10
 1193.94        3341.75           6739       40730.00    178406.60
 1193.97        3342.00           6743       40642.00    178019.30
 1194.00        3342.25           6747       39075.00    171123.60
 1194.03        3342.50           6750       37715.00    165141.00
 1194.06        3342.75           6754       35468.00    155260.70
 1194.09        3343.00           6758       32919.00    144058.80
 1194.12        3343.25           6761       31051.00    135854.00
 1194.15        3343.50           6765       28851.00    126195.60
 1194.18        3343.75           6769       26662.00    116590.50
 1194.21        3344.00           6773       24580.00    107459.60
 1194.24        3344.25           6776       22711.00     99266.57
 1194.27        3344.50           6780       20275.00     88593.54
 1194.30        3344.75           6784       18037.00     78793.43
 1194.33        3345.00           6788       15846.00     69204.16
 1194.36        3345.25           6791       14010.00     61172.45
 1194.39        3345.50           6795       11580.00     50547.58
 1194.42        3345.75           6799        9109.00     39749.70
 1194.45        3346.00           6803        6453.00     28150.42
 1194.48        3346.25           6806        4812.00     20987.48
 1194.51        3346.50           6810        2664.00     11615.67
 1194.54        3346.75           6814         691.00      3011.58
 1194.57        3347.00           6818         151.00       657.38
 1194.60        3347.25           6821          86.00       374.02
 1194.63        3347.50           6825          80.00       347.87
 1194.66        3347.75           6829          78.00       339.15
 1194.69        3348.00           6833          69.00       299.92
 1194.72        3348.25           6836          53.00       230.17
 1194.75        3348.50           6840          54.00       234.53
 1194.78        3348.75           6844          50.00       217.09
 1194.81        3349.00           6848          53.00       230.17
 1194.84        3349.25           6851          53.00       230.17
 1194.87        3349.50           6855          56.00       243.24
 1194.90        3349.75           6859          46.00       199.65
 1194.93        3350.00           6863          52.00       225.81
 1194.96        3350.25           6866          52.00       225.81
 1194.99        3350.50           6870          50.00       217.09
 1195.02        3350.75           6874          55.00       238.89
 1195.05        3351.00           6878          51.00       221.45
HL scan finished at 19:56:32
end
