************************************************************
  HL Scan of (1) Internal mercury lamp
************************************************************
Integration time is 0.2294 seconds per sample
dh160418Delft 51.9969-4.3863 2.643241pr1000
************************************************************
Dead Time -------------------------  2.7E-08 
Number of Cycles Used -------------  4 
Starting Wavelength (Angstroms) ---  3331 
Final Wavelength (Angstoms) -------  3351 
Wavelength Increment (Angstroms) --  .25 
Filter Wheel #1 Position ---------- (1) Ground quartz diffuser (ND=2.32)
Filter Wheel #2 Position ---------- 



************************************************************
HL scan start time = 19:45:58
Dark Count =  .1 


Time (GMT)  Wavelength (Ang)  Step Number  Raw Counts  Counts/Second

 1186.73        3331.00           6579          42.00       182.65
 1187.14        3331.25           6582          50.00       217.53
 1187.17        3331.50           6586          42.00       182.65
 1187.20        3331.75           6590          41.00       178.29
 1187.23        3332.00           6594          40.00       173.93
 1187.26        3332.25           6597          45.00       195.73
 1187.29        3332.50           6601          43.00       187.01
 1187.32        3332.75           6605          44.00       191.37
 1187.35        3333.00           6608          42.00       182.65
 1187.38        3333.25           6612          44.00       191.37
 1187.41        3333.50           6616          41.00       178.29
 1187.44        3333.75           6620          39.00       169.57
 1187.47        3334.00           6623          50.00       217.53
 1187.50        3334.25           6627          41.00       178.29
 1187.53        3334.50           6631          43.00       187.01
 1187.56        3334.75           6635          40.00       173.93
 1187.59        3335.00           6638          41.00       178.29
 1187.61        3335.25           6642          57.00       248.04
 1187.64        3335.50           6646          59.00       256.76
 1187.67        3335.75           6649          57.00       248.04
 1187.70        3336.00           6653          66.00       287.27
 1187.73        3336.25           6657         117.00       509.60
 1187.76        3336.50           6661         837.00      3648.57
 1187.79        3336.75           6664        1998.00      8711.29
 1187.82        3337.00           6668        3582.00     15620.80
 1187.85        3337.25           6672        5174.00     22567.80
 1187.88        3337.50           6676        6772.00     29543.61
 1187.91        3337.75           6679        7738.00     33761.80
 1187.94        3338.00           6683        9393.00     40990.85
 1187.97        3338.25           6687       11013.00     48069.77
 1188.00        3338.50           6690       12322.00     53791.67
 1188.03        3338.75           6694       14083.00     61492.16
 1188.06        3339.00           6698       15887.00     69384.01
 1188.09        3339.25           6702       17257.00     75379.50
 1188.12        3339.50           6705       18441.00     80562.60
 1188.15        3339.75           6709       20087.00     87770.52
 1188.18        3340.00           6713       21732.00     94976.90
 1188.21        3340.25           6717       23051.00    100757.20
 1188.24        3340.50           6720       24157.00    105605.40
 1188.27        3340.75           6724       25929.00    113375.70
 1188.30        3341.00           6728       27332.00    119530.30
 1188.33        3341.25           6732       28510.00    124699.50
 1188.36        3341.50           6735       28790.00    125928.30
 1188.38        3341.75           6739       28753.00    125765.90
 1188.41        3342.00           6743       28305.00    123799.80
 1188.44        3342.25           6747       26913.00    117692.10
 1188.47        3342.50           6750       25767.00    112665.20
 1188.50        3342.75           6754       24246.00    105995.60
 1188.53        3343.00           6758       22757.00     99468.61
 1188.56        3343.25           6761       21690.00     94792.87
 1188.59        3343.50           6765       20029.00     87516.49
 1188.62        3343.75           6769       18096.00     79052.16
 1188.65        3344.00           6773       16404.00     71646.31
 1188.68        3344.25           6776       15425.00     67362.60
 1188.71        3344.50           6780       13759.00     60075.14
 1188.74        3344.75           6784       12112.00     52873.60
 1188.77        3345.00           6788       10489.00     45779.75
 1188.80        3345.25           6791        9268.00     40444.76
 1188.83        3345.50           6795        7761.00     33862.25
 1188.86        3345.75           6799        6135.00     26762.58
 1188.89        3346.00           6803        4230.00     18448.16
 1188.92        3346.25           6806        2929.00     12772.06
 1188.95        3346.50           6810        1260.00      5492.97
 1188.98        3346.75           6814         308.00      1342.25
 1189.01        3347.00           6818          97.00       422.41
 1189.04        3347.25           6821          63.00       274.20
 1189.07        3347.50           6825          58.00       252.40
 1189.10        3347.75           6829          52.00       226.24
 1189.13        3348.00           6833          55.00       239.32
 1189.16        3348.25           6836          54.00       234.96
 1189.19        3348.50           6840          50.00       217.53
 1189.22        3348.75           6844          45.00       195.73
 1189.24        3349.00           6848          47.00       204.45
 1189.28        3349.25           6851          42.00       182.65
 1189.30        3349.50           6855          48.00       208.81
 1189.33        3349.75           6859          45.00       195.73
 1189.36        3350.00           6863          49.00       213.17
 1189.39        3350.25           6866          45.00       195.73
 1189.42        3350.50           6870          48.00       208.81
 1189.45        3350.75           6874          43.00       187.01
 1189.48        3351.00           6878          43.00       187.01
HL scan finished at 19:50:58
end
