************************************************************
  HL Scan of (1) Internal mercury lamp
************************************************************
Integration time is 0.2294 seconds per sample
dh130418Delft 51.9969-4.3863 2.535944pr1000
************************************************************
Dead Time -------------------------  2.7E-08 
Number of Cycles Used -------------  4 
Starting Wavelength (Angstroms) ---  3331 
Final Wavelength (Angstoms) -------  3351 
Wavelength Increment (Angstroms) --  .25 
Filter Wheel #1 Position ---------- (1) Ground quartz diffuser (ND=2.32)
Filter Wheel #2 Position ---------- 



************************************************************
HL scan start time = 00:31:22
Dark Count =  0 


Time (GMT)  Wavelength (Ang)  Step Number  Raw Counts  Counts/Second

   32.12        3331.00           6579          49.00       213.60
   32.54        3331.25           6582          47.00       204.88
   32.56        3331.50           6586          45.00       196.16
   32.60        3331.75           6590          46.00       200.52
   32.63        3332.00           6594          50.00       217.96
   32.66        3332.25           6597          39.00       170.01
   32.69        3332.50           6601          38.00       165.65
   32.72        3332.75           6605          45.00       196.16
   32.75        3333.00           6608          43.00       187.45
   32.78        3333.25           6612          46.00       200.52
   32.81        3333.50           6616          43.00       187.45
   32.84        3333.75           6620          44.00       191.81
   32.87        3334.00           6623          42.00       183.09
   32.90        3334.25           6627          43.00       187.45
   32.93        3334.50           6631          52.00       226.68
   32.96        3334.75           6635          49.00       213.60
   32.99        3335.00           6638          50.00       217.96
   33.02        3335.25           6642          54.00       235.40
   33.05        3335.50           6646          67.00       292.07
   33.08        3335.75           6649          66.00       287.71
   33.11        3336.00           6653          68.00       296.43
   33.14        3336.25           6657         101.00       440.28
   33.17        3336.50           6661         610.00      2659.30
   33.20        3336.75           6664        1768.00      7708.67
   33.23        3337.00           6668        3555.00     15503.44
   33.26        3337.25           6672        5474.00     23877.64
   33.29        3337.50           6676        7664.00     33439.07
   33.32        3337.75           6679        9049.00     39488.47
   33.35        3338.00           6683       10942.00     47759.89
   33.38        3338.25           6687       12960.00     56581.58
   33.41        3338.50           6690       14477.00     63215.92
   33.44        3338.75           6694       16330.00     71322.93
   33.47        3339.00           6698       17988.00     78579.81
   33.50        3339.25           6702       19800.00     86513.97
   33.53        3339.50           6705       21041.00     91949.88
   33.56        3339.75           6709       23255.00    101651.80
   33.59        3340.00           6713       25142.00    109924.70
   33.62        3340.25           6717       26758.00    117012.50
   33.65        3340.50           6720       28027.00    122580.30
   33.68        3340.75           6724       29817.00    130436.80
   33.71        3341.00           6728       31449.00    137602.70
   33.74        3341.25           6732       32646.00    142860.40
   33.77        3341.50           6735       33022.00    144512.20
   33.80        3341.75           6739       32873.00    143857.60
   33.83        3342.00           6743       32374.00    141665.50
   33.86        3342.25           6747       30952.00    135420.10
   33.89        3342.50           6750       29395.00    128584.30
   33.92        3342.75           6754       27503.00    120281.00
   33.95        3343.00           6758       25693.00    112341.10
   33.98        3343.25           6761       24237.00    105956.60
   34.01        3343.50           6765       22436.00     98062.27
   34.04        3343.75           6769       20521.00     89671.96
   34.07        3344.00           6773       18921.00     82664.68
   34.10        3344.25           6776       17624.00     76986.37
   34.13        3344.50           6780       15817.00     69078.16
   34.16        3344.75           6784       13706.00     59843.78
   34.19        3345.00           6788       11745.00     51269.71
   34.22        3345.25           6791       10256.00     44762.00
   34.25        3345.50           6795        8634.00     37675.63
   34.28        3345.75           6799        6726.00     29343.21
   34.31        3346.00           6803        4837.00     21097.46
   34.34        3346.25           6806        3447.00     15032.25
   34.37        3346.50           6810        1778.00      7752.28
   34.40        3346.75           6814         542.00      2362.84
   34.43        3347.00           6818         130.00       566.70
   34.46        3347.25           6821          70.00       305.15
   34.49        3347.50           6825          76.00       331.30
   34.52        3347.75           6829          56.00       244.12
   34.55        3348.00           6833          61.00       265.91
   34.58        3348.25           6836          53.00       231.04
   34.61        3348.50           6840          46.00       200.52
   34.64        3348.75           6844          50.00       217.96
   34.67        3349.00           6848          46.00       200.52
   34.70        3349.25           6851          44.00       191.81
   34.73        3349.50           6855          49.00       213.60
   34.76        3349.75           6859          48.00       209.24
   34.79        3350.00           6863          55.00       239.76
   34.82        3350.25           6866          44.00       191.81
   34.85        3350.50           6870          45.00       196.16
   34.88        3350.75           6874          42.00       183.09
   34.91        3351.00           6878          44.00       191.81
HL scan finished at 00:36:24
end
************************************************************
  HL Scan of (1) Internal mercury lamp
************************************************************
Integration time is 0.2294 seconds per sample
dh130418Delft 51.9969-4.3863 2.535944pr1000
************************************************************
Dead Time -------------------------  2.7E-08 
Number of Cycles Used -------------  4 
Starting Wavelength (Angstroms) ---  3331 
Final Wavelength (Angstoms) -------  3351 
Wavelength Increment (Angstroms) --  .25 
Filter Wheel #1 Position ---------- (1) Ground quartz diffuser (ND=2.32)
Filter Wheel #2 Position ---------- 



************************************************************
HL scan start time = 03:36:07
Dark Count =  .1 


Time (GMT)  Wavelength (Ang)  Step Number  Raw Counts  Counts/Second

  216.89        3331.00           6579          42.00       182.65
  217.30        3331.25           6582          47.00       204.45
  217.33        3331.50           6586          44.00       191.37
  217.36        3331.75           6590          47.00       204.45
  217.39        3332.00           6594          36.00       156.50
  217.42        3332.25           6597          42.00       182.65
  217.45        3332.50           6601          50.00       217.53
  217.48        3332.75           6605          42.00       182.65
  217.51        3333.00           6608          40.00       173.93
  217.54        3333.25           6612          43.00       187.01
  217.57        3333.50           6616          45.00       195.73
  217.60        3333.75           6620          38.00       165.21
  217.63        3334.00           6623          42.00       182.65
  217.66        3334.25           6627          39.00       169.57
  217.69        3334.50           6631          42.00       182.65
  217.72        3334.75           6635          50.00       217.53
  217.75        3335.00           6638          40.00       173.93
  217.78        3335.25           6642          61.00       265.48
  217.81        3335.50           6646          53.00       230.60
  217.84        3335.75           6649          56.00       243.68
  217.87        3336.00           6653          56.00       243.68
  217.90        3336.25           6657         115.00       500.88
  217.93        3336.50           6661         810.00      3530.85
  217.96        3336.75           6664        1822.00      7943.73
  217.99        3337.00           6668        3326.00     14503.94
  218.02        3337.25           6672        4923.00     21472.34
  218.05        3337.50           6676        6400.00     27919.47
  218.08        3337.75           6679        7418.00     32364.36
  218.11        3338.00           6683        8892.00     38802.18
  218.14        3338.25           6687       10413.00     45447.63
  218.17        3338.50           6690       11848.00     51719.52
  218.20        3338.75           6694       13568.00     59239.84
  218.23        3339.00           6698       15002.00     65512.03
  218.26        3339.25           6702       16531.00     72202.09
  218.29        3339.50           6705       17538.00     76609.48
  218.32        3339.75           6709       19134.00     83596.93
  218.35        3340.00           6713       20703.00     90468.76
  218.38        3340.25           6717       22140.00     96764.69
  218.41        3340.50           6720       23360.00    102111.60
  218.44        3340.75           6724       24621.00    107639.80
  218.47        3341.00           6728       26175.00    114454.70
  218.50        3341.25           6732       27281.00    119306.60
  218.53        3341.50           6735       27514.00    120328.90
  218.56        3341.75           6739       27537.00    120429.80
  218.59        3342.00           6743       27142.00    118696.70
  218.62        3342.25           6747       25894.00    113222.20
  218.65        3342.50           6750       24728.00    108108.90
  218.68        3342.75           6754       23340.00    102023.90
  218.71        3343.00           6758       21698.00     94827.92
  218.74        3343.25           6761       20769.00     90757.88
  218.77        3343.50           6765       19183.00     83811.50
  218.80        3343.75           6769       17332.00     75707.79
  218.83        3344.00           6773       15949.00     69655.29
  218.86        3344.25           6776       14663.00     64029.09
  218.89        3344.50           6780       13226.00     57744.28
  218.92        3344.75           6784       11681.00     50989.51
  218.95        3345.00           6788       10043.00     43830.83
  218.98        3345.25           6791        8955.00     39077.39
  219.01        3345.50           6795        7456.00     32530.30
  219.04        3345.75           6799        5874.00     25623.21
  219.07        3346.00           6803        4118.00     17959.45
  219.10        3346.25           6806        2806.00     12235.52
  219.13        3346.50           6810        1249.00      5445.00
  219.16        3346.75           6814         304.00      1324.81
  219.19        3347.00           6818          83.00       361.38
  219.22        3347.25           6821          68.00       295.99
  219.25        3347.50           6825          56.00       243.68
  219.28        3347.75           6829          60.00       261.12
  219.31        3348.00           6833          60.00       261.12
  219.34        3348.25           6836          53.00       230.60
  219.37        3348.50           6840          51.00       221.88
  219.40        3348.75           6844          48.00       208.81
  219.43        3349.00           6848          40.00       173.93
  219.46        3349.25           6851          48.00       208.81
  219.49        3349.50           6855          43.00       187.01
  219.52        3349.75           6859          40.00       173.93
  219.56        3350.00           6863          46.00       200.09
  219.58        3350.25           6866          44.00       191.37
  219.62        3350.50           6870          42.00       182.65
  219.64        3350.75           6874          47.00       204.45
  219.67        3351.00           6878          46.00       200.09
HL scan finished at 03:41:10
end
************************************************************
  HL Scan of (1) Internal mercury lamp
************************************************************
Integration time is 0.2294 seconds per sample
dh130418Delft 51.9969-4.3863 2.589593pr1000
************************************************************
Dead Time -------------------------  2.7E-08 
Number of Cycles Used -------------  4 
Starting Wavelength (Angstroms) ---  3331 
Final Wavelength (Angstoms) -------  3351 
Wavelength Increment (Angstroms) --  .25 
Filter Wheel #1 Position ---------- (1) Ground quartz diffuser (ND=2.32)
Filter Wheel #2 Position ---------- 



************************************************************
HL scan start time = 19:42:21
Dark Count =  .1 


Time (GMT)  Wavelength (Ang)  Step Number  Raw Counts  Counts/Second

 1183.12        3331.00           6579          42.00       182.65
 1183.53        3331.25           6582          39.00       169.57
 1183.56        3331.50           6586          45.00       195.73
 1183.59        3331.75           6590          46.00       200.09
 1183.62        3332.00           6594          42.00       182.65
 1183.65        3332.25           6597          41.00       178.29
 1183.68        3332.50           6601          46.00       200.09
 1183.71        3332.75           6605          45.00       195.73
 1183.74        3333.00           6608          44.00       191.37
 1183.77        3333.25           6612          42.00       182.65
 1183.80        3333.50           6616          40.00       173.93
 1183.83        3333.75           6620          39.00       169.57
 1183.86        3334.00           6623          40.00       173.93
 1183.89        3334.25           6627          50.00       217.53
 1183.92        3334.50           6631          49.00       213.17
 1183.95        3334.75           6635          48.00       208.81
 1183.98        3335.00           6638          49.00       213.17
 1184.01        3335.25           6642          54.00       234.96
 1184.04        3335.50           6646          53.00       230.60
 1184.07        3335.75           6649          57.00       248.04
 1184.10        3336.00           6653          63.00       274.20
 1184.13        3336.25           6657          95.00       413.69
 1184.16        3336.50           6661         700.00      3051.25
 1184.19        3336.75           6664        1854.00      8083.28
 1184.22        3337.00           6668        3271.00     14263.99
 1184.25        3337.25           6672        4690.00     20455.50
 1184.28        3337.50           6676        6380.00     27832.15
 1184.31        3337.75           6679        7538.00     32888.39
 1184.34        3338.00           6683        9304.00     40602.03
 1184.37        3338.25           6687       11168.00     48747.21
 1184.40        3338.50           6690       12595.00     54985.24
 1184.43        3338.75           6694       14011.00     61177.26
 1184.46        3339.00           6698       15802.00     69012.08
 1184.49        3339.25           6702       17498.00     76434.40
 1184.52        3339.50           6705       18606.00     81285.01
 1184.55        3339.75           6709       20098.00     87818.71
 1184.58        3340.00           6713       21741.00     95016.34
 1184.61        3340.25           6717       23211.00    101458.50
 1184.64        3340.50           6720       24496.00    107091.70
 1184.67        3340.75           6724       26023.00    113788.00
 1184.70        3341.00           6728       27597.00    120693.00
 1184.73        3341.25           6732       28442.00    124401.00
 1184.76        3341.50           6735       28684.00    125463.10
 1184.79        3341.75           6739       28686.00    125471.90
 1184.82        3342.00           6743       28276.00    123672.50
 1184.85        3342.25           6747       27075.00    118402.80
 1184.88        3342.50           6750       25924.00    113353.80
 1184.91        3342.75           6754       24229.00    105921.10
 1184.94        3343.00           6758       22774.00     99543.12
 1184.97        3343.25           6761       21270.00     92952.71
 1185.00        3343.50           6765       19689.00     86027.40
 1185.03        3343.75           6769       18036.00     78789.50
 1185.06        3344.00           6773       16491.00     72027.03
 1185.09        3344.25           6776       15233.00     66522.60
 1185.12        3344.50           6780       13578.00     59283.58
 1185.15        3344.75           6784       12049.00     52598.19
 1185.18        3345.00           6788       10329.00     45080.57
 1185.21        3345.25           6791        9149.00     39924.88
 1185.24        3345.50           6795        7480.00     32635.11
 1185.28        3345.75           6799        5775.00     25191.06
 1185.30        3346.00           6803        4033.00     17588.56
 1185.34        3346.25           6806        2910.00     12689.18
 1185.36        3346.50           6810        1526.00      6652.90
 1185.40        3346.75           6814         383.00      1669.21
 1185.43        3347.00           6818         103.00       448.57
 1185.46        3347.25           6821          61.00       265.48
 1185.48        3347.50           6825          61.00       265.48
 1185.52        3347.75           6829          61.00       265.48
 1185.54        3348.00           6833          52.00       226.24
 1185.58        3348.25           6836          53.00       230.60
 1185.60        3348.50           6840          48.00       208.81
 1185.64        3348.75           6844          45.00       195.73
 1185.66        3349.00           6848          43.00       187.01
 1185.70        3349.25           6851          45.00       195.73
 1185.72        3349.50           6855          43.00       187.01
 1185.76        3349.75           6859          38.00       165.21
 1185.79        3350.00           6863          40.00       173.93
 1185.82        3350.25           6866          43.00       187.01
 1185.85        3350.50           6870          49.00       213.17
 1185.88        3350.75           6874          41.00       178.29
 1185.91        3351.00           6878          45.00       195.73
HL scan finished at 19:47:24
end
