************************************************************
  HL Scan of (1) Internal mercury lamp
************************************************************
Integration time is 0.2294 seconds per sample
dh150417DelftKZ 51.997-4.386 2.482296pr1000
************************************************************
Dead Time -------------------------  3E-08 
Number of Cycles Used -------------  4 
Starting Wavelength (Angstroms) ---  3331 
Final Wavelength (Angstoms) -------  3351 
Wavelength Increment (Angstroms) --  .25 
Filter Wheel #1 Position ---------- (1) Ground quartz diffuser (ND=2.32)
Filter Wheel #2 Position ---------- 



************************************************************
HL scan start time = 03:12:34
Dark Count =  0 


Time (GMT)  Wavelength (Ang)  Step Number  Raw Counts  Counts/Second

  193.32        3331.00           6581          42.00       183.09
  193.73        3331.25           6584          46.00       200.52
  193.75        3331.50           6588          42.00       183.09
  193.78        3331.75           6592          47.00       204.88
  193.81        3332.00           6595          41.00       178.73
  193.84        3332.25           6599          44.00       191.81
  193.87        3332.50           6603          38.00       165.65
  193.89        3332.75           6607          45.00       196.17
  193.92        3333.00           6610          47.00       204.88
  193.95        3333.25           6614          44.00       191.81
  193.98        3333.50           6618          39.00       170.01
  194.00        3333.75           6622          40.00       174.37
  194.03        3334.00           6625          42.00       183.09
  194.06        3334.25           6629          38.00       165.65
  194.09        3334.50           6633          44.00       191.81
  194.12        3334.75           6636          50.00       217.96
  194.15        3335.00           6640          41.00       178.73
  194.18        3335.25           6644          52.00       226.68
  194.21        3335.50           6648          51.00       222.32
  194.23        3335.75           6651          60.00       261.55
  194.26        3336.00           6655          75.00       326.94
  194.29        3336.25           6659         400.00      1743.77
  194.32        3336.50           6663        1576.00      6871.51
  194.35        3336.75           6666        2618.00     11416.29
  194.37        3337.00           6670        4156.00     18126.68
  194.40        3337.25           6674        5477.00     23892.45
  194.43        3337.50           6677        6516.00     28428.77
  194.46        3337.75           6681        7566.00     33014.37
  194.49        3338.00           6685        8927.00     38960.07
  194.52        3338.25           6689       10403.00     45410.57
  194.55        3338.50           6692       11607.00     50674.19
  194.58        3338.75           6696       13133.00     57347.92
  194.60        3339.00           6700       14417.00     62965.39
  194.63        3339.25           6704       15771.00     68891.15
  194.66        3339.50           6707       16955.00     74074.63
  194.69        3339.75           6711       18601.00     81283.41
  194.71        3340.00           6715       19753.00     86330.54
  194.74        3340.25           6719       20960.00     91620.28
  194.77        3340.50           6722       22196.00     97038.84
  194.80        3340.75           6726       23389.00    102270.60
  194.83        3341.00           6730       24651.00    107806.70
  194.85        3341.25           6733       24914.00    108960.70
  194.88        3341.50           6737       24902.00    108908.00
  194.91        3341.75           6741       24981.00    109254.60
  194.95        3342.00           6745       24070.00    105257.80
  194.97        3342.25           6748       23133.00    101147.80
  195.00        3342.50           6752       21621.00     94517.84
  195.03        3342.75           6756       20461.00     89433.18
  195.06        3343.00           6760       19002.00     83040.10
  195.08        3343.25           6763       17828.00     77897.60
  195.11        3343.50           6767       16239.00     70939.83
  195.14        3343.75           6771       14878.00     64982.71
  195.17        3344.00           6775       13465.00     58800.24
  195.19        3344.25           6778       12612.00     55069.11
  195.22        3344.50           6782       11275.00     49222.59
  195.25        3344.75           6786        9684.00     42268.04
  195.28        3345.00           6790        8414.00     36718.72
  195.31        3345.25           6793        7335.00     32005.43
  195.33        3345.50           6797        5953.00     25970.53
  195.36        3345.75           6801        4310.00     18798.74
  195.39        3346.00           6805        2789.00     12162.24
  195.42        3346.25           6808        1688.00      7359.95
  195.44        3346.50           6812         453.00      1974.83
  195.47        3346.75           6816         111.00       483.88
  195.50        3347.00           6819          66.00       287.71
  195.53        3347.25           6823          53.00       231.04
  195.55        3347.50           6827          63.00       274.63
  195.58        3347.75           6831          50.00       217.96
  195.61        3348.00           6834          54.00       235.40
  195.65        3348.25           6838          50.00       217.96
  195.67        3348.50           6842          45.00       196.17
  195.70        3348.75           6846          42.00       183.09
  195.73        3349.00           6849          48.00       209.24
  195.76        3349.25           6853          45.00       196.17
  195.78        3349.50           6857          40.00       174.37
  195.81        3349.75           6861          44.00       191.81
  195.84        3350.00           6864          43.00       187.45
  195.87        3350.25           6868          35.00       152.57
  195.89        3350.50           6872          43.00       187.45
  195.92        3350.75           6876          38.00       165.65
  195.96        3351.00           6879          41.00       178.73
HL scan finished at 03:17:26
end
