************************************************************
  HL Scan of (1) Internal mercury lamp
************************************************************
Integration time is 0.2294 seconds per sample
dh100418Delft 51.9969-4.3863 2.589593pr1000
************************************************************
Dead Time -------------------------  2.7E-08 
Number of Cycles Used -------------  4 
Starting Wavelength (Angstroms) ---  3331 
Final Wavelength (Angstoms) -------  3351 
Wavelength Increment (Angstroms) --  .25 
Filter Wheel #1 Position ---------- (1) Ground quartz diffuser (ND=2.32)
Filter Wheel #2 Position ---------- 



************************************************************
HL scan start time = 03:46:09
Dark Count =  .1 


Time (GMT)  Wavelength (Ang)  Step Number  Raw Counts  Counts/Second

  226.91        3331.00           6579          42.00       182.65
  227.32        3331.25           6582          39.00       169.57
  227.35        3331.50           6586          45.00       195.73
  227.38        3331.75           6590          43.00       187.01
  227.41        3332.00           6594          43.00       187.01
  227.44        3332.25           6597          48.00       208.81
  227.47        3332.50           6601          35.00       152.14
  227.50        3332.75           6605          45.00       195.73
  227.53        3333.00           6608          39.00       169.57
  227.56        3333.25           6612          42.00       182.65
  227.59        3333.50           6616          44.00       191.37
  227.62        3333.75           6620          40.00       173.93
  227.65        3334.00           6623          44.00       191.37
  227.68        3334.25           6627          42.00       182.65
  227.71        3334.50           6631          38.00       165.21
  227.74        3334.75           6635          46.00       200.09
  227.77        3335.00           6638          47.00       204.45
  227.80        3335.25           6642          56.00       243.68
  227.83        3335.50           6646          48.00       208.81
  227.86        3335.75           6649          54.00       234.96
  227.89        3336.00           6653          65.00       282.91
  227.92        3336.25           6657         143.00       622.94
  227.95        3336.50           6661        1017.00      4433.40
  227.98        3336.75           6664        2150.00      9374.21
  228.01        3337.00           6668        3564.00     15542.27
  228.04        3337.25           6672        4932.00     21511.62
  228.07        3337.50           6676        6459.00     28177.05
  228.10        3337.75           6679        7712.00     33648.26
  228.13        3338.00           6683        9645.00     42091.84
  228.16        3338.25           6687       11369.00     49625.74
  228.19        3338.50           6690       12529.00     54696.68
  228.22        3338.75           6694       13979.00     61037.31
  228.25        3339.00           6698       15694.00     68539.54
  228.28        3339.25           6702       17498.00     76434.40
  228.31        3339.50           6705       18684.00     81626.52
  228.34        3339.75           6709       20288.00     88650.91
  228.37        3340.00           6713       21894.00     95686.74
  228.40        3340.25           6717       23306.00    101874.90
  228.43        3340.50           6720       24601.00    107552.10
  228.46        3340.75           6724       26398.00    115432.90
  228.49        3341.00           6728       27803.00    121596.90
  228.52        3341.25           6732       28891.00    126371.60
  228.55        3341.50           6735       28995.00    126828.10
  228.58        3341.75           6739       29019.00    126933.40
  228.61        3342.00           6743       28641.00    125274.40
  228.64        3342.25           6747       27564.00    120548.20
  228.67        3342.50           6750       26432.00    115582.00
  228.70        3342.75           6754       24716.00    108056.30
  228.73        3343.00           6758       22773.00     99538.74
  228.76        3343.25           6761       21608.00     94433.59
  228.79        3343.50           6765       20048.00     87599.71
  228.82        3343.75           6769       18235.00     79660.70
  228.85        3344.00           6773       16898.00     73808.25
  228.88        3344.25           6776       15678.00     68469.53
  228.91        3344.50           6780       13888.00     60639.32
  228.94        3344.75           6784       12331.00     53831.02
  228.97        3345.00           6788       10729.00     46828.58
  229.00        3345.25           6791        9389.00     40973.38
  229.03        3345.50           6795        7683.00     33521.61
  229.06        3345.75           6799        5881.00     25653.77
  229.09        3346.00           6803        4071.00     17754.37
  229.12        3346.25           6806        2897.00     12632.47
  229.15        3346.50           6810        1370.00      5972.63
  229.18        3346.75           6814         274.00      1194.02
  229.21        3347.00           6818          98.00       426.77
  229.24        3347.25           6821          67.00       291.63
  229.27        3347.50           6825          55.00       239.32
  229.30        3347.75           6829          56.00       243.68
  229.33        3348.00           6833          47.00       204.45
  229.36        3348.25           6836          50.00       217.53
  229.39        3348.50           6840          49.00       213.17
  229.42        3348.75           6844          46.00       200.09
  229.45        3349.00           6848          43.00       187.01
  229.48        3349.25           6851          42.00       182.65
  229.51        3349.50           6855          44.00       191.37
  229.54        3349.75           6859          46.00       200.09
  229.57        3350.00           6863          41.00       178.29
  229.60        3350.25           6866          45.00       195.73
  229.63        3350.50           6870          39.00       169.57
  229.66        3350.75           6874          43.00       187.01
  229.69        3351.00           6878          46.00       200.09
HL scan finished at 03:51:11
end
************************************************************
  HL Scan of (1) Internal mercury lamp
************************************************************
Integration time is 0.2294 seconds per sample
dh100418Delft 51.9969-4.3863 2.965129pr1000
************************************************************
Dead Time -------------------------  2.7E-08 
Number of Cycles Used -------------  4 
Starting Wavelength (Angstroms) ---  3331 
Final Wavelength (Angstoms) -------  3351 
Wavelength Increment (Angstroms) --  .25 
Filter Wheel #1 Position ---------- (1) Ground quartz diffuser (ND=2.32)
Filter Wheel #2 Position ---------- 



************************************************************
HL scan start time = 19:42:29
Dark Count =  .1 


Time (GMT)  Wavelength (Ang)  Step Number  Raw Counts  Counts/Second

 1183.24        3331.00           6579          43.00       187.01
 1183.65        3331.25           6582          43.00       187.01
 1183.68        3331.50           6586          46.00       200.09
 1183.71        3331.75           6590          46.00       200.09
 1183.74        3332.00           6594          44.00       191.37
 1183.77        3332.25           6597          46.00       200.09
 1183.80        3332.50           6601          44.00       191.37
 1183.83        3332.75           6605          45.00       195.73
 1183.86        3333.00           6608          44.00       191.37
 1183.89        3333.25           6612          48.00       208.81
 1183.92        3333.50           6616          50.00       217.53
 1183.95        3333.75           6620          45.00       195.73
 1183.98        3334.00           6623          47.00       204.45
 1184.01        3334.25           6627          50.00       217.53
 1184.04        3334.50           6631          49.00       213.17
 1184.07        3334.75           6635          48.00       208.81
 1184.10        3335.00           6638          52.00       226.24
 1184.13        3335.25           6642          60.00       261.12
 1184.16        3335.50           6646          59.00       256.76
 1184.19        3335.75           6649          66.00       287.27
 1184.22        3336.00           6653          75.00       326.51
 1184.25        3336.25           6657         102.00       444.21
 1184.28        3336.50           6661         633.00      2759.14
 1184.31        3336.75           6664        1817.00      7921.92
 1184.34        3337.00           6668        3823.00     16672.28
 1184.37        3337.25           6672        5790.00     25256.54
 1184.40        3337.50           6676        7635.00     33311.99
 1184.43        3337.75           6679        9310.00     40628.24
 1184.46        3338.00           6683       11297.00     49311.04
 1184.50        3338.25           6687       13465.00     58789.41
 1184.53        3338.50           6690       15505.00     67712.61
 1184.56        3338.75           6694       17811.00     77804.52
 1184.59        3339.00           6698       19689.00     86027.40
 1184.62        3339.25           6702       21817.00     95349.34
 1184.65        3339.50           6705       23350.00    102067.70
 1184.68        3339.75           6709       25342.00    110801.30
 1184.71        3340.00           6713       27194.00    118924.90
 1184.74        3340.25           6717       28977.00    126749.10
 1184.77        3340.50           6720       30508.00    133470.10
 1184.80        3340.75           6724       32621.00    142750.10
 1184.83        3341.00           6728       34785.00    152258.90
 1184.86        3341.25           6732       36345.00    159116.70
 1184.89        3341.50           6735       36471.00    159670.80
 1184.92        3341.75           6739       36641.00    160418.30
 1184.95        3342.00           6743       36214.00    158540.70
 1184.98        3342.25           6747       34631.00    151582.10
 1185.01        3342.50           6750       33395.00    146150.60
 1185.04        3342.75           6754       31515.00    137892.10
 1185.07        3343.00           6758       29313.00    128223.90
 1185.10        3343.25           6761       27764.00    121425.80
 1185.13        3343.50           6765       25884.00    113178.40
 1185.16        3343.75           6769       23574.00    103049.60
 1185.19        3344.00           6773       21465.00     93807.05
 1185.22        3344.25           6776       20032.00     87529.63
 1185.25        3344.50           6780       17676.00     77213.56
 1185.28        3344.75           6784       15592.00     68093.26
 1185.31        3345.00           6788       13682.00     59738.39
 1185.34        3345.25           6791       12263.00     53533.74
 1185.37        3345.50           6795       10238.00     44682.91
 1185.40        3345.75           6799        8070.00     35211.76
 1185.43        3346.00           6803        5698.00     24854.95
 1185.46        3346.25           6806        4045.00     17640.92
 1185.49        3346.50           6810        2202.00      9601.01
 1185.52        3346.75           6814         674.00      2937.90
 1185.55        3347.00           6818         158.00       688.33
 1185.58        3347.25           6821          78.00       339.58
 1185.61        3347.50           6825          72.00       313.43
 1185.64        3347.75           6829          58.00       252.40
 1185.67        3348.00           6833          63.00       274.20
 1185.70        3348.25           6836          54.00       234.96
 1185.73        3348.50           6840          58.00       252.40
 1185.76        3348.75           6844          53.00       230.60
 1185.79        3349.00           6848          54.00       234.96
 1185.82        3349.25           6851          55.00       239.32
 1185.85        3349.50           6855          41.00       178.29
 1185.88        3349.75           6859          50.00       217.53
 1185.91        3350.00           6863          44.00       191.37
 1185.94        3350.25           6866          52.00       226.24
 1185.97        3350.50           6870          45.00       195.73
 1186.00        3350.75           6874          42.00       182.65
 1186.02        3351.00           6878          51.00       221.88
HL scan finished at 19:47:31
end
