************************************************************
  HL Scan of (1) Internal mercury lamp
************************************************************
Integration time is 0.2294 seconds per sample
dh270418Delft 51.9969-4.3863 2.428648pr1000
************************************************************
Dead Time -------------------------  2.7E-08 
Number of Cycles Used -------------  4 
Starting Wavelength (Angstroms) ---  3331 
Final Wavelength (Angstoms) -------  3351 
Wavelength Increment (Angstroms) --  .25 
Filter Wheel #1 Position ---------- (1) Ground quartz diffuser (ND=2.32)
Filter Wheel #2 Position ---------- 



************************************************************
HL scan start time = 00:33:16
Dark Count =  .1 


Time (GMT)  Wavelength (Ang)  Step Number  Raw Counts  Counts/Second

   34.04        3331.00           6579          46.00       200.09
   34.45        3331.25           6582          43.00       187.01
   34.48        3331.50           6586          52.00       226.24
   34.51        3331.75           6590          42.00       182.65
   34.54        3332.00           6594          42.00       182.65
   34.57        3332.25           6597          47.00       204.45
   34.60        3332.50           6601          50.00       217.53
   34.63        3332.75           6605          47.00       204.45
   34.66        3333.00           6608          48.00       208.81
   34.69        3333.25           6612          48.00       208.81
   34.72        3333.50           6616          50.00       217.53
   34.75        3333.75           6620          44.00       191.37
   34.78        3334.00           6623          42.00       182.65
   34.80        3334.25           6627          47.00       204.45
   34.83        3334.50           6631          45.00       195.73
   34.86        3334.75           6635          44.00       191.37
   34.89        3335.00           6638          40.00       173.93
   34.92        3335.25           6642          48.00       208.81
   34.95        3335.50           6646          58.00       252.40
   34.98        3335.75           6649          58.00       252.40
   35.01        3336.00           6653          70.00       304.71
   35.04        3336.25           6657         104.00       452.93
   35.07        3336.50           6661         743.00      3238.73
   35.10        3336.75           6664        1709.00      7450.93
   35.13        3337.00           6668        3297.00     14377.42
   35.16        3337.25           6672        5015.00     21873.86
   35.19        3337.50           6676        6551.00     28578.71
   35.22        3337.75           6679        7729.00     33722.49
   35.25        3338.00           6683        9455.00     41261.73
   35.28        3338.25           6687       11176.00     48782.17
   35.31        3338.50           6690       12460.00     54395.00
   35.34        3338.75           6694       14459.00     63136.75
   35.37        3339.00           6698       16027.00     69996.60
   35.40        3339.25           6702       17700.00     77318.61
   35.43        3339.50           6705       18977.00     82909.46
   35.46        3339.75           6709       20765.00     90740.35
   35.49        3340.00           6713       22075.00     96479.85
   35.52        3340.25           6717       23585.00    103097.80
   35.55        3340.50           6720       24632.00    107688.00
   35.58        3340.75           6724       26394.00    115415.30
   35.61        3341.00           6728       27852.00    121811.90
   35.64        3341.25           6732       29086.00    127227.50
   35.67        3341.50           6735       29070.00    127157.30
   35.70        3341.75           6739       28990.00    126806.10
   35.73        3342.00           6743       28586.00    125033.00
   35.76        3342.25           6747       27419.00    119912.00
   35.79        3342.50           6750       26019.00    113770.50
   35.82        3342.75           6754       24886.00    108801.70
   35.85        3343.00           6758       23085.00    100906.20
   35.88        3343.25           6761       21896.00     95695.49
   35.91        3343.50           6765       20150.00     88046.47
   35.93        3343.75           6769       18419.00     80466.27
   35.97        3344.00           6773       16696.00     72924.18
   35.99        3344.25           6776       15662.00     68399.53
   36.03        3344.50           6780       13805.00     60276.31
   36.06        3344.75           6784       11991.00     52344.64
   36.08        3345.00           6788       10395.00     45368.97
   36.11        3345.25           6791        9175.00     40038.47
   36.14        3345.50           6795        7730.00     33726.86
   36.17        3345.75           6799        6117.00     26684.00
   36.20        3346.00           6803        4276.00     18648.88
   36.23        3346.25           6806        3028.00     13203.92
   36.26        3346.50           6810        1458.00      6356.37
   36.29        3346.75           6814         351.00      1529.71
   36.32        3347.00           6818          95.00       413.69
   36.35        3347.25           6821          68.00       295.99
   36.38        3347.50           6825          61.00       265.48
   36.41        3347.75           6829          61.00       265.48
   36.44        3348.00           6833          54.00       234.96
   36.47        3348.25           6836          50.00       217.53
   36.50        3348.50           6840          47.00       204.45
   36.53        3348.75           6844          48.00       208.81
   36.56        3349.00           6848          42.00       182.65
   36.59        3349.25           6851          50.00       217.53
   36.62        3349.50           6855          44.00       191.37
   36.65        3349.75           6859          48.00       208.81
   36.68        3350.00           6863          44.00       191.37
   36.71        3350.25           6866          48.00       208.81
   36.74        3350.50           6870          51.00       221.88
   36.77        3350.75           6874          44.00       191.37
   36.80        3351.00           6878          44.00       191.37
HL scan finished at 00:38:17
end
************************************************************
  HL Scan of (1) Internal mercury lamp
************************************************************
Integration time is 0.2294 seconds per sample
dh270418Delft 51.9969-4.3863 2.482296pr1000
************************************************************
Dead Time -------------------------  2.7E-08 
Number of Cycles Used -------------  4 
Starting Wavelength (Angstroms) ---  3331 
Final Wavelength (Angstoms) -------  3351 
Wavelength Increment (Angstroms) --  .25 
Filter Wheel #1 Position ---------- (1) Ground quartz diffuser (ND=2.32)
Filter Wheel #2 Position ---------- 



************************************************************
HL scan start time = 02:43:25
Dark Count =  .1 


Time (GMT)  Wavelength (Ang)  Step Number  Raw Counts  Counts/Second

  164.18        3331.00           6579          37.00       160.86
  164.58        3331.25           6582          42.00       182.65
  164.62        3331.50           6586          40.00       173.93
  164.64        3331.75           6590          40.00       173.93
  164.67        3332.00           6594          41.00       178.29
  164.70        3332.25           6597          40.00       173.93
  164.73        3332.50           6601          48.00       208.81
  164.76        3332.75           6605          41.00       178.29
  164.79        3333.00           6608          48.00       208.81
  164.82        3333.25           6612          39.00       169.57
  164.85        3333.50           6616          35.00       152.14
  164.88        3333.75           6620          43.00       187.01
  164.91        3334.00           6623          38.00       165.21
  164.94        3334.25           6627          43.00       187.01
  164.97        3334.50           6631          41.00       178.29
  165.00        3334.75           6635          39.00       169.57
  165.03        3335.00           6638          46.00       200.09
  165.06        3335.25           6642          50.00       217.53
  165.09        3335.50           6646          53.00       230.60
  165.12        3335.75           6649          55.00       239.32
  165.15        3336.00           6653          60.00       261.12
  165.18        3336.25           6657          78.00       339.58
  165.21        3336.50           6661         471.00      2052.86
  165.24        3336.75           6664        1400.00      6103.45
  165.27        3337.00           6668        2735.00     11925.81
  165.30        3337.25           6672        4302.00     18762.34
  165.33        3337.50           6676        5859.00     25557.74
  165.36        3337.75           6679        6856.00     29910.37
  165.39        3338.00           6683        8488.00     37037.46
  165.42        3338.25           6687        9926.00     43319.60
  165.45        3338.50           6690       11108.00     48484.97
  165.48        3338.75           6694       12409.00     54172.04
  165.51        3339.00           6698       13716.00     59887.08
  165.54        3339.25           6702       15118.00     66019.50
  165.57        3339.50           6705       16127.00     70434.18
  165.60        3339.75           6709       17724.00     77423.68
  165.63        3340.00           6713       19250.00     84104.90
  165.66        3340.25           6717       20559.00     89837.97
  165.69        3340.50           6720       21389.00     93474.06
  165.72        3340.75           6724       22838.00     99823.62
  165.75        3341.00           6728       24013.00    104974.10
  165.78        3341.25           6732       25090.00    109696.30
  165.80        3341.50           6735       25206.00    110204.90
  165.83        3341.75           6739       25158.00    109994.50
  165.86        3342.00           6743       24873.00    108744.70
  165.90        3342.25           6747       23509.00    102764.70
  165.92        3342.50           6750       22452.00     98131.94
  165.96        3342.75           6754       21030.00     91901.26
  165.99        3343.00           6758       19702.00     86084.34
  166.01        3343.25           6761       18605.00     81280.63
  166.04        3343.50           6765       17033.00     74399.10
  166.07        3343.75           6769       15853.00     69235.24
  166.10        3344.00           6773       14467.00     63171.74
  166.13        3344.25           6776       13471.00     58815.65
  166.16        3344.50           6780       12100.00     52821.14
  166.19        3344.75           6784       10560.00     46090.02
  166.22        3345.00           6788        8906.00     38863.34
  166.25        3345.25           6791        7856.00     34277.13
  166.28        3345.50           6795        6512.00     28408.45
  166.31        3345.75           6799        5158.00     22497.97
  166.34        3346.00           6803        3727.00     16253.43
  166.37        3346.25           6806        2601.00     11341.31
  166.40        3346.50           6810        1371.00      5976.99
  166.43        3346.75           6814         380.00      1656.13
  166.46        3347.00           6818          92.00       400.61
  166.49        3347.25           6821          58.00       252.40
  166.52        3347.50           6825          57.00       248.04
  166.55        3347.75           6829          53.00       230.60
  166.58        3348.00           6833          50.00       217.53
  166.61        3348.25           6836          44.00       191.37
  166.64        3348.50           6840          46.00       200.09
  166.67        3348.75           6844          46.00       200.09
  166.70        3349.00           6848          39.00       169.57
  166.73        3349.25           6851          43.00       187.01
  166.76        3349.50           6855          39.00       169.57
  166.79        3349.75           6859          40.00       173.93
  166.82        3350.00           6863          33.00       143.42
  166.85        3350.25           6866          43.00       187.01
  166.88        3350.50           6870          44.00       191.37
  166.91        3350.75           6874          38.00       165.21
  166.94        3351.00           6878          42.00       182.65
HL scan finished at 02:48:26
end
************************************************************
  HL Scan of (1) Internal mercury lamp
************************************************************
Integration time is 0.2294 seconds per sample
dh270418Delft 51.9969-4.3863 2.696889pr1000
************************************************************
Dead Time -------------------------  2.7E-08 
Number of Cycles Used -------------  4 
Starting Wavelength (Angstroms) ---  3331 
Final Wavelength (Angstoms) -------  3351 
Wavelength Increment (Angstroms) --  .25 
Filter Wheel #1 Position ---------- (1) Ground quartz diffuser (ND=2.32)
Filter Wheel #2 Position ---------- 



************************************************************
HL scan start time = 20:05:56
Dark Count =  0 


Time (GMT)  Wavelength (Ang)  Step Number  Raw Counts  Counts/Second

 1206.70        3331.00           6579          48.00       209.24
 1207.11        3331.25           6582          40.00       174.37
 1207.14        3331.50           6586          40.00       174.37
 1207.17        3331.75           6590          47.00       204.88
 1207.20        3332.00           6594          47.00       204.88
 1207.23        3332.25           6597          42.00       183.09
 1207.26        3332.50           6601          39.00       170.01
 1207.29        3332.75           6605          40.00       174.37
 1207.32        3333.00           6608          50.00       217.96
 1207.35        3333.25           6612          48.00       209.24
 1207.38        3333.50           6616          44.00       191.81
 1207.41        3333.75           6620          41.00       178.73
 1207.44        3334.00           6623          33.00       143.85
 1207.47        3334.25           6627          47.00       204.88
 1207.50        3334.50           6631          43.00       187.45
 1207.53        3334.75           6635          41.00       178.73
 1207.55        3335.00           6638          47.00       204.88
 1207.58        3335.25           6642          57.00       248.48
 1207.62        3335.50           6646          57.00       248.48
 1207.64        3335.75           6649          57.00       248.48
 1207.67        3336.00           6653          63.00       274.63
 1207.70        3336.25           6657         105.00       457.72
 1207.73        3336.50           6661         637.00      2777.02
 1207.76        3336.75           6664        1722.00      7508.06
 1207.79        3337.00           6668        3503.00     15276.57
 1207.82        3337.25           6672        5210.00     22725.36
 1207.85        3337.50           6676        6911.00     30150.95
 1207.88        3337.75           6679        7915.00     34535.24
 1207.91        3338.00           6683        9587.00     41838.87
 1207.94        3338.25           6687       11464.00     50041.42
 1207.97        3338.50           6690       12795.00     55860.12
 1208.00        3338.75           6694       14276.00     62336.74
 1208.03        3339.00           6698       16139.00     70487.11
 1208.06        3339.25           6702       17808.00     77791.83
 1208.09        3339.50           6705       19052.00     83238.30
 1208.12        3339.75           6709       20978.00     91673.88
 1208.15        3340.00           6713       22571.00     98653.89
 1208.18        3340.25           6717       24167.00    105649.70
 1208.21        3340.50           6720       25541.00    111674.50
 1208.24        3340.75           6724       27406.00    119855.40
 1208.27        3341.00           6728       28688.00    125481.10
 1208.30        3341.25           6732       29672.00    129800.20
 1208.33        3341.50           6735       29939.00    130972.40
 1208.36        3341.75           6739       30036.00    131398.20
 1208.39        3342.00           6743       29645.00    129681.70
 1208.42        3342.25           6747       28050.00    122681.20
 1208.45        3342.50           6750       26957.00    117885.50
 1208.48        3342.75           6754       25437.00    111218.40
 1208.51        3343.00           6758       23903.00    104492.30
 1208.54        3343.25           6761       22619.00     98864.25
 1208.57        3343.50           6765       20834.00     91043.06
 1208.60        3343.75           6769       19427.00     84880.44
 1208.63        3344.00           6773       17804.00     77774.31
 1208.66        3344.25           6776       16454.00     71865.56
 1208.69        3344.50           6780       14653.00     63985.78
 1208.72        3344.75           6784       12822.00     55978.18
 1208.75        3345.00           6788       10859.00     47397.15
 1208.78        3345.25           6791        9608.00     41930.62
 1208.81        3345.50           6795        7982.00     34827.85
 1208.84        3345.75           6799        6081.00     26527.28
 1208.87        3346.00           6803        4317.00     18828.23
 1208.90        3346.25           6806        3202.00     13963.42
 1208.93        3346.50           6810        1748.00      7621.45
 1208.96        3346.75           6814         527.00      2297.44
 1208.99        3347.00           6818         125.00       544.91
 1209.02        3347.25           6821          64.00       278.99
 1209.05        3347.50           6825          60.00       261.55
 1209.08        3347.75           6829          64.00       278.99
 1209.11        3348.00           6833          51.00       222.32
 1209.13        3348.25           6836          54.00       235.40
 1209.16        3348.50           6840          49.00       213.60
 1209.19        3348.75           6844          51.00       222.32
 1209.22        3349.00           6848          42.00       183.09
 1209.25        3349.25           6851          46.00       200.52
 1209.28        3349.50           6855          45.00       196.16
 1209.31        3349.75           6859          45.00       196.16
 1209.34        3350.00           6863          41.00       178.73
 1209.37        3350.25           6866          45.00       196.16
 1209.40        3350.50           6870          48.00       209.24
 1209.43        3350.75           6874          41.00       178.73
 1209.46        3351.00           6878          47.00       204.88
HL scan finished at 20:10:57
end
