************************************************************
  HL Scan of (1) Internal mercury lamp
************************************************************
Integration time is 0.2294 seconds per sample
dh290418Delft 51.9969-4.3863 2.589593pr1000
************************************************************
Dead Time -------------------------  2.7E-08 
Number of Cycles Used -------------  4 
Starting Wavelength (Angstroms) ---  3331 
Final Wavelength (Angstoms) -------  3351 
Wavelength Increment (Angstroms) --  .25 
Filter Wheel #1 Position ---------- (1) Ground quartz diffuser (ND=2.32)
Filter Wheel #2 Position ---------- 



************************************************************
HL scan start time = 02:34:38
Dark Count =  0 


Time (GMT)  Wavelength (Ang)  Step Number  Raw Counts  Counts/Second

  155.40        3331.00           6579          41.00       178.73
  155.81        3331.25           6582          40.00       174.37
  155.84        3331.50           6586          41.00       178.73
  155.87        3331.75           6590          48.00       209.24
  155.90        3332.00           6594          45.00       196.16
  155.93        3332.25           6597          47.00       204.88
  155.96        3332.50           6601          39.00       170.01
  155.98        3332.75           6605          40.00       174.37
  156.01        3333.00           6608          43.00       187.45
  156.04        3333.25           6612          41.00       178.73
  156.07        3333.50           6616          46.00       200.52
  156.10        3333.75           6620          44.00       191.81
  156.13        3334.00           6623          48.00       209.24
  156.16        3334.25           6627          45.00       196.16
  156.19        3334.50           6631          47.00       204.88
  156.22        3334.75           6635          39.00       170.01
  156.25        3335.00           6638          50.00       217.96
  156.28        3335.25           6642          48.00       209.24
  156.31        3335.50           6646          59.00       257.19
  156.34        3335.75           6649          58.00       252.84
  156.37        3336.00           6653          63.00       274.63
  156.40        3336.25           6657         118.00       514.39
  156.43        3336.50           6661         903.00      3936.77
  156.46        3336.75           6664        2030.00      8851.29
  156.49        3337.00           6668        3542.00     15446.72
  156.52        3337.25           6672        5034.00     21957.22
  156.55        3337.50           6676        6420.00     28007.22
  156.58        3337.75           6679        7557.00     32971.80
  156.61        3338.00           6683        9210.00     40191.81
  156.64        3338.25           6687       11120.00     48537.85
  156.67        3338.50           6690       12466.00     54421.67
  156.70        3338.75           6694       13969.00     60994.00
  156.73        3339.00           6698       15527.00     67809.30
  156.76        3339.25           6702       16985.00     74189.44
  156.79        3339.50           6705       18396.00     80366.00
  156.82        3339.75           6709       19946.00     87153.41
  156.85        3340.00           6713       21262.00     92918.09
  156.88        3340.25           6717       22885.00    100030.10
  156.91        3340.50           6720       24032.00    105057.80
  156.94        3340.75           6724       25611.00    111981.50
  156.97        3341.00           6728       27243.00    119140.30
  157.00        3341.25           6732       28301.00    123782.70
  157.03        3341.50           6735       28436.00    124375.10
  157.06        3341.75           6739       28404.00    124234.70
  157.09        3342.00           6743       27836.00    121742.20
  157.12        3342.25           6747       26784.00    117126.60
  157.15        3342.50           6750       25651.00    112156.90
  157.18        3342.75           6754       24116.00    105426.10
  157.21        3343.00           6758       22560.00     98605.68
  157.24        3343.25           6761       21367.00     93378.11
  157.27        3343.50           6765       19404.00     84779.72
  157.30        3343.75           6769       18055.00     78873.11
  157.33        3344.00           6773       16509.00     72106.25
  157.36        3344.25           6776       15363.00     67091.79
  157.38        3344.50           6780       13718.00     59896.26
  157.41        3344.75           6784       11945.00     52143.99
  157.44        3345.00           6788       10477.00     45727.74
  157.47        3345.25           6791        9281.00     40501.99
  157.50        3345.50           6795        7646.00     33360.47
  157.54        3345.75           6799        5830.00     25431.58
  157.56        3346.00           6803        4034.00     17593.36
  157.59        3346.25           6806        2807.00     12240.31
  157.62        3346.50           6810        1346.00      5868.41
  157.65        3346.75           6814         316.00      1377.56
  157.68        3347.00           6818          79.00       344.38
  157.71        3347.25           6821          64.00       278.99
  157.74        3347.50           6825          64.00       278.99
  157.77        3347.75           6829          51.00       222.32
  157.80        3348.00           6833          55.00       239.76
  157.83        3348.25           6836          52.00       226.68
  157.86        3348.50           6840          48.00       209.24
  157.89        3348.75           6844          42.00       183.09
  157.92        3349.00           6848          51.00       222.32
  157.95        3349.25           6851          44.00       191.81
  157.98        3349.50           6855          46.00       200.52
  158.01        3349.75           6859          46.00       200.52
  158.04        3350.00           6863          47.00       204.88
  158.07        3350.25           6866          43.00       187.45
  158.10        3350.50           6870          39.00       170.01
  158.13        3350.75           6874          45.00       196.16
  158.16        3351.00           6878          46.00       200.52
HL scan finished at 02:39:39
end
************************************************************
  HL Scan of (1) Internal mercury lamp
************************************************************
Integration time is 0.2294 seconds per sample
dh290418Delft 51.9969-4.3863 2.535944pr1000
************************************************************
Dead Time -------------------------  2.7E-08 
Number of Cycles Used -------------  4 
Starting Wavelength (Angstroms) ---  3331 
Final Wavelength (Angstoms) -------  3351 
Wavelength Increment (Angstroms) --  .25 
Filter Wheel #1 Position ---------- (1) Ground quartz diffuser (ND=2.32)
Filter Wheel #2 Position ---------- 



************************************************************
HL scan start time = 20:11:00
Dark Count =  0 


Time (GMT)  Wavelength (Ang)  Step Number  Raw Counts  Counts/Second

 1211.77        3331.00           6579          47.00       204.88
 1212.18        3331.25           6582          37.00       161.29
 1212.21        3331.50           6586          35.00       152.57
 1212.24        3331.75           6590          47.00       204.88
 1212.27        3332.00           6594          37.00       161.29
 1212.30        3332.25           6597          41.00       178.73
 1212.33        3332.50           6601          39.00       170.01
 1212.36        3332.75           6605          44.00       191.81
 1212.39        3333.00           6608          38.00       165.65
 1212.42        3333.25           6612          40.00       174.37
 1212.45        3333.50           6616          35.00       152.57
 1212.48        3333.75           6620          42.00       183.09
 1212.51        3334.00           6623          42.00       183.09
 1212.54        3334.25           6627          45.00       196.16
 1212.57        3334.50           6631          36.00       156.93
 1212.60        3334.75           6635          42.00       183.09
 1212.63        3335.00           6638          44.00       191.81
 1212.66        3335.25           6642          54.00       235.40
 1212.69        3335.50           6646          56.00       244.12
 1212.72        3335.75           6649          59.00       257.19
 1212.75        3336.00           6653          62.00       270.27
 1212.78        3336.25           6657         165.00       719.28
 1212.80        3336.50           6661        1058.00      4612.61
 1212.83        3336.75           6664        2011.00      8768.42
 1212.86        3337.00           6668        3310.00     14434.57
 1212.89        3337.25           6672        4593.00     20032.63
 1212.92        3337.50           6676        5880.00     25649.85
 1212.95        3337.75           6679        6891.00     30063.63
 1212.98        3338.00           6683        8477.00     36989.85
 1213.01        3338.25           6687       10163.00     44355.62
 1213.04        3338.50           6690       11295.00     49302.73
 1213.07        3338.75           6694       12627.00     55125.58
 1213.10        3339.00           6698       13928.00     60814.69
 1213.13        3339.25           6702       15481.00     67608.05
 1213.16        3339.50           6705       16529.00     72193.77
 1213.19        3339.75           6709       17971.00     78505.38
 1213.22        3340.00           6713       19138.00     83614.90
 1213.25        3340.25           6717       20718.00     90534.91
 1213.28        3340.50           6720       21512.00     94013.41
 1213.31        3340.75           6724       23059.00    100792.70
 1213.34        3341.00           6728       24670.00    107855.00
 1213.37        3341.25           6732       25398.00    111047.40
 1213.40        3341.50           6735       25378.00    110959.70
 1213.43        3341.75           6739       25371.00    110929.00
 1213.46        3342.00           6743       24718.00    108065.50
 1213.49        3342.25           6747       23748.00    103812.80
 1213.52        3342.50           6750       22782.00     99578.62
 1213.55        3342.75           6754       21461.00     93789.96
 1213.58        3343.00           6758       19744.00     86268.72
 1213.61        3343.25           6761       18665.00     81543.77
 1213.64        3343.50           6765       17225.00     75239.88
 1213.67        3343.75           6769       15815.00     69069.40
 1213.70        3344.00           6773       14529.00     63443.38
 1213.73        3344.25           6776       13381.00     58422.52
 1213.76        3344.50           6780       11934.00     52095.90
 1213.79        3344.75           6784       10608.00     46300.22
 1213.82        3345.00           6788        9080.00     39623.89
 1213.85        3345.25           6791        8073.00     35225.29
 1213.88        3345.50           6795        6515.00     28421.98
 1213.91        3345.75           6799        4951.00     21594.98
 1213.94        3346.00           6803        3442.00     15010.44
 1213.97        3346.25           6806        2371.00     10338.54
 1214.00        3346.50           6810        1057.00      4608.25
 1214.03        3346.75           6814         206.00       898.02
 1214.06        3347.00           6818          77.00       335.66
 1214.09        3347.25           6821          63.00       274.63
 1214.12        3347.50           6825          59.00       257.19
 1214.15        3347.75           6829          52.00       226.68
 1214.18        3348.00           6833          47.00       204.88
 1214.21        3348.25           6836          43.00       187.45
 1214.24        3348.50           6840          48.00       209.24
 1214.27        3348.75           6844          38.00       165.65
 1214.30        3349.00           6848          40.00       174.37
 1214.33        3349.25           6851          38.00       165.65
 1214.36        3349.50           6855          39.00       170.01
 1214.39        3349.75           6859          40.00       174.37
 1214.42        3350.00           6863          44.00       191.81
 1214.45        3350.25           6866          42.00       183.09
 1214.47        3350.50           6870          41.00       178.73
 1214.50        3350.75           6874          46.00       200.52
 1214.53        3351.00           6878          42.00       183.09
HL scan finished at 20:16:02
end
