************************************************************
  HL Scan of (1) Internal mercury lamp
************************************************************
Integration time is 0.2294 seconds per sample
dh280418Delft 51.9969-4.3863 2.696889pr1000
************************************************************
Dead Time -------------------------  2.7E-08 
Number of Cycles Used -------------  4 
Starting Wavelength (Angstroms) ---  3331 
Final Wavelength (Angstoms) -------  3351 
Wavelength Increment (Angstroms) --  .25 
Filter Wheel #1 Position ---------- (1) Ground quartz diffuser (ND=2.32)
Filter Wheel #2 Position ---------- 



************************************************************
HL scan start time = 02:39:04
Dark Count =  0 


Time (GMT)  Wavelength (Ang)  Step Number  Raw Counts  Counts/Second

  159.83        3331.00           6579          42.00       183.09
  160.24        3331.25           6582          44.00       191.81
  160.27        3331.50           6586          37.00       161.29
  160.30        3331.75           6590          51.00       222.32
  160.33        3332.00           6594          38.00       165.65
  160.36        3332.25           6597          46.00       200.52
  160.39        3332.50           6601          39.00       170.01
  160.42        3332.75           6605          43.00       187.45
  160.45        3333.00           6608          40.00       174.37
  160.48        3333.25           6612          47.00       204.88
  160.51        3333.50           6616          41.00       178.73
  160.54        3333.75           6620          39.00       170.01
  160.56        3334.00           6623          43.00       187.45
  160.59        3334.25           6627          48.00       209.24
  160.62        3334.50           6631          46.00       200.52
  160.65        3334.75           6635          45.00       196.16
  160.68        3335.00           6638          46.00       200.52
  160.71        3335.25           6642          59.00       257.19
  160.74        3335.50           6646          52.00       226.68
  160.77        3335.75           6649          58.00       252.84
  160.80        3336.00           6653          63.00       274.63
  160.83        3336.25           6657          92.00       401.05
  160.86        3336.50           6661         619.00      2698.54
  160.89        3336.75           6664        1704.00      7429.56
  160.92        3337.00           6668        3438.00     14992.99
  160.95        3337.25           6672        5135.00     22398.03
  160.98        3337.50           6676        7231.00     31548.22
  161.01        3337.75           6679        8515.00     37155.83
  161.04        3338.00           6683       10285.00     44888.73
  161.07        3338.25           6687       12132.00     52961.47
  161.10        3338.50           6690       13658.00     59633.87
  161.13        3338.75           6694       15317.00     66890.53
  161.16        3339.00           6698       16733.00     73086.55
  161.19        3339.25           6702       18372.00     80260.93
  161.22        3339.50           6705       19598.00     85629.31
  161.25        3339.75           6709       21544.00     94153.61
  161.28        3340.00           6713       23308.00    101884.10
  161.31        3340.25           6717       24873.00    108745.20
  161.34        3340.50           6720       26193.00    114534.10
  161.37        3340.75           6724       27657.00    120956.70
  161.40        3341.00           6728       29364.00    128448.20
  161.43        3341.25           6732       30380.00    132908.50
  161.46        3341.50           6735       30549.00    133650.60
  161.49        3341.75           6739       30478.00    133338.80
  161.52        3342.00           6743       30015.00    131306.00
  161.55        3342.25           6747       28917.00    126486.20
  161.58        3342.50           6750       27188.00    118899.00
  161.61        3342.75           6754       25652.00    112161.30
  161.64        3343.00           6758       23869.00    104343.20
  161.67        3343.25           6761       22676.00     99114.06
  161.70        3343.50           6765       20798.00     90885.35
  161.72        3343.75           6769       18984.00     82940.54
  161.76        3344.00           6773       17653.00     77113.31
  161.78        3344.25           6776       16336.00     71349.18
  161.81        3344.50           6780       14770.00     64497.58
  161.84        3344.75           6784       12898.00     56310.49
  161.87        3345.00           6788       10902.00     47585.08
  161.90        3345.25           6791        9535.00     41611.68
  161.93        3345.50           6795        7874.00     34356.18
  161.96        3345.75           6799        6165.00     26893.98
  161.99        3346.00           6803        4415.00     19255.87
  162.02        3346.25           6806        3138.00     13684.22
  162.05        3346.50           6810        1549.00      6753.63
  162.08        3346.75           6814         436.00      1900.71
  162.11        3347.00           6818         122.00       531.83
  162.14        3347.25           6821          70.00       305.15
  162.17        3347.50           6825          60.00       261.55
  162.20        3347.75           6829          58.00       252.84
  162.23        3348.00           6833          58.00       252.84
  162.26        3348.25           6836          49.00       213.60
  162.29        3348.50           6840          53.00       231.04
  162.32        3348.75           6844          52.00       226.68
  162.35        3349.00           6848          47.00       204.88
  162.38        3349.25           6851          41.00       178.73
  162.41        3349.50           6855          44.00       191.81
  162.44        3349.75           6859          41.00       178.73
  162.47        3350.00           6863          45.00       196.16
  162.50        3350.25           6866          43.00       187.45
  162.53        3350.50           6870          47.00       204.88
  162.56        3350.75           6874          38.00       165.65
  162.59        3351.00           6878          45.00       196.16
HL scan finished at 02:44:05
end
************************************************************
  HL Scan of (1) Internal mercury lamp
************************************************************
Integration time is 0.2294 seconds per sample
dh280418Delft 51.9969-4.3863 2.589593pr1000
************************************************************
Dead Time -------------------------  2.7E-08 
Number of Cycles Used -------------  4 
Starting Wavelength (Angstroms) ---  3331 
Final Wavelength (Angstoms) -------  3351 
Wavelength Increment (Angstroms) --  .25 
Filter Wheel #1 Position ---------- (1) Ground quartz diffuser (ND=2.32)
Filter Wheel #2 Position ---------- 



************************************************************
HL scan start time = 20:09:36
Dark Count =  0 


Time (GMT)  Wavelength (Ang)  Step Number  Raw Counts  Counts/Second

 1210.36        3331.00           6579          46.00       200.52
 1210.77        3331.25           6582          45.00       196.16
 1210.80        3331.50           6586          47.00       204.88
 1210.83        3331.75           6590          48.00       209.24
 1210.86        3332.00           6594          41.00       178.73
 1210.89        3332.25           6597          46.00       200.52
 1210.92        3332.50           6601          39.00       170.01
 1210.95        3332.75           6605          44.00       191.81
 1210.98        3333.00           6608          43.00       187.45
 1211.01        3333.25           6612          51.00       222.32
 1211.04        3333.50           6616          39.00       170.01
 1211.07        3333.75           6620          41.00       178.73
 1211.10        3334.00           6623          42.00       183.09
 1211.13        3334.25           6627          43.00       187.45
 1211.16        3334.50           6631          41.00       178.73
 1211.19        3334.75           6635          48.00       209.24
 1211.22        3335.00           6638          49.00       213.60
 1211.25        3335.25           6642          45.00       196.16
 1211.28        3335.50           6646          55.00       239.76
 1211.31        3335.75           6649          55.00       239.76
 1211.34        3336.00           6653          64.00       278.99
 1211.37        3336.25           6657          88.00       383.61
 1211.40        3336.50           6661         638.00      2781.38
 1211.43        3336.75           6664        1544.00      6731.83
 1211.46        3337.00           6668        2921.00     12737.60
 1211.49        3337.25           6672        4527.00     19744.61
 1211.52        3337.50           6676        5962.00     26007.80
 1211.55        3337.75           6679        7298.00     31840.79
 1211.58        3338.00           6683        9230.00     40279.18
 1211.61        3338.25           6687       10627.00     46383.25
 1211.64        3338.50           6690       11965.00     52231.41
 1211.67        3338.75           6694       13630.00     59511.42
 1211.70        3339.00           6698       15007.00     65534.34
 1211.73        3339.25           6702       16461.00     71896.19
 1211.76        3339.50           6705       17564.00     76723.72
 1211.79        3339.75           6709       19078.00     83352.16
 1211.82        3340.00           6713       20641.00     90197.59
 1211.85        3340.25           6717       22390.00     97860.68
 1211.88        3340.50           6720       23488.00    102673.10
 1211.91        3340.75           6724       24856.00    108670.60
 1211.94        3341.00           6728       26232.00    114705.20
 1211.97        3341.25           6732       27213.00    119008.70
 1212.00        3341.50           6735       27435.00    119982.70
 1212.03        3341.75           6739       27378.00    119732.60
 1212.06        3342.00           6743       27159.00    118771.70
 1212.08        3342.25           6747       25887.00    113192.00
 1212.12        3342.50           6750       24796.00    108407.50
 1212.14        3342.75           6754       23186.00    101349.30
 1212.17        3343.00           6758       21493.00     93930.16
 1212.21        3343.25           6761       20418.00     89220.77
 1212.23        3343.50           6765       18940.00     82747.88
 1212.26        3343.75           6769       17246.00     75331.79
 1212.29        3344.00           6773       15819.00     69086.91
 1212.32        3344.25           6776       14721.00     64283.23
 1212.35        3344.50           6780       13320.00     58155.76
 1212.38        3344.75           6784       11843.00     51698.09
 1212.41        3345.00           6788        9996.00     43625.90
 1212.44        3345.25           6791        8717.00     38038.18
 1212.47        3345.50           6795        7101.00     30980.57
 1212.50        3345.75           6799        5549.00     24205.01
 1212.53        3346.00           6803        4085.00     17815.89
 1212.56        3346.25           6806        3002.00     13090.94
 1212.59        3346.50           6810        1500.00      6539.95
 1212.62        3346.75           6814         376.00      1639.13
 1212.65        3347.00           6818         111.00       483.88
 1212.68        3347.25           6821          63.00       274.63
 1212.71        3347.50           6825          58.00       252.84
 1212.74        3347.75           6829          53.00       231.04
 1212.77        3348.00           6833          60.00       261.55
 1212.80        3348.25           6836          50.00       217.96
 1212.83        3348.50           6840          47.00       204.88
 1212.86        3348.75           6844          45.00       196.16
 1212.89        3349.00           6848          40.00       174.37
 1212.92        3349.25           6851          44.00       191.81
 1212.95        3349.50           6855          43.00       187.45
 1212.98        3349.75           6859          47.00       204.88
 1213.01        3350.00           6863          45.00       196.16
 1213.04        3350.25           6866          43.00       187.45
 1213.07        3350.50           6870          44.00       191.81
 1213.10        3350.75           6874          41.00       178.73
 1213.13        3351.00           6878          39.00       170.01
HL scan finished at 20:14:37
end
