************************************************************
  HL Scan of (1) Internal mercury lamp
************************************************************
Integration time is 0.2294 seconds per sample
dh210418Delft 51.9969-4.3863 2.589593pr1000
************************************************************
Dead Time -------------------------  2.7E-08 
Number of Cycles Used -------------  4 
Starting Wavelength (Angstroms) ---  3331 
Final Wavelength (Angstoms) -------  3351 
Wavelength Increment (Angstroms) --  .25 
Filter Wheel #1 Position ---------- (1) Ground quartz diffuser (ND=2.32)
Filter Wheel #2 Position ---------- 



************************************************************
HL scan start time = 03:07:25
Dark Count =  0 


Time (GMT)  Wavelength (Ang)  Step Number  Raw Counts  Counts/Second

  188.18        3331.00           6579          40.00       174.37
  188.59        3331.25           6582          47.00       204.88
  188.62        3331.50           6586          40.00       174.37
  188.65        3331.75           6590          43.00       187.45
  188.68        3332.00           6594          41.00       178.73
  188.71        3332.25           6597          44.00       191.81
  188.74        3332.50           6601          42.00       183.09
  188.77        3332.75           6605          42.00       183.09
  188.80        3333.00           6608          43.00       187.45
  188.83        3333.25           6612          44.00       191.81
  188.86        3333.50           6616          39.00       170.01
  188.89        3333.75           6620          44.00       191.81
  188.92        3334.00           6623          36.00       156.93
  188.95        3334.25           6627          42.00       183.09
  188.98        3334.50           6631          48.00       209.24
  189.01        3334.75           6635          44.00       191.81
  189.04        3335.00           6638          45.00       196.16
  189.07        3335.25           6642          46.00       200.52
  189.10        3335.50           6646          49.00       213.60
  189.13        3335.75           6649          59.00       257.19
  189.16        3336.00           6653          64.00       278.99
  189.19        3336.25           6657         146.00       636.45
  189.22        3336.50           6661         930.00      4054.50
  189.25        3336.75           6664        1951.00      8506.75
  189.27        3337.00           6668        3210.00     13998.32
  189.30        3337.25           6672        4617.00     20137.36
  189.34        3337.50           6676        6141.00     26789.21
  189.36        3337.75           6679        7485.00     32657.38
  189.40        3338.00           6683        9083.00     39636.99
  189.43        3338.25           6687       10627.00     46383.25
  189.45        3338.50           6690       11727.00     51191.02
  189.48        3338.75           6694       13192.00     57596.04
  189.51        3339.00           6698       14853.00     64860.65
  189.54        3339.25           6702       16337.00     71353.56
  189.57        3339.50           6705       17468.00     76303.51
  189.61        3339.75           6709       18959.00     82831.08
  189.64        3340.00           6713       20251.00     88489.28
  189.67        3340.25           6717       22001.00     96156.04
  189.69        3340.50           6720       23405.00    102309.30
  189.72        3340.75           6724       24729.00    108113.70
  189.76        3341.00           6728       26124.00    114231.50
  189.78        3341.25           6732       27102.00    118521.70
  189.81        3341.50           6735       27142.00    118697.10
  189.84        3341.75           6739       27301.00    119394.70
  189.87        3342.00           6743       26930.00    117767.10
  189.90        3342.25           6747       25861.00    113077.90
  189.93        3342.50           6750       24703.00    107999.70
  189.96        3342.75           6754       22939.00    100266.70
  189.99        3343.00           6758       21412.00     93575.28
  190.02        3343.25           6761       20372.00     89019.28
  190.05        3343.50           6765       18887.00     82515.81
  190.08        3343.75           6769       17346.00     75769.50
  190.11        3344.00           6773       15758.00     68820.00
  190.14        3344.25           6776       14651.00     63977.03
  190.17        3344.50           6780       13193.00     57600.41
  190.20        3344.75           6784       11626.00     50749.53
  190.23        3345.00           6788        9949.00     43420.53
  190.26        3345.25           6791        8690.00     37920.24
  190.29        3345.50           6795        7024.00     30644.35
  190.32        3345.75           6799        5347.00     23323.31
  190.35        3346.00           6803        3875.00     16899.60
  190.38        3346.25           6806        2596.00     11319.94
  190.41        3346.50           6810        1109.00      4834.98
  190.44        3346.75           6814         274.00      1194.46
  190.47        3347.00           6818          93.00       405.41
  190.50        3347.25           6821          65.00       283.35
  190.53        3347.50           6825          51.00       222.32
  190.56        3347.75           6829          64.00       278.99
  190.59        3348.00           6833          50.00       217.96
  190.62        3348.25           6836          46.00       200.52
  190.65        3348.50           6840          42.00       183.09
  190.68        3348.75           6844          48.00       209.24
  190.71        3349.00           6848          47.00       204.88
  190.74        3349.25           6851          45.00       196.16
  190.77        3349.50           6855          49.00       213.60
  190.80        3349.75           6859          42.00       183.09
  190.83        3350.00           6863          44.00       191.81
  190.86        3350.25           6866          42.00       183.09
  190.89        3350.50           6870          42.00       183.09
  190.92        3350.75           6874          39.00       170.01
  190.95        3351.00           6878          42.00       183.09
HL scan finished at 03:12:26
end
************************************************************
  HL Scan of (1) Internal mercury lamp
************************************************************
Integration time is 0.2294 seconds per sample
dh210418Delft 51.9969-4.3863 3.018777pr1000
************************************************************
Dead Time -------------------------  2.7E-08 
Number of Cycles Used -------------  4 
Starting Wavelength (Angstroms) ---  3331 
Final Wavelength (Angstoms) -------  3351 
Wavelength Increment (Angstroms) --  .25 
Filter Wheel #1 Position ---------- (1) Ground quartz diffuser (ND=2.32)
Filter Wheel #2 Position ---------- 



************************************************************
HL scan start time = 19:55:05
Dark Count =  .1 


Time (GMT)  Wavelength (Ang)  Step Number  Raw Counts  Counts/Second

 1195.85        3331.00           6579          46.00       200.09
 1196.26        3331.25           6582          47.00       204.45
 1196.29        3331.50           6586          42.00       182.65
 1196.32        3331.75           6590          45.00       195.73
 1196.35        3332.00           6594          46.00       200.09
 1196.38        3332.25           6597          45.00       195.73
 1196.41        3332.50           6601          48.00       208.81
 1196.44        3332.75           6605          46.00       200.09
 1196.47        3333.00           6608          48.00       208.81
 1196.50        3333.25           6612          44.00       191.37
 1196.53        3333.50           6616          35.00       152.14
 1196.56        3333.75           6620          41.00       178.29
 1196.59        3334.00           6623          42.00       182.65
 1196.62        3334.25           6627          46.00       200.09
 1196.65        3334.50           6631          53.00       230.60
 1196.68        3334.75           6635          48.00       208.81
 1196.71        3335.00           6638          50.00       217.53
 1196.74        3335.25           6642          58.00       252.40
 1196.77        3335.50           6646          56.00       243.68
 1196.80        3335.75           6649          63.00       274.20
 1196.83        3336.00           6653          72.00       313.43
 1196.86        3336.25           6657         121.00       527.03
 1196.89        3336.50           6661         872.00      3801.18
 1196.91        3336.75           6664        2191.00      9553.03
 1196.94        3337.00           6668        3830.00     16702.82
 1196.97        3337.25           6672        5635.00     24579.95
 1197.00        3337.50           6676        7910.00     34512.97
 1197.03        3337.75           6679        9546.00     41659.30
 1197.06        3338.00           6683       11538.00     50364.44
 1197.09        3338.25           6687       13555.00     59182.99
 1197.12        3338.50           6690       15080.00     65853.27
 1197.15        3338.75           6694       17130.00     74823.63
 1197.18        3339.00           6698       19260.00     84148.69
 1197.21        3339.25           6702       21025.00     91879.35
 1197.24        3339.50           6705       22628.00     98903.26
 1197.27        3339.75           6709       24701.00    107990.50
 1197.30        3340.00           6713       26564.00    116161.10
 1197.33        3340.25           6717       28896.00    126393.60
 1197.36        3340.50           6720       30275.00    132447.10
 1197.39        3340.75           6724       32151.00    140685.50
 1197.42        3341.00           6728       34210.00    149731.80
 1197.45        3341.25           6732       35628.00    155964.50
 1197.48        3341.50           6735       35938.00    157327.30
 1197.51        3341.75           6739       35972.00    157476.80
 1197.54        3342.00           6743       35588.00    155788.60
 1197.57        3342.25           6747       34235.00    149841.70
 1197.60        3342.50           6750       32786.00    143474.90
 1197.63        3342.75           6754       30721.00    134405.40
 1197.66        3343.00           6758       28656.00    125340.20
 1197.69        3343.25           6761       27180.00    118863.40
 1197.72        3343.50           6765       25391.00    111016.20
 1197.75        3343.75           6769       23388.00    102234.30
 1197.78        3344.00           6773       21316.00     93154.24
 1197.81        3344.25           6776       19855.00     86754.41
 1197.84        3344.50           6780       17950.00     78413.01
 1197.87        3344.75           6784       15853.00     69235.24
 1197.90        3345.00           6788       13613.00     59436.64
 1197.93        3345.25           6791       11885.00     51881.26
 1197.96        3345.50           6795        9524.00     41563.18
 1197.99        3345.75           6799        7606.00     33185.35
 1198.02        3346.00           6803        5543.00     24178.38
 1198.05        3346.25           6806        3795.00     16550.11
 1198.08        3346.50           6810        1816.00      7917.56
 1198.11        3346.75           6814         558.00      2432.16
 1198.14        3347.00           6818         133.00       579.35
 1198.17        3347.25           6821          76.00       330.87
 1198.20        3347.50           6825          66.00       287.27
 1198.23        3347.75           6829          66.00       287.27
 1198.26        3348.00           6833          61.00       265.48
 1198.29        3348.25           6836          56.00       243.68
 1198.32        3348.50           6840          52.00       226.24
 1198.35        3348.75           6844          54.00       234.96
 1198.38        3349.00           6848          45.00       195.73
 1198.41        3349.25           6851          47.00       204.45
 1198.44        3349.50           6855          50.00       217.53
 1198.47        3349.75           6859          49.00       213.17
 1198.50        3350.00           6863          40.00       173.93
 1198.53        3350.25           6866          48.00       208.81
 1198.56        3350.50           6870          44.00       191.37
 1198.59        3350.75           6874          43.00       187.01
 1198.61        3351.00           6878          46.00       200.09
HL scan finished at 20:00:06
end
