************************************************************
  HL Scan of (1) Internal mercury lamp
************************************************************
Integration time is 0.2294 seconds per sample
dh250418Delft 51.9969-4.3863 2.643241pr1000
************************************************************
Dead Time -------------------------  2.7E-08 
Number of Cycles Used -------------  4 
Starting Wavelength (Angstroms) ---  3331 
Final Wavelength (Angstoms) -------  3351 
Wavelength Increment (Angstroms) --  .25 
Filter Wheel #1 Position ---------- (1) Ground quartz diffuser (ND=2.32)
Filter Wheel #2 Position ---------- 



************************************************************
HL scan start time = 03:13:21
Dark Count =  .1 


Time (GMT)  Wavelength (Ang)  Step Number  Raw Counts  Counts/Second

  194.12        3331.00           6579          41.00       178.29
  194.53        3331.25           6582          39.00       169.57
  194.56        3331.50           6586          45.00       195.73
  194.59        3331.75           6590          45.00       195.73
  194.62        3332.00           6594          46.00       200.09
  194.65        3332.25           6597          39.00       169.57
  194.68        3332.50           6601          43.00       187.01
  194.71        3332.75           6605          39.00       169.57
  194.74        3333.00           6608          43.00       187.01
  194.77        3333.25           6612          47.00       204.45
  194.80        3333.50           6616          42.00       182.65
  194.83        3333.75           6620          40.00       173.93
  194.86        3334.00           6623          49.00       213.17
  194.89        3334.25           6627          42.00       182.65
  194.92        3334.50           6631          50.00       217.53
  194.95        3334.75           6635          42.00       182.65
  194.98        3335.00           6638          45.00       195.73
  195.01        3335.25           6642          50.00       217.53
  195.04        3335.50           6646          60.00       261.12
  195.06        3335.75           6649          59.00       256.76
  195.09        3336.00           6653          77.00       335.23
  195.12        3336.25           6657         122.00       531.39
  195.15        3336.50           6661         850.00      3705.25
  195.18        3336.75           6664        1998.00      8711.29
  195.21        3337.00           6668        3524.00     15367.75
  195.24        3337.25           6672        4986.00     21747.29
  195.27        3337.50           6676        6408.00     27954.40
  195.30        3337.75           6679        7571.00     33032.50
  195.33        3338.00           6683        9137.00     39872.46
  195.36        3338.25           6687       11144.00     48642.31
  195.39        3338.50           6690       12449.00     54346.91
  195.42        3338.75           6694       14089.00     61518.41
  195.45        3339.00           6698       15573.00     68010.13
  195.48        3339.25           6702       17224.00     75235.06
  195.51        3339.50           6705       18570.00     81127.38
  195.54        3339.75           6709       20015.00     87455.18
  195.57        3340.00           6713       21467.00     93815.81
  195.60        3340.25           6717       23116.00    101042.10
  195.63        3340.50           6720       24222.00    105890.40
  195.66        3340.75           6724       25955.00    113489.80
  195.69        3341.00           6728       27489.00    120219.20
  195.72        3341.25           6732       28548.00    124866.20
  195.75        3341.50           6735       28643.00    125283.20
  195.78        3341.75           6739       28787.00    125915.10
  195.81        3342.00           6743       28370.00    124085.00
  195.84        3342.25           6747       27070.00    118380.80
  195.87        3342.50           6750       26224.00    114669.70
  195.90        3342.75           6754       24505.00    107131.20
  195.93        3343.00           6758       22861.00     99924.43
  195.96        3343.25           6761       21539.00     94131.26
  195.99        3343.50           6765       19908.00     86986.54
  196.02        3343.75           6769       18267.00     79800.80
  196.05        3344.00           6773       16676.00     72836.65
  196.08        3344.25           6776       15449.00     67467.60
  196.11        3344.50           6780       13972.00     61006.69
  196.14        3344.75           6784       12080.00     52733.71
  196.17        3345.00           6788       10624.00     46369.71
  196.20        3345.25           6791        9543.00     41646.20
  196.23        3345.50           6795        7850.00     34250.93
  196.26        3345.75           6799        6039.00     26343.49
  196.29        3346.00           6803        4192.00     18282.35
  196.32        3346.25           6806        2915.00     12710.99
  196.35        3346.50           6810        1440.00      6277.87
  196.38        3346.75           6814         346.00      1507.91
  196.41        3347.00           6818          85.00       370.10
  196.44        3347.25           6821          57.00       248.04
  196.46        3347.50           6825          60.00       261.12
  196.49        3347.75           6829          53.00       230.60
  196.52        3348.00           6833          55.00       239.32
  196.55        3348.25           6836          49.00       213.17
  196.58        3348.50           6840          45.00       195.73
  196.61        3348.75           6844          48.00       208.81
  196.64        3349.00           6848          45.00       195.73
  196.67        3349.25           6851          42.00       182.65
  196.70        3349.50           6855          43.00       187.01
  196.73        3349.75           6859          44.00       191.37
  196.76        3350.00           6863          48.00       208.81
  196.79        3350.25           6866          45.00       195.73
  196.82        3350.50           6870          43.00       187.01
  196.85        3350.75           6874          50.00       217.53
  196.88        3351.00           6878          42.00       182.65
HL scan finished at 03:18:22
end
************************************************************
  HL Scan of (1) Internal mercury lamp
************************************************************
Integration time is 0.2294 seconds per sample
dh250418Delft 51.9969-4.3863 2.589593pr1000
************************************************************
Dead Time -------------------------  2.7E-08 
Number of Cycles Used -------------  4 
Starting Wavelength (Angstroms) ---  3331 
Final Wavelength (Angstoms) -------  3351 
Wavelength Increment (Angstroms) --  .25 
Filter Wheel #1 Position ---------- (1) Ground quartz diffuser (ND=2.32)
Filter Wheel #2 Position ---------- 



************************************************************
HL scan start time = 20:09:12
Dark Count =  0 


Time (GMT)  Wavelength (Ang)  Step Number  Raw Counts  Counts/Second

 1209.97        3331.00           6579          43.00       187.45
 1210.38        3331.25           6582          42.00       183.09
 1210.41        3331.50           6586          42.00       183.09
 1210.44        3331.75           6590          42.00       183.09
 1210.47        3332.00           6594          47.00       204.88
 1210.50        3332.25           6597          39.00       170.01
 1210.53        3332.50           6601          36.00       156.93
 1210.56        3332.75           6605          42.00       183.09
 1210.59        3333.00           6608          41.00       178.73
 1210.62        3333.25           6612          44.00       191.81
 1210.65        3333.50           6616          39.00       170.01
 1210.67        3333.75           6620          41.00       178.73
 1210.70        3334.00           6623          46.00       200.52
 1210.73        3334.25           6627          41.00       178.73
 1210.76        3334.50           6631          42.00       183.09
 1210.79        3334.75           6635          43.00       187.45
 1210.82        3335.00           6638          49.00       213.60
 1210.85        3335.25           6642          52.00       226.68
 1210.88        3335.50           6646          47.00       204.88
 1210.91        3335.75           6649          58.00       252.84
 1210.94        3336.00           6653          56.00       244.12
 1210.97        3336.25           6657         101.00       440.28
 1211.00        3336.50           6661         599.00      2611.34
 1211.03        3336.75           6664        1635.00      7128.66
 1211.06        3337.00           6668        3179.00     13863.08
 1211.09        3337.25           6672        4608.00     20098.09
 1211.12        3337.50           6676        6036.00     26330.83
 1211.15        3337.75           6679        7149.00     31190.16
 1211.18        3338.00           6683        8902.00     38846.31
 1211.21        3338.25           6687       10508.00     45863.21
 1211.24        3338.50           6690       11985.00     52318.84
 1211.27        3338.75           6694       13632.00     59520.17
 1211.30        3339.00           6698       15277.00     66715.53
 1211.33        3339.25           6702       16818.00     73458.54
 1211.36        3339.50           6705       18222.00     79604.21
 1211.39        3339.75           6709       19455.00     85003.06
 1211.42        3340.00           6713       20785.00     90828.40
 1211.45        3340.25           6717       22140.00     96765.12
 1211.48        3340.50           6720       23521.00    102817.70
 1211.51        3340.75           6724       25161.00    110008.10
 1211.54        3341.00           6728       26654.00    116556.30
 1211.57        3341.25           6732       27712.00    121198.00
 1211.60        3341.50           6735       27754.00    121382.30
 1211.63        3341.75           6739       27593.00    120675.90
 1211.66        3342.00           6743       27365.00    119675.50
 1211.69        3342.25           6747       25951.00    113472.70
 1211.72        3342.50           6750       25072.00    109617.80
 1211.75        3342.75           6754       23485.00    102659.90
 1211.78        3343.00           6758       21862.00     95546.97
 1211.81        3343.25           6761       20858.00     91148.19
 1211.84        3343.50           6765       19032.00     83150.73
 1211.87        3343.75           6769       17503.00     76456.71
 1211.90        3344.00           6773       16100.00     70316.46
 1211.93        3344.25           6776       14901.00     65070.64
 1211.96        3344.50           6780       13081.00     57110.67
 1211.99        3344.75           6784       11599.00     50631.50
 1212.02        3345.00           6788       10103.00     44093.44
 1212.05        3345.25           6791        8954.00     39073.46
 1212.08        3345.50           6795        7476.00     32618.08
 1212.11        3345.75           6799        5870.00     25606.19
 1212.14        3346.00           6803        4008.00     17479.91
 1212.17        3346.25           6806        2821.00     12301.38
 1212.20        3346.50           6810        1417.00      6178.01
 1212.23        3346.75           6814         396.00      1726.32
 1212.26        3347.00           6818         112.00       488.24
 1212.28        3347.25           6821          69.00       300.79
 1212.31        3347.50           6825          60.00       261.55
 1212.34        3347.75           6829          55.00       239.76
 1212.37        3348.00           6833          49.00       213.60
 1212.40        3348.25           6836          45.00       196.16
 1212.43        3348.50           6840          43.00       187.45
 1212.46        3348.75           6844          44.00       191.81
 1212.49        3349.00           6848          44.00       191.81
 1212.52        3349.25           6851          43.00       187.45
 1212.55        3349.50           6855          45.00       196.16
 1212.58        3349.75           6859          49.00       213.60
 1212.61        3350.00           6863          47.00       204.88
 1212.64        3350.25           6866          40.00       174.37
 1212.67        3350.50           6870          49.00       213.60
 1212.70        3350.75           6874          40.00       174.37
 1212.73        3351.00           6878          44.00       191.81
HL scan finished at 20:14:13
end
