************************************************************
  HL Scan of (1) Internal mercury lamp
************************************************************
Integration time is 0.2294 seconds per sample
dh260418Delft 51.9969-4.3863 2.482296pr1000
************************************************************
Dead Time -------------------------  2.7E-08 
Number of Cycles Used -------------  4 
Starting Wavelength (Angstroms) ---  3331 
Final Wavelength (Angstoms) -------  3351 
Wavelength Increment (Angstroms) --  .25 
Filter Wheel #1 Position ---------- (1) Ground quartz diffuser (ND=2.32)
Filter Wheel #2 Position ---------- 



************************************************************
HL scan start time = 03:11:28
Dark Count =  .1 


Time (GMT)  Wavelength (Ang)  Step Number  Raw Counts  Counts/Second

  192.22        3331.00           6579          35.00       152.14
  192.63        3331.25           6582          46.00       200.09
  192.67        3331.50           6586          38.00       165.21
  192.69        3331.75           6590          40.00       173.93
  192.72        3332.00           6594          40.00       173.93
  192.75        3332.25           6597          40.00       173.93
  192.78        3332.50           6601          40.00       173.93
  192.81        3332.75           6605          45.00       195.73
  192.84        3333.00           6608          44.00       191.37
  192.87        3333.25           6612          40.00       173.93
  192.90        3333.50           6616          39.00       169.57
  192.93        3333.75           6620          42.00       182.65
  192.96        3334.00           6623          39.00       169.57
  192.99        3334.25           6627          40.00       173.93
  193.02        3334.50           6631          44.00       191.37
  193.05        3334.75           6635          49.00       213.17
  193.08        3335.00           6638          49.00       213.17
  193.11        3335.25           6642          51.00       221.88
  193.14        3335.50           6646          55.00       239.32
  193.17        3335.75           6649          48.00       208.81
  193.20        3336.00           6653          58.00       252.40
  193.23        3336.25           6657         101.00       439.85
  193.26        3336.50           6661         781.00      3404.41
  193.29        3336.75           6664        1785.00      7782.37
  193.32        3337.00           6668        3127.00     13635.80
  193.35        3337.25           6672        4398.00     19181.25
  193.38        3337.50           6676        5724.00     24968.44
  193.41        3337.75           6679        6758.00     29482.48
  193.44        3338.00           6683        8233.00     35923.67
  193.47        3338.25           6687        9739.00     42502.55
  193.50        3338.50           6690       10980.00     47925.54
  193.53        3338.75           6694       12575.00     54897.79
  193.56        3339.00           6698       13701.00     59821.48
  193.59        3339.25           6702       15111.00     65988.88
  193.62        3339.50           6705       16276.00     71086.18
  193.64        3339.75           6709       17739.00     77489.34
  193.67        3340.00           6713       18938.00     82738.69
  193.70        3340.25           6717       20256.00     88510.75
  193.73        3340.50           6720       21305.00     93106.04
  193.76        3340.75           6724       22649.00     98995.29
  193.79        3341.00           6728       24170.00    105662.40
  193.82        3341.25           6732       25016.00    109371.80
  193.85        3341.50           6735       25346.00    110818.90
  193.88        3341.75           6739       25385.00    110989.90
  193.91        3342.00           6743       24937.00    109025.40
  193.94        3342.25           6747       23730.00    103733.50
  193.97        3342.50           6750       22761.00     99486.14
  194.00        3342.75           6754       21528.00     94083.07
  194.03        3343.00           6758       20126.00     87941.35
  194.06        3343.25           6761       18980.00     82922.59
  194.09        3343.50           6765       17399.00     76001.05
  194.12        3343.75           6769       16227.00     70871.76
  194.15        3344.00           6773       14698.00     64182.18
  194.18        3344.25           6776       13583.00     59305.44
  194.21        3344.50           6780       12170.00     53127.16
  194.24        3344.75           6784       10675.00     46592.58
  194.27        3345.00           6788        9358.00     40837.95
  194.30        3345.25           6791        8383.00     36578.83
  194.33        3345.50           6795        6837.00     29827.41
  194.36        3345.75           6799        5313.00     23174.48
  194.39        3346.00           6803        3674.00     16022.19
  194.42        3346.25           6806        2562.00     11171.20
  194.45        3346.50           6810        1118.00      4873.79
  194.48        3346.75           6814         288.00      1255.06
  194.51        3347.00           6818          89.00       387.54
  194.54        3347.25           6821          61.00       265.48
  194.57        3347.50           6825          55.00       239.32
  194.60        3347.75           6829          53.00       230.60
  194.63        3348.00           6833          53.00       230.60
  194.66        3348.25           6836          44.00       191.37
  194.69        3348.50           6840          43.00       187.01
  194.72        3348.75           6844          42.00       182.65
  194.75        3349.00           6848          51.00       221.88
  194.77        3349.25           6851          38.00       165.21
  194.81        3349.50           6855          44.00       191.37
  194.83        3349.75           6859          36.00       156.50
  194.86        3350.00           6863          38.00       165.21
  194.89        3350.25           6866          40.00       173.93
  194.92        3350.50           6870          39.00       169.57
  194.95        3350.75           6874          46.00       200.09
  194.98        3351.00           6878          39.00       169.57
HL scan finished at 03:16:28
end
************************************************************
  HL Scan of (1) Internal mercury lamp
************************************************************
Integration time is 0.2294 seconds per sample
dh260418Delft 51.9969-4.3863 2.589593pr1000
************************************************************
Dead Time -------------------------  2.7E-08 
Number of Cycles Used -------------  4 
Starting Wavelength (Angstroms) ---  3331 
Final Wavelength (Angstoms) -------  3351 
Wavelength Increment (Angstroms) --  .25 
Filter Wheel #1 Position ---------- (1) Ground quartz diffuser (ND=2.32)
Filter Wheel #2 Position ---------- 



************************************************************
HL scan start time = 20:12:54
Dark Count =  .1 


Time (GMT)  Wavelength (Ang)  Step Number  Raw Counts  Counts/Second

 1213.66        3331.00           6579          40.00       173.93
 1214.07        3331.25           6582          44.00       191.37
 1214.10        3331.50           6586          46.00       200.09
 1214.13        3331.75           6590          44.00       191.37
 1214.16        3332.00           6594          44.00       191.37
 1214.19        3332.25           6597          45.00       195.73
 1214.22        3332.50           6601          40.00       173.93
 1214.25        3332.75           6605          38.00       165.21
 1214.28        3333.00           6608          40.00       173.93
 1214.31        3333.25           6612          42.00       182.65
 1214.34        3333.50           6616          43.00       187.01
 1214.37        3333.75           6620          39.00       169.57
 1214.40        3334.00           6623          39.00       169.57
 1214.43        3334.25           6627          41.00       178.29
 1214.45        3334.50           6631          42.00       182.65
 1214.48        3334.75           6635          50.00       217.53
 1214.51        3335.00           6638          43.00       187.01
 1214.54        3335.25           6642          49.00       213.17
 1214.57        3335.50           6646          49.00       213.17
 1214.60        3335.75           6649          58.00       252.40
 1214.63        3336.00           6653          66.00       287.27
 1214.66        3336.25           6657         103.00       448.57
 1214.69        3336.50           6661         640.00      2789.66
 1214.72        3336.75           6664        1571.00      6849.13
 1214.75        3337.00           6668        2906.00     12671.73
 1214.78        3337.25           6672        4354.00     18989.25
 1214.81        3337.50           6676        6003.00     26186.34
 1214.84        3337.75           6679        7144.00     31167.89
 1214.87        3338.00           6683        8680.00     37876.12
 1214.90        3338.25           6687       10007.00     43673.53
 1214.93        3338.50           6690       11234.00     49035.68
 1214.96        3338.75           6694       12777.00     55780.99
 1214.99        3339.00           6698       14025.00     61238.49
 1215.02        3339.25           6702       15609.00     68167.65
 1215.05        3339.50           6705       16873.00     73698.82
 1215.08        3339.75           6709       18275.00     79835.81
 1215.11        3340.00           6713       19837.00     86675.58
 1215.14        3340.25           6717       21358.00     93338.25
 1215.17        3340.50           6720       22451.00     98127.56
 1215.20        3340.75           6724       23922.00    104575.20
 1215.23        3341.00           6728       25328.00    110740.00
 1215.26        3341.25           6732       26220.00    114652.10
 1215.29        3341.50           6735       26275.00    114893.40
 1215.32        3341.75           6739       26381.00    115358.30
 1215.35        3342.00           6743       26154.00    114362.60
 1215.38        3342.25           6747       24967.00    109156.90
 1215.41        3342.50           6750       23676.00    103496.80
 1215.44        3342.75           6754       22279.00     97373.81
 1215.47        3343.00           6758       20909.00     91371.18
 1215.50        3343.25           6761       19729.00     86202.58
 1215.53        3343.50           6765       18395.00     80361.19
 1215.56        3343.75           6769       16930.00     73948.28
 1215.59        3344.00           6773       15519.00     67773.86
 1215.62        3344.25           6776       14577.00     63652.90
 1215.65        3344.50           6780       12924.00     56423.73
 1215.68        3344.75           6784       11294.00     49297.92
 1215.71        3345.00           6788        9600.00     41895.23
 1215.74        3345.25           6791        8281.00     36133.32
 1215.77        3345.50           6795        6909.00     30141.79
 1215.80        3345.75           6799        5424.00     23658.96
 1215.83        3346.00           6803        3762.00     16406.13
 1215.86        3346.25           6806        2582.00     11258.43
 1215.89        3346.50           6810        1265.00      5514.77
 1215.92        3346.75           6814         375.00      1634.34
 1215.95        3347.00           6818         100.00       435.49
 1215.98        3347.25           6821          69.00       300.35
 1216.01        3347.50           6825          62.00       269.84
 1216.04        3347.75           6829          54.00       234.96
 1216.07        3348.00           6833          55.00       239.32
 1216.10        3348.25           6836          44.00       191.37
 1216.12        3348.50           6840          45.00       195.73
 1216.15        3348.75           6844          43.00       187.01
 1216.18        3349.00           6848          46.00       200.09
 1216.21        3349.25           6851          45.00       195.73
 1216.24        3349.50           6855          44.00       191.37
 1216.28        3349.75           6859          41.00       178.29
 1216.30        3350.00           6863          44.00       191.37
 1216.33        3350.25           6866          39.00       169.57
 1216.36        3350.50           6870          43.00       187.01
 1216.39        3350.75           6874          45.00       195.73
 1216.42        3351.00           6878          41.00       178.29
HL scan finished at 20:17:55
end
