************************************************************
  HL Scan of (1) Internal mercury lamp
************************************************************
Integration time is 0.2294 seconds per sample
dh240418Delft 51.9969-4.3863 2.589593pr1000
************************************************************
Dead Time -------------------------  2.7E-08 
Number of Cycles Used -------------  4 
Starting Wavelength (Angstroms) ---  3331 
Final Wavelength (Angstoms) -------  3351 
Wavelength Increment (Angstroms) --  .25 
Filter Wheel #1 Position ---------- (1) Ground quartz diffuser (ND=2.32)
Filter Wheel #2 Position ---------- 



************************************************************
HL scan start time = 02:55:45
Dark Count =  0 


Time (GMT)  Wavelength (Ang)  Step Number  Raw Counts  Counts/Second

  176.51        3331.00           6579          40.00       174.37
  176.92        3331.25           6582          47.00       204.88
  176.96        3331.50           6586          39.00       170.01
  176.98        3331.75           6590          38.00       165.65
  177.01        3332.00           6594          37.00       161.29
  177.04        3332.25           6597          41.00       178.73
  177.07        3332.50           6601          38.00       165.65
  177.10        3332.75           6605          41.00       178.73
  177.13        3333.00           6608          43.00       187.45
  177.16        3333.25           6612          41.00       178.73
  177.19        3333.50           6616          38.00       165.65
  177.22        3333.75           6620          43.00       187.45
  177.25        3334.00           6623          39.00       170.01
  177.28        3334.25           6627          46.00       200.52
  177.31        3334.50           6631          45.00       196.16
  177.34        3334.75           6635          54.00       235.40
  177.37        3335.00           6638          49.00       213.60
  177.40        3335.25           6642          49.00       213.60
  177.43        3335.50           6646          52.00       226.68
  177.46        3335.75           6649          60.00       261.55
  177.49        3336.00           6653          65.00       283.35
  177.52        3336.25           6657          85.00       370.54
  177.55        3336.50           6661         640.00      2790.10
  177.58        3336.75           6664        1879.00      8192.75
  177.61        3337.00           6668        3540.00     15437.99
  177.64        3337.25           6672        4957.00     21621.16
  177.67        3337.50           6676        6593.00     28762.52
  177.70        3337.75           6679        7786.00     33971.86
  177.73        3338.00           6683        9350.00     40803.43
  177.76        3338.25           6687       10973.00     47895.38
  177.79        3338.50           6690       12055.00     52624.86
  177.82        3338.75           6694       13614.00     59441.45
  177.85        3339.00           6698       15260.00     66641.16
  177.88        3339.25           6702       17013.00     74312.00
  177.91        3339.50           6705       18175.00     79398.45
  177.94        3339.75           6709       19625.00     85747.56
  177.97        3340.00           6713       21236.00     92804.18
  178.00        3340.25           6717       22637.00     98943.13
  178.03        3340.50           6720       24089.00    105307.70
  178.06        3340.75           6724       25484.00    111424.50
  178.09        3341.00           6728       26757.00    117008.10
  178.12        3341.25           6732       27816.00    121654.40
  178.15        3341.50           6735       27972.00    122338.90
  178.18        3341.75           6739       27987.00    122404.80
  178.21        3342.00           6743       27392.00    119794.00
  178.24        3342.25           6747       26256.00    114810.50
  178.26        3342.50           6750       24931.00    108999.50
  178.30        3342.75           6754       23505.00    102747.60
  178.33        3343.00           6758       21785.00     95209.56
  178.35        3343.25           6761       20720.00     90543.68
  178.38        3343.50           6765       19383.00     84687.76
  178.41        3343.75           6769       17767.00     77612.35
  178.44        3344.00           6773       16216.00     70824.06
  178.47        3344.25           6776       14902.00     65075.01
  178.51        3344.50           6780       13292.00     58033.32
  178.53        3344.75           6784       11653.00     50867.55
  178.56        3345.00           6788        9981.00     43560.36
  178.59        3345.25           6791        8878.00     38741.46
  178.62        3345.50           6795        7265.00     31696.69
  178.65        3345.75           6799        5683.00     24789.91
  178.68        3346.00           6803        4194.00     18291.51
  178.71        3346.25           6806        3071.00     13391.94
  178.74        3346.50           6810        1513.00      6596.64
  178.77        3346.75           6814         334.00      1456.03
  178.80        3347.00           6818          84.00       366.18
  178.83        3347.25           6821          61.00       265.91
  178.86        3347.50           6825          63.00       274.63
  178.89        3347.75           6829          59.00       257.19
  178.92        3348.00           6833          53.00       231.04
  178.95        3348.25           6836          47.00       204.88
  178.98        3348.50           6840          51.00       222.32
  179.01        3348.75           6844          48.00       209.24
  179.04        3349.00           6848          43.00       187.45
  179.07        3349.25           6851          48.00       209.24
  179.10        3349.50           6855          42.00       183.09
  179.13        3349.75           6859          41.00       178.73
  179.16        3350.00           6863          51.00       222.32
  179.19        3350.25           6866          39.00       170.01
  179.22        3350.50           6870          51.00       222.32
  179.25        3350.75           6874          44.00       191.81
  179.28        3351.00           6878          42.00       183.09
HL scan finished at 03:00:46
end
************************************************************
  HL Scan of (1) Internal mercury lamp
************************************************************
Integration time is 0.2294 seconds per sample
dh240418Delft 51.9969-4.3863 2.750537pr1000
************************************************************
Dead Time -------------------------  2.7E-08 
Number of Cycles Used -------------  4 
Starting Wavelength (Angstroms) ---  3331 
Final Wavelength (Angstoms) -------  3351 
Wavelength Increment (Angstroms) --  .25 
Filter Wheel #1 Position ---------- (1) Ground quartz diffuser (ND=2.32)
Filter Wheel #2 Position ---------- 



************************************************************
HL scan start time = 20:00:27
Dark Count =  .2 


Time (GMT)  Wavelength (Ang)  Step Number  Raw Counts  Counts/Second

 1201.21        3331.00           6579          36.00       156.06
 1201.62        3331.25           6582          41.00       177.86
 1201.65        3331.50           6586          44.00       190.93
 1201.68        3331.75           6590          44.00       190.93
 1201.71        3332.00           6594          46.00       199.65
 1201.74        3332.25           6597          43.00       186.57
 1201.77        3332.50           6601          41.00       177.86
 1201.80        3332.75           6605          45.00       195.29
 1201.82        3333.00           6608          40.00       173.50
 1201.85        3333.25           6612          44.00       190.93
 1201.88        3333.50           6616          46.00       199.65
 1201.91        3333.75           6620          44.00       190.93
 1201.94        3334.00           6623          47.00       204.01
 1201.97        3334.25           6627          47.00       204.01
 1202.00        3334.50           6631          44.00       190.93
 1202.03        3334.75           6635          46.00       199.65
 1202.06        3335.00           6638          56.00       243.24
 1202.09        3335.25           6642          46.00       199.65
 1202.12        3335.50           6646          49.00       212.73
 1202.15        3335.75           6649          58.00       251.96
 1202.18        3336.00           6653          56.00       243.24
 1202.21        3336.25           6657          89.00       387.10
 1202.24        3336.50           6661         798.00      3478.09
 1202.27        3336.75           6664        1902.00      8292.18
 1202.30        3337.00           6668        3432.00     14965.94
 1202.33        3337.25           6672        5228.00     22803.05
 1202.36        3337.50           6676        6930.00     30233.04
 1202.39        3337.75           6679        8390.00     36608.97
 1202.42        3338.00           6683       10490.00     45783.67
 1202.45        3338.25           6687       12300.00     53695.05
 1202.48        3338.50           6690       13708.00     59851.66
 1202.51        3338.75           6694       15536.00     67847.80
 1202.54        3339.00           6698       17238.00     75295.90
 1202.57        3339.25           6702       18886.00     82510.56
 1202.60        3339.50           6705       20160.00     88089.82
 1202.63        3339.75           6709       21786.00     95213.08
 1202.66        3340.00           6713       23677.00    103500.70
 1202.69        3340.25           6717       25478.00    111397.30
 1202.72        3340.50           6720       26868.00    117494.20
 1202.75        3340.75           6724       28462.00    124488.40
 1202.78        3341.00           6728       29902.00    130809.10
 1202.81        3341.25           6732       31156.00    136315.10
 1202.84        3341.50           6735       31142.00    136253.60
 1202.87        3341.75           6739       31213.00    136565.40
 1202.90        3342.00           6743       30786.00    134690.40
 1202.93        3342.25           6747       29493.00    129013.60
 1202.96        3342.50           6750       28226.00    123452.70
 1202.99        3342.75           6754       26334.00    115151.70
 1203.02        3343.00           6758       24395.00    106648.40
 1203.05        3343.25           6761       23123.00    101072.30
 1203.08        3343.50           6765       21374.00     93407.91
 1203.11        3343.75           6769       19500.00     85199.26
 1203.14        3344.00           6773       17775.00     77646.49
 1203.17        3344.25           6776       16623.00     72604.27
 1203.20        3344.50           6780       15072.00     65817.81
 1203.23        3344.75           6784       13099.00     57188.50
 1203.26        3345.00           6788       11383.00     49686.49
 1203.29        3345.25           6791        9812.00     42821.06
 1203.32        3345.50           6795        8020.00     34992.94
 1203.35        3345.75           6799        6277.00     27382.05
 1203.38        3346.00           6803        4563.00     19900.84
 1203.41        3346.25           6806        3254.00     14189.39
 1203.44        3346.50           6810        1651.00      7197.56
 1203.47        3346.75           6814         401.00      1747.25
 1203.50        3347.00           6818         106.00       461.21
 1203.53        3347.25           6821          76.00       330.43
 1203.55        3347.50           6825          66.00       286.84
 1203.59        3347.75           6829          55.00       238.89
 1203.61        3348.00           6833          59.00       256.32
 1203.64        3348.25           6836          60.00       260.68
 1203.67        3348.50           6840          46.00       199.65
 1203.70        3348.75           6844          48.00       208.37
 1203.73        3349.00           6848          45.00       195.29
 1203.76        3349.25           6851          44.00       190.93
 1203.79        3349.50           6855          43.00       186.57
 1203.82        3349.75           6859          42.00       182.22
 1203.85        3350.00           6863          46.00       199.65
 1203.88        3350.25           6866          44.00       190.93
 1203.91        3350.50           6870          43.00       186.57
 1203.94        3350.75           6874          44.00       190.93
 1203.97        3351.00           6878          48.00       208.37
HL scan finished at 20:05:28
end
