************************************************************
  HL Scan of (1) Internal mercury lamp
************************************************************
Integration time is 0.2294 seconds per sample
dh230417DelftKZ 51.997-4.386 2.321352pr1000
************************************************************
Dead Time -------------------------  3E-08 
Number of Cycles Used -------------  4 
Starting Wavelength (Angstroms) ---  3331 
Final Wavelength (Angstoms) -------  3351 
Wavelength Increment (Angstroms) --  .25 
Filter Wheel #1 Position ---------- (1) Ground quartz diffuser (ND=2.32)
Filter Wheel #2 Position ---------- 



************************************************************
HL scan start time = 02:43:00
Dark Count =  .1 


Time (GMT)  Wavelength (Ang)  Step Number  Raw Counts  Counts/Second

  163.78        3331.00           6581          36.00       156.50
  164.19        3331.25           6584          38.00       165.21
  164.21        3331.50           6588          44.00       191.37
  164.24        3331.75           6592          34.00       147.78
  164.27        3332.00           6595          39.00       169.57
  164.30        3332.25           6599          39.00       169.57
  164.33        3332.50           6603          40.00       173.93
  164.35        3332.75           6607          36.00       156.50
  164.38        3333.00           6610          40.00       173.93
  164.41        3333.25           6614          46.00       200.09
  164.44        3333.50           6618          41.00       178.29
  164.47        3333.75           6622          40.00       173.93
  164.49        3334.00           6625          36.00       156.50
  164.52        3334.25           6629          39.00       169.57
  164.55        3334.50           6633          40.00       173.93
  164.58        3334.75           6636          43.00       187.01
  164.61        3335.00           6640          47.00       204.45
  164.63        3335.25           6644          46.00       200.09
  164.66        3335.50           6648          48.00       208.81
  164.69        3335.75           6651          50.00       217.53
  164.72        3336.00           6655          60.00       261.12
  164.74        3336.25           6659         358.00      1560.23
  164.77        3336.50           6663        1355.00      5907.32
  164.80        3336.75           6666        2122.00      9252.35
  164.83        3337.00           6670        3210.00     13998.47
  164.85        3337.25           6674        4389.00     19143.07
  164.88        3337.50           6677        5140.00     22420.92
  164.91        3337.75           6681        6525.00     28467.63
  164.94        3338.00           6685        7735.00     33752.12
  164.97        3338.25           6689        8762.00     38238.70
  165.00        3338.50           6692        9644.00     42092.80
  165.02        3338.75           6696       10788.00     47093.08
  165.05        3339.00           6700       12174.00     53153.14
  165.08        3339.25           6704       13165.00     57487.47
  165.11        3339.50           6707       14100.00     61577.91
  165.14        3339.75           6711       15289.00     66781.00
  165.16        3340.00           6715       16691.00     72918.28
  165.20        3340.25           6719       17775.00     77665.06
  165.23        3340.50           6722       18827.00     82273.00
  165.25        3340.75           6726       19895.00     86952.34
  165.28        3341.00           6730       20913.00     91413.83
  165.31        3341.25           6733       21123.00     92334.32
  165.34        3341.50           6737       21130.00     92365.01
  165.37        3341.75           6741       21118.00     92312.40
  165.39        3342.00           6745       20507.00     89634.35
  165.42        3342.25           6748       19641.00     85839.34
  165.45        3342.50           6752       18541.00     81020.15
  165.48        3342.75           6756       17098.00     74700.35
  165.50        3343.00           6760       16064.00     70173.30
  165.54        3343.25           6763       14931.00     65214.22
  165.57        3343.50           6767       13866.00     60554.12
  165.60        3343.75           6771       12720.00     55541.03
  165.62        3344.00           6775       11537.00     50367.69
  165.65        3344.25           6778       10660.00     46533.54
  165.68        3344.50           6782        9590.00     41856.80
  165.71        3344.75           6786        8486.00     37032.84
  165.73        3345.00           6790        7208.00     31450.32
  165.76        3345.25           6793        6182.00     26969.94
  165.79        3345.50           6797        4721.00     20592.06
  165.82        3345.75           6801        3421.00     14919.06
  165.85        3346.00           6805        2344.00     10220.66
  165.87        3346.25           6808        1447.00      6308.52
  165.90        3346.50           6812         356.00      1551.51
  165.93        3346.75           6816          92.00       400.62
  165.96        3347.00           6819          61.00       265.48
  165.98        3347.25           6823          56.00       243.68
  166.01        3347.50           6827          51.00       221.88
  166.04        3347.75           6831          47.00       204.45
  166.07        3348.00           6834          45.00       195.73
  166.10        3348.25           6838          39.00       169.57
  166.12        3348.50           6842          35.00       152.14
  166.15        3348.75           6846          44.00       191.37
  166.18        3349.00           6849          36.00       156.50
  166.21        3349.25           6853          45.00       195.73
  166.23        3349.50           6857          40.00       173.93
  166.26        3349.75           6861          40.00       173.93
  166.29        3350.00           6864          49.00       213.17
  166.32        3350.25           6868          45.00       195.73
  166.35        3350.50           6872          43.00       187.01
  166.38        3350.75           6876          38.00       165.21
  166.41        3351.00           6879          37.00       160.86
HL scan finished at 02:47:53
end
