************************************************************
  HL Scan of (1) Internal mercury lamp
************************************************************
Integration time is 0.2294 seconds per sample
dh210417DelftKZ 51.997-4.386 2.535944pr1000
************************************************************
Dead Time -------------------------  3E-08 
Number of Cycles Used -------------  4 
Starting Wavelength (Angstroms) ---  3331 
Final Wavelength (Angstoms) -------  3351 
Wavelength Increment (Angstroms) --  .25 
Filter Wheel #1 Position ---------- (1) Ground quartz diffuser (ND=2.32)
Filter Wheel #2 Position ---------- 



************************************************************
HL scan start time = 02:50:40
Dark Count =  .1 


Time (GMT)  Wavelength (Ang)  Step Number  Raw Counts  Counts/Second

  171.43        3331.00           6581          42.00       182.65
  171.84        3331.25           6584          37.00       160.86
  171.87        3331.50           6588          46.00       200.09
  171.90        3331.75           6592          42.00       182.65
  171.92        3332.00           6595          47.00       204.45
  171.95        3332.25           6599          40.00       173.93
  171.98        3332.50           6603          44.00       191.37
  172.01        3332.75           6607          46.00       200.09
  172.04        3333.00           6610          43.00       187.01
  172.06        3333.25           6614          46.00       200.09
  172.09        3333.50           6618          41.00       178.29
  172.12        3333.75           6622          44.00       191.37
  172.15        3334.00           6625          43.00       187.01
  172.17        3334.25           6629          47.00       204.45
  172.20        3334.50           6633          41.00       178.29
  172.23        3334.75           6636          48.00       208.81
  172.26        3335.00           6640          52.00       226.24
  172.29        3335.25           6644          62.00       269.84
  172.32        3335.50           6648          60.00       261.12
  172.34        3335.75           6651          66.00       287.27
  172.37        3336.00           6655          78.00       339.59
  172.41        3336.25           6659         295.00      1285.58
  172.43        3336.50           6663        1338.00      5833.19
  172.46        3336.75           6666        2256.00      9836.82
  172.49        3337.00           6670        3679.00     16044.78
  172.52        3337.25           6674        5359.00     23376.90
  172.54        3337.50           6677        6630.00     28926.14
  172.57        3337.75           6681        8033.00     35053.85
  172.60        3338.00           6685        9439.00     41196.92
  172.63        3338.25           6689       10678.00     46612.22
  172.66        3338.50           6692       12067.00     52685.21
  172.68        3338.75           6696       13518.00     59031.65
  172.71        3339.00           6700       14972.00     65393.65
  172.74        3339.25           6704       16410.00     71688.02
  172.77        3339.50           6707       17721.00     77428.56
  172.80        3339.75           6711       19254.00     84143.69
  172.82        3340.00           6715       20786.00     90857.18
  172.85        3340.25           6719       22553.00     98603.81
  172.88        3340.50           6722       23628.00    103318.40
  172.91        3340.75           6726       25092.00    109741.30
  172.95        3341.00           6730       26551.00    116144.60
  172.98        3341.25           6733       26849.00    117452.80
  173.01        3341.50           6737       26671.00    116671.40
  173.03        3341.75           6741       26907.00    117707.40
  173.06        3342.00           6745       26210.00    114647.80
  173.09        3342.25           6748       25283.00    110579.40
  173.12        3342.50           6752       23628.00    103318.40
  173.14        3342.75           6756       22131.00     96753.41
  173.17        3343.00           6760       20710.00     90524.06
  173.20        3343.25           6763       19576.00     85554.53
  173.23        3343.50           6767       17958.00     78466.54
  173.26        3343.75           6771       16320.00     71294.00
  173.28        3344.00           6775       15016.00     65586.21
  173.31        3344.25           6778       13983.00     61066.00
  173.34        3344.50           6782       12656.00     55261.11
  173.37        3344.75           6786       11007.00     48050.48
  173.39        3345.00           6790        9223.00     40253.03
  173.42        3345.25           6793        7971.00     34783.01
  173.45        3345.50           6797        6311.00     27533.20
  173.48        3345.75           6801        4804.00     20954.32
  173.50        3346.00           6805        3085.00     13453.12
  173.53        3346.25           6808        1936.00      8441.11
  173.56        3346.50           6812         682.00      2972.80
  173.59        3346.75           6816         160.00       697.05
  173.62        3347.00           6819          76.00       330.87
  173.65        3347.25           6823          61.00       265.48
  173.67        3347.50           6827          55.00       239.32
  173.70        3347.75           6831          54.00       234.96
  173.73        3348.00           6834          45.00       195.73
  173.76        3348.25           6838          50.00       217.53
  173.79        3348.50           6842          42.00       182.65
  173.82        3348.75           6846          49.00       213.17
  173.85        3349.00           6849          35.00       152.14
  173.88        3349.25           6853          42.00       182.65
  173.90        3349.50           6857          47.00       204.45
  173.93        3349.75           6861          48.00       208.81
  173.96        3350.00           6864          45.00       195.73
  173.99        3350.25           6868          47.00       204.45
  174.01        3350.50           6872          43.00       187.01
  174.04        3350.75           6876          41.00       178.29
  174.07        3351.00           6879          38.00       165.21
HL scan finished at 02:55:33
end
