************************************************************
  HL Scan of (1) Internal mercury lamp
************************************************************
Integration time is 0.2294 seconds per sample
dh240417DelftKZ 51.997-4.386 2.428648pr1000
************************************************************
Dead Time -------------------------  3E-08 
Number of Cycles Used -------------  4 
Starting Wavelength (Angstroms) ---  3331 
Final Wavelength (Angstoms) -------  3351 
Wavelength Increment (Angstroms) --  .25 
Filter Wheel #1 Position ---------- (1) Ground quartz diffuser (ND=2.32)
Filter Wheel #2 Position ---------- 



************************************************************
HL scan start time = 02:39:02
Dark Count =  .1 


Time (GMT)  Wavelength (Ang)  Step Number  Raw Counts  Counts/Second

  159.79        3331.00           6581          43.00       187.01
  160.20        3331.25           6584          43.00       187.01
  160.23        3331.50           6588          33.00       143.42
  160.25        3331.75           6592          40.00       173.93
  160.28        3332.00           6595          41.00       178.29
  160.31        3332.25           6599          43.00       187.01
  160.34        3332.50           6603          46.00       200.09
  160.37        3332.75           6607          35.00       152.14
  160.39        3333.00           6610          38.00       165.21
  160.42        3333.25           6614          42.00       182.65
  160.45        3333.50           6618          41.00       178.29
  160.48        3333.75           6622          38.00       165.21
  160.50        3334.00           6625          37.00       160.86
  160.53        3334.25           6629          39.00       169.57
  160.57        3334.50           6633          43.00       187.01
  160.60        3334.75           6636          43.00       187.01
  160.63        3335.00           6640          46.00       200.09
  160.65        3335.25           6644          52.00       226.24
  160.68        3335.50           6648          59.00       256.76
  160.71        3335.75           6651          54.00       234.96
  160.74        3336.00           6655          61.00       265.48
  160.76        3336.25           6659         283.00      1233.26
  160.79        3336.50           6663        1238.00      5397.13
  160.82        3336.75           6666        2091.00      9117.14
  160.85        3337.00           6670        3422.00     14923.42
  160.87        3337.25           6674        4736.00     20657.52
  160.90        3337.50           6677        5707.00     24896.10
  160.93        3337.75           6681        7149.00     31192.65
  160.96        3338.00           6685        8418.00     36735.76
  160.98        3338.25           6689        9701.00     42341.90
  161.01        3338.50           6692       10646.00     46472.33
  161.04        3338.75           6696       11990.00     52348.50
  161.07        3339.00           6700       13219.00     57723.68
  161.10        3339.25           6704       14458.00     63144.36
  161.12        3339.50           6707       15366.00     67118.01
  161.15        3339.75           6711       16694.00     72931.41
  161.18        3340.00           6715       18025.00     78759.99
  161.21        3340.25           6719       19616.00     85729.80
  161.23        3340.50           6722       20521.00     89695.71
  161.26        3340.75           6726       21674.00     94749.76
  161.29        3341.00           6730       22612.00     98862.52
  161.32        3341.25           6733       22760.00     99511.55
  161.34        3341.50           6737       22896.00    100108.00
  161.37        3341.75           6741       22683.00     99173.88
  161.40        3342.00           6745       22056.00     96424.56
  161.43        3342.25           6748       21245.00     92869.11
  161.46        3342.50           6752       19931.00     87110.09
  161.48        3342.75           6756       18521.00     80932.54
  161.51        3343.00           6760       17187.00     75090.06
  161.54        3343.25           6763       16118.00     70409.69
  161.58        3343.50           6767       14818.00     64719.70
  161.60        3343.75           6771       13400.00     58515.46
  161.63        3344.00           6775       12293.00     53673.55
  161.66        3344.25           6778       11292.00     49296.48
  161.69        3344.50           6782       10245.00     44719.51
  161.71        3344.75           6786        8902.00     38850.40
  161.74        3345.00           6790        7546.00     32926.58
  161.77        3345.25           6793        6536.00     28515.67
  161.80        3345.50           6797        5132.00     22386.00
  161.83        3345.75           6801        3886.00     16948.02
  161.85        3346.00           6805        2584.00     11267.54
  161.88        3346.25           6808        1752.00      7638.63
  161.91        3346.50           6812         495.00      2157.51
  161.94        3346.75           6816         124.00       540.11
  161.96        3347.00           6819          57.00       248.04
  161.99        3347.25           6823          54.00       234.96
  162.02        3347.50           6827          54.00       234.96
  162.05        3347.75           6831          49.00       213.17
  162.07        3348.00           6834          46.00       200.09
  162.10        3348.25           6838          51.00       221.88
  162.13        3348.50           6842          41.00       178.29
  162.16        3348.75           6846          41.00       178.29
  162.18        3349.00           6849          42.00       182.65
  162.21        3349.25           6853          44.00       191.37
  162.24        3349.50           6857          39.00       169.57
  162.27        3349.75           6861          41.00       178.29
  162.30        3350.00           6864          44.00       191.37
  162.32        3350.25           6868          34.00       147.78
  162.35        3350.50           6872          39.00       169.57
  162.38        3350.75           6876          45.00       195.73
  162.41        3351.00           6879          43.00       187.01
HL scan finished at 02:43:53
end
