************************************************************
  HL Scan of (1) Internal mercury lamp
************************************************************
Integration time is 0.2294 seconds per sample
dh230418Delft 51.9969-4.3863 2.696889pr1000
************************************************************
Dead Time -------------------------  2.7E-08 
Number of Cycles Used -------------  4 
Starting Wavelength (Angstroms) ---  3331 
Final Wavelength (Angstoms) -------  3351 
Wavelength Increment (Angstroms) --  .25 
Filter Wheel #1 Position ---------- (1) Ground quartz diffuser (ND=2.32)
Filter Wheel #2 Position ---------- 



************************************************************
HL scan start time = 02:59:42
Dark Count =  .1 


Time (GMT)  Wavelength (Ang)  Step Number  Raw Counts  Counts/Second

  180.46        3331.00           6579          37.00       160.86
  180.87        3331.25           6582          41.00       178.29
  180.90        3331.50           6586          40.00       173.93
  180.93        3331.75           6590          37.00       160.86
  180.96        3332.00           6594          52.00       226.24
  180.99        3332.25           6597          40.00       173.93
  181.02        3332.50           6601          43.00       187.01
  181.05        3332.75           6605          51.00       221.88
  181.08        3333.00           6608          43.00       187.01
  181.11        3333.25           6612          39.00       169.57
  181.14        3333.50           6616          44.00       191.37
  181.17        3333.75           6620          39.00       169.57
  181.20        3334.00           6623          44.00       191.37
  181.23        3334.25           6627          47.00       204.45
  181.26        3334.50           6631          38.00       165.21
  181.29        3334.75           6635          41.00       178.29
  181.32        3335.00           6638          50.00       217.53
  181.35        3335.25           6642          55.00       239.32
  181.38        3335.50           6646          58.00       252.40
  181.41        3335.75           6649          64.00       278.55
  181.43        3336.00           6653          65.00       282.91
  181.47        3336.25           6657         114.00       496.52
  181.49        3336.50           6661         890.00      3879.66
  181.52        3336.75           6664        1906.00      8310.06
  181.55        3337.00           6668        3261.00     14220.37
  181.58        3337.25           6672        4801.00     20939.91
  181.61        3337.50           6676        6827.00     29783.75
  181.64        3337.75           6679        8065.00     35189.92
  181.67        3338.00           6683        9756.00     42576.82
  181.70        3338.25           6687       11490.00     50154.62
  181.73        3338.50           6690       12587.00     54950.26
  181.76        3338.75           6694       14398.00     62869.94
  181.79        3339.00           6698       16230.00     70884.88
  181.82        3339.25           6702       17590.00     76837.10
  181.85        3339.50           6705       18921.00     82664.25
  181.88        3339.75           6709       20738.00     90622.08
  181.91        3340.00           6713       22151.00     96812.90
  181.94        3340.25           6717       24120.00    105443.20
  181.97        3340.50           6720       25403.00    111068.90
  182.00        3340.75           6724       26821.00    117288.50
  182.03        3341.00           6728       28390.00    124172.80
  182.06        3341.25           6732       29427.00    128724.30
  182.09        3341.50           6735       29674.00    129808.60
  182.12        3341.75           6739       29503.00    129057.90
  182.15        3342.00           6743       29494.00    129018.40
  182.18        3342.25           6747       28266.00    123628.60
  182.21        3342.50           6750       26795.00    117174.40
  182.24        3342.75           6754       25050.00    109520.90
  182.27        3343.00           6758       23361.00    102115.90
  182.30        3343.25           6761       22279.00     97373.81
  182.33        3343.50           6765       20686.00     90394.29
  182.36        3343.75           6769       19206.00     83912.22
  182.39        3344.00           6773       17387.00     75948.53
  182.42        3344.25           6776       16207.00     70784.24
  182.45        3344.50           6780       14596.00     63736.01
  182.48        3344.75           6784       12751.00     55667.31
  182.51        3345.00           6788       10887.00     47519.09
  182.54        3345.25           6791        9518.00     41536.97
  182.57        3345.50           6795        7666.00     33447.37
  182.60        3345.75           6799        6097.00     26596.69
  182.63        3346.00           6803        4275.00     18644.52
  182.66        3346.25           6806        2878.00     12549.59
  182.69        3346.50           6810        1316.00      5737.16
  182.72        3346.75           6814         399.00      1738.97
  182.75        3347.00           6818         112.00       487.80
  182.78        3347.25           6821          65.00       282.91
  182.81        3347.50           6825          64.00       278.55
  182.84        3347.75           6829          53.00       230.60
  182.87        3348.00           6833          65.00       282.91
  182.90        3348.25           6836          46.00       200.09
  182.93        3348.50           6840          48.00       208.81
  182.96        3348.75           6844          46.00       200.09
  182.99        3349.00           6848          41.00       178.29
  183.01        3349.25           6851          43.00       187.01
  183.04        3349.50           6855          45.00       195.73
  183.07        3349.75           6859          43.00       187.01
  183.10        3350.00           6863          43.00       187.01
  183.13        3350.25           6866          41.00       178.29
  183.17        3350.50           6870          47.00       204.45
  183.19        3350.75           6874          47.00       204.45
  183.22        3351.00           6878          46.00       200.09
HL scan finished at 03:04:43
end
************************************************************
  HL Scan of (1) Internal mercury lamp
************************************************************
Integration time is 0.2294 seconds per sample
dh230418Delft 51.9969-4.3863 2.643241pr1000
************************************************************
Dead Time -------------------------  2.7E-08 
Number of Cycles Used -------------  4 
Starting Wavelength (Angstroms) ---  3331 
Final Wavelength (Angstoms) -------  3351 
Wavelength Increment (Angstroms) --  .25 
Filter Wheel #1 Position ---------- (1) Ground quartz diffuser (ND=2.32)
Filter Wheel #2 Position ---------- 



************************************************************
HL scan start time = 19:58:43
Dark Count =  0 


Time (GMT)  Wavelength (Ang)  Step Number  Raw Counts  Counts/Second

 1199.49        3331.00           6579          47.00       204.88
 1199.90        3331.25           6582          41.00       178.73
 1199.93        3331.50           6586          42.00       183.09
 1199.96        3331.75           6590          41.00       178.73
 1199.99        3332.00           6594          46.00       200.52
 1200.02        3332.25           6597          35.00       152.57
 1200.05        3332.50           6601          40.00       174.37
 1200.07        3332.75           6605          35.00       152.57
 1200.10        3333.00           6608          47.00       204.88
 1200.13        3333.25           6612          40.00       174.37
 1200.16        3333.50           6616          44.00       191.81
 1200.19        3333.75           6620          37.00       161.29
 1200.22        3334.00           6623          43.00       187.45
 1200.25        3334.25           6627          39.00       170.01
 1200.28        3334.50           6631          43.00       187.45
 1200.31        3334.75           6635          47.00       204.88
 1200.34        3335.00           6638          52.00       226.68
 1200.37        3335.25           6642          55.00       239.76
 1200.40        3335.50           6646          56.00       244.12
 1200.43        3335.75           6649          59.00       257.19
 1200.46        3336.00           6653          61.00       265.91
 1200.49        3336.25           6657          99.00       431.57
 1200.52        3336.50           6661         862.00      3758.01
 1200.55        3336.75           6664        1969.00      8585.25
 1200.58        3337.00           6668        3472.00     15141.32
 1200.61        3337.25           6672        4812.00     20988.35
 1200.64        3337.50           6676        6254.00     27282.52
 1200.67        3337.75           6679        7461.00     32552.58
 1200.70        3338.00           6683        9176.00     40043.27
 1200.73        3338.25           6687       10670.00     46571.17
 1200.76        3338.50           6690       11902.00     51956.01
 1200.79        3338.75           6694       13410.00     58549.33
 1200.82        3339.00           6698       15107.00     65971.81
 1200.85        3339.25           6702       16783.00     73305.38
 1200.88        3339.50           6705       18061.00     78899.38
 1200.91        3339.75           6709       19618.00     85716.91
 1200.94        3340.00           6713       21141.00     92387.98
 1200.97        3340.25           6717       22654.00     99017.64
 1201.00        3340.50           6720       23848.00    104251.20
 1201.03        3340.75           6724       25149.00    109955.40
 1201.06        3341.00           6728       26545.00    116078.10
 1201.09        3341.25           6732       27551.00    120491.60
 1201.12        3341.50           6735       27961.00    122290.70
 1201.15        3341.75           6739       27871.00    121895.70
 1201.18        3342.00           6743       27324.00    119495.70
 1201.21        3342.25           6747       26054.00    113924.40
 1201.24        3342.50           6750       25094.00    109714.20
 1201.27        3342.75           6754       23463.00    102563.50
 1201.30        3343.00           6758       21894.00     95687.18
 1201.33        3343.25           6761       20936.00     91489.89
 1201.36        3343.50           6765       19379.00     84670.24
 1201.39        3343.75           6769       17943.00     78382.81
 1201.42        3344.00           6773       16158.00     70570.26
 1201.45        3344.25           6776       14967.00     65359.35
 1201.48        3344.50           6780       13240.00     57805.94
 1201.51        3344.75           6784       11512.00     50251.22
 1201.54        3345.00           6788        9931.00     43341.89
 1201.57        3345.25           6791        8655.00     37767.35
 1201.60        3345.50           6795        7080.00     30888.87
 1201.62        3345.75           6799        5692.00     24829.20
 1201.66        3346.00           6803        4244.00     18509.68
 1201.69        3346.25           6806        3067.00     13374.49
 1201.71        3346.50           6810        1582.00      6897.54
 1201.74        3346.75           6814         375.00      1634.77
 1201.77        3347.00           6818          92.00       401.05
 1201.80        3347.25           6821          67.00       292.07
 1201.83        3347.50           6825          59.00       257.19
 1201.86        3347.75           6829          58.00       252.84
 1201.89        3348.00           6833          50.00       217.96
 1201.92        3348.25           6836          45.00       196.16
 1201.95        3348.50           6840          46.00       200.52
 1201.98        3348.75           6844          44.00       191.81
 1202.01        3349.00           6848          44.00       191.81
 1202.04        3349.25           6851          45.00       196.16
 1202.07        3349.50           6855          44.00       191.81
 1202.10        3349.75           6859          44.00       191.81
 1202.13        3350.00           6863          42.00       183.09
 1202.16        3350.25           6866          41.00       178.73
 1202.19        3350.50           6870          43.00       187.45
 1202.22        3350.75           6874          45.00       196.16
 1202.25        3351.00           6878          45.00       196.16
HL scan finished at 20:03:44
end
