************************************************************
  HL Scan of (1) Internal mercury lamp
************************************************************
Integration time is 0.2294 seconds per sample
dh250417DelftKZ 51.997-4.386 2.428648pr1000
************************************************************
Dead Time -------------------------  3E-08 
Number of Cycles Used -------------  4 
Starting Wavelength (Angstroms) ---  3331 
Final Wavelength (Angstoms) -------  3351 
Wavelength Increment (Angstroms) --  .25 
Filter Wheel #1 Position ---------- (1) Ground quartz diffuser (ND=2.32)
Filter Wheel #2 Position ---------- 



************************************************************
HL scan start time = 02:49:06
Dark Count =  0 


Time (GMT)  Wavelength (Ang)  Step Number  Raw Counts  Counts/Second

  169.85        3331.00           6581          41.00       178.73
  170.26        3331.25           6584          43.00       187.45
  170.29        3331.50           6588          41.00       178.73
  170.32        3331.75           6592          40.00       174.37
  170.34        3332.00           6595          41.00       178.73
  170.37        3332.25           6599          46.00       200.52
  170.41        3332.50           6603          40.00       174.37
  170.44        3332.75           6607          43.00       187.45
  170.47        3333.00           6610          42.00       183.09
  170.49        3333.25           6614          44.00       191.81
  170.52        3333.50           6618          41.00       178.73
  170.55        3333.75           6622          37.00       161.29
  170.58        3334.00           6625          37.00       161.29
  170.61        3334.25           6629          43.00       187.45
  170.63        3334.50           6633          45.00       196.17
  170.66        3334.75           6636          49.00       213.60
  170.69        3335.00           6640          46.00       200.52
  170.72        3335.25           6644          51.00       222.32
  170.74        3335.50           6648          50.00       217.96
  170.77        3335.75           6651          54.00       235.40
  170.80        3336.00           6655          67.00       292.07
  170.83        3336.25           6659         305.00      1329.61
  170.85        3336.50           6663        1281.00      5585.07
  170.88        3336.75           6666        2237.00      9754.38
  170.91        3337.00           6670        3618.00     15779.05
  170.94        3337.25           6674        4764.00     20780.17
  170.96        3337.50           6677        5649.00     24643.32
  170.99        3337.75           6681        6737.00     29393.83
  171.02        3338.00           6685        7954.00     34709.18
  171.05        3338.25           6689        9239.00     40323.38
  171.07        3338.50           6692       10318.00     45039.02
  171.10        3338.75           6696       11644.00     50835.97
  171.13        3339.00           6700       12786.00     55830.14
  171.16        3339.25           6704       14006.00     61167.07
  171.19        3339.50           6707       15048.00     65726.68
  171.21        3339.75           6711       16260.00     71031.77
  171.24        3340.00           6715       17463.00     76299.12
  171.27        3340.25           6719       18706.00     81743.38
  171.30        3340.50           6722       19599.00     85655.75
  171.32        3340.75           6726       20805.00     90940.88
  171.35        3341.00           6730       22013.00     96236.47
  171.38        3341.25           6733       22436.00     98091.21
  171.41        3341.50           6737       22526.00     98485.84
  171.44        3341.75           6741       22266.00     97345.78
  171.46        3342.00           6745       21504.00     94004.94
  171.49        3342.25           6748       20794.00     90892.68
  171.52        3342.50           6752       19472.00     85099.28
  171.55        3342.75           6756       18316.00     80035.01
  171.57        3343.00           6760       17183.00     75073.00
  171.60        3343.25           6763       15957.00     69705.34
  171.63        3343.50           6767       14541.00     63507.99
  171.66        3343.75           6771       13339.00     58249.05
  171.69        3344.00           6775       12160.00     53092.35
  171.71        3344.25           6778       11245.00     49091.43
  171.74        3344.50           6782       10019.00     43732.15
  171.77        3344.75           6786        8856.00     38649.85
  171.80        3345.00           6790        7652.00     33390.01
  171.82        3345.25           6793        6698.00     29223.52
  171.85        3345.50           6797        5394.00     23530.12
  171.88        3345.75           6801        3899.00     17005.19
  171.91        3346.00           6805        2513.00     10958.27
  171.94        3346.25           6808        1556.00      6784.29
  171.96        3346.50           6812         435.00      1896.36
  171.99        3346.75           6816         111.00       483.88
  172.02        3347.00           6819          53.00       231.04
  172.05        3347.25           6823          54.00       235.40
  172.07        3347.50           6827          51.00       222.32
  172.10        3347.75           6831          45.00       196.17
  172.13        3348.00           6834          42.00       183.09
  172.16        3348.25           6838          45.00       196.17
  172.18        3348.50           6842          41.00       178.73
  172.21        3348.75           6846          35.00       152.57
  172.24        3349.00           6849          40.00       174.37
  172.27        3349.25           6853          47.00       204.88
  172.30        3349.50           6857          41.00       178.73
  172.33        3349.75           6861          44.00       191.81
  172.35        3350.00           6864          42.00       183.09
  172.38        3350.25           6868          40.00       174.37
  172.41        3350.50           6872          46.00       200.52
  172.44        3350.75           6876          47.00       204.88
  172.46        3351.00           6879          41.00       178.73
HL scan finished at 02:53:56
end
