************************************************************
  HL Scan of (1) Internal mercury lamp
************************************************************
Integration time is 0.2294 seconds per sample
dh060517De Bilt 52.1-5.183 2.375pr1000
************************************************************
Dead Time -------------------------  3E-08 
Number of Cycles Used -------------  4 
Starting Wavelength (Angstroms) ---  3331 
Final Wavelength (Angstoms) -------  3351 
Wavelength Increment (Angstroms) --  .25 
Filter Wheel #1 Position ---------- (1) Ground quartz diffuser (ND=2.32)
Filter Wheel #2 Position ---------- 



************************************************************
HL scan start time = 01:06:18
Dark Count =  0 


Time (GMT)  Wavelength (Ang)  Step Number  Raw Counts  Counts/Second

   67.06        3331.00           6581          43.00       187.45
   67.46        3331.25           6584          44.00       191.81
   67.49        3331.50           6588          45.00       196.17
   67.52        3331.75           6592          37.00       161.29
   67.55        3332.00           6595          45.00       196.17
   67.58        3332.25           6599          43.00       187.45
   67.60        3332.50           6603          39.00       170.01
   67.63        3332.75           6607          34.00       148.21
   67.66        3333.00           6610          41.00       178.73
   67.69        3333.25           6614          41.00       178.73
   67.71        3333.50           6618          35.00       152.57
   67.74        3333.75           6622          35.00       152.57
   67.77        3334.00           6625          39.00       170.01
   67.80        3334.25           6629          44.00       191.81
   67.82        3334.50           6633          44.00       191.81
   67.85        3334.75           6636          44.00       191.81
   67.88        3335.00           6640          41.00       178.73
   67.91        3335.25           6644          55.00       239.76
   67.94        3335.50           6648          55.00       239.76
   67.96        3335.75           6651          54.00       235.40
   67.99        3336.00           6655          68.00       296.43
   68.02        3336.25           6659         193.00       841.35
   68.05        3336.50           6663        1221.00      5323.43
   68.08        3336.75           6666        2320.00     10116.41
   68.11        3337.00           6670        3626.00     15813.95
   68.14        3337.25           6674        4890.00     21330.13
   68.17        3337.50           6677        5855.00     25542.67
   68.19        3337.75           6681        7232.00     31555.58
   68.22        3338.00           6685        8557.00     37343.47
   68.25        3338.25           6689        9673.00     42219.97
   68.28        3338.50           6692       10716.00     46778.77
   68.31        3338.75           6696       11908.00     51990.36
   68.34        3339.00           6700       13361.00     58345.28
   68.37        3339.25           6704       14803.00     64654.49
   68.40        3339.50           6707       15973.00     69775.38
   68.42        3339.75           6711       17199.00     75143.05
   68.45        3340.00           6715       18290.00     79921.13
   68.48        3340.25           6719       19580.00     85572.49
   68.51        3340.50           6722       20618.00     90121.27
   68.54        3340.75           6726       21770.00     95171.08
   68.56        3341.00           6730       22679.00     99156.78
   68.59        3341.25           6733       23104.00    101020.60
   68.62        3341.50           6737       23227.00    101560.10
   68.65        3341.75           6741       23238.00    101608.30
   68.67        3342.00           6745       22234.00     97205.46
   68.70        3342.25           6748       21161.00     92501.33
   68.73        3342.50           6752       20159.00     88109.66
   68.76        3342.75           6756       18567.00     81134.47
   68.78        3343.00           6760       17408.00     76058.28
   68.82        3343.25           6763       16425.00     71754.13
   68.85        3343.50           6767       15268.00     66689.53
   68.88        3343.75           6771       14025.00     61250.20
   68.90        3344.00           6775       12782.00     55812.64
   68.93        3344.25           6778       11528.00     50328.77
   68.96        3344.50           6782       10216.00     44593.19
   68.99        3344.75           6786        8760.00     38230.40
   69.02        3345.00           6790        7541.00     32905.18
   69.04        3345.25           6793        6606.00     28821.77
   69.07        3345.50           6797        5313.00     23176.53
   69.10        3345.75           6801        4041.00     17624.84
   69.13        3346.00           6805        2808.00     12245.13
   69.15        3346.25           6808        1931.00      8419.74
   69.18        3346.50           6812         601.00      2620.08
   69.21        3346.75           6816         125.00       544.91
   69.24        3347.00           6819          68.00       296.43
   69.27        3347.25           6823          58.00       252.84
   69.29        3347.50           6827          57.00       248.48
   69.32        3347.75           6831          45.00       196.17
   69.35        3348.00           6834          48.00       209.24
   69.38        3348.25           6838          42.00       183.09
   69.40        3348.50           6842          44.00       191.81
   69.43        3348.75           6846          45.00       196.17
   69.46        3349.00           6849          41.00       178.73
   69.49        3349.25           6853          42.00       183.09
   69.52        3349.50           6857          36.00       156.93
   69.55        3349.75           6861          38.00       165.65
   69.57        3350.00           6864          37.00       161.29
   69.60        3350.25           6868          41.00       178.73
   69.63        3350.50           6872          42.00       183.09
   69.66        3350.75           6876          49.00       213.60
   69.69        3351.00           6879          39.00       170.01
HL scan finished at 01:11:10
end
************************************************************
  HL Scan of (1) Internal mercury lamp
************************************************************
Integration time is 0.2294 seconds per sample
dh060517De Bilt 52.1-5.183 2.375pr1000
************************************************************
Dead Time -------------------------  3E-08 
Number of Cycles Used -------------  4 
Starting Wavelength (Angstroms) ---  3331 
Final Wavelength (Angstoms) -------  3351 
Wavelength Increment (Angstroms) --  .25 
Filter Wheel #1 Position ---------- (1) Ground quartz diffuser (ND=2.32)
Filter Wheel #2 Position ---------- 



************************************************************
HL scan start time = 01:32:37
Dark Count =  .2 


Time (GMT)  Wavelength (Ang)  Step Number  Raw Counts  Counts/Second

   93.37        3331.00           6581          36.00       156.06
   93.78        3331.25           6584          43.00       186.57
   93.81        3331.50           6588          39.00       169.14
   93.84        3331.75           6592          41.00       177.86
   93.86        3332.00           6595          32.00       138.62
   93.89        3332.25           6599          33.00       142.98
   93.92        3332.50           6603          37.00       160.42
   93.95        3332.75           6607          31.00       134.26
   93.97        3333.00           6610          41.00       177.86
   94.00        3333.25           6614          41.00       177.86
   94.03        3333.50           6618          37.00       160.42
   94.06        3333.75           6622          40.00       173.50
   94.08        3334.00           6625          41.00       177.86
   94.11        3334.25           6629          41.00       177.86
   94.14        3334.50           6633          39.00       169.14
   94.17        3334.75           6636          50.00       217.09
   94.19        3335.00           6640          46.00       199.65
   94.22        3335.25           6644          48.00       208.37
   94.25        3335.50           6648          53.00       230.17
   94.28        3335.75           6651          49.00       212.73
   94.31        3336.00           6655          66.00       286.84
   94.33        3336.25           6659         283.00      1232.83
   94.36        3336.50           6663        1218.00      5309.48
   94.39        3336.75           6666        2005.00      8741.61
   94.42        3337.00           6670        3130.00     13649.01
   94.45        3337.25           6674        4254.00     18553.48
   94.48        3337.50           6677        4897.00     21359.80
   94.51        3337.75           6681        5985.00     26109.37
   94.54        3338.00           6685        7165.00     31262.09
   94.57        3338.25           6689        8344.00     36412.03
   94.59        3338.50           6692        9371.00     40899.33
   94.62        3338.75           6696       10383.00     45322.26
   94.65        3339.00           6700       11547.00     50410.97
   94.68        3339.25           6704       12449.00     54355.35
   94.70        3339.50           6707       13421.00     58606.88
   94.73        3339.75           6711       14548.00     63537.74
   94.76        3340.00           6715       15625.00     68251.21
   94.79        3340.25           6719       16742.00     73141.15
   94.82        3340.50           6722       17410.00     76066.16
   94.84        3340.75           6726       18442.00     80586.06
   94.87        3341.00           6730       19844.00     86728.41
   94.90        3341.25           6733       19906.00     87000.10
   94.93        3341.50           6737       19923.00     87074.60
   94.95        3341.75           6741       19865.00     86820.44
   94.98        3342.00           6745       19109.00     83508.00
   95.01        3342.25           6748       18215.00     79591.75
   95.04        3342.50           6752       17294.00     75558.18
   95.07        3342.75           6756       16382.00     71564.99
   95.09        3343.00           6760       15237.00     66552.97
   95.12        3343.25           6763       14322.00     62548.83
   95.15        3343.50           6767       12986.00     56704.05
   95.18        3343.75           6771       11890.00     51910.77
   95.21        3344.00           6775       10797.00     47131.99
   95.23        3344.25           6778       10021.00     43740.01
   95.26        3344.50           6782        8897.00     38828.11
   95.29        3344.75           6786        7655.00     33402.24
   95.32        3345.00           6790        6677.00     29130.94
   95.34        3345.25           6793        5872.00     25616.02
   95.37        3345.50           6797        4776.00     20831.67
   95.40        3345.75           6801        3518.00     15341.85
   95.43        3346.00           6805        2223.00      9692.44
   95.45        3346.25           6808        1329.00      5793.51
   95.48        3346.50           6812         375.00      1633.91
   95.51        3346.75           6816          99.00       430.69
   95.54        3347.00           6819          52.00       225.81
   95.57        3347.25           6823          51.00       221.45
   95.60        3347.50           6827          46.00       199.65
   95.63        3347.75           6831          44.00       190.93
   95.65        3348.00           6834          46.00       199.65
   95.68        3348.25           6838          38.00       164.78
   95.71        3348.50           6842          38.00       164.78
   95.74        3348.75           6846          38.00       164.78
   95.76        3349.00           6849          42.00       182.22
   95.79        3349.25           6853          42.00       182.22
   95.82        3349.50           6857          41.00       177.86
   95.85        3349.75           6861          36.00       156.06
   95.88        3350.00           6864          40.00       173.50
   95.92        3350.25           6868          40.00       173.50
   95.95        3350.50           6872          38.00       164.78
   95.97        3350.75           6876          44.00       190.93
   96.00        3351.00           6879          39.00       169.14
HL scan finished at 01:37:29
end
************************************************************
  HL Scan of (1) Internal mercury lamp
************************************************************
Integration time is 0.2294 seconds per sample
dh060517De Bilt 52.1-5.183 2.804185pr1000
************************************************************
Dead Time -------------------------  3E-08 
Number of Cycles Used -------------  4 
Starting Wavelength (Angstroms) ---  3331 
Final Wavelength (Angstoms) -------  3351 
Wavelength Increment (Angstroms) --  .25 
Filter Wheel #1 Position ---------- (1) Ground quartz diffuser (ND=2.32)
Filter Wheel #2 Position ---------- 



************************************************************
HL scan start time = 20:21:42
Dark Count =  0 


Time (GMT)  Wavelength (Ang)  Step Number  Raw Counts  Counts/Second

 1222.46        3331.00           6581          42.00       183.09
 1222.87        3331.25           6584          47.00       204.88
 1222.90        3331.50           6588          52.00       226.68
 1222.93        3331.75           6592          45.00       196.17
 1222.96        3332.00           6595          43.00       187.45
 1222.98        3332.25           6599          43.00       187.45
 1223.01        3332.50           6603          45.00       196.17
 1223.04        3332.75           6607          43.00       187.45
 1223.07        3333.00           6610          48.00       209.24
 1223.10        3333.25           6614          41.00       178.73
 1223.13        3333.50           6618          47.00       204.88
 1223.15        3333.75           6622          46.00       200.52
 1223.18        3334.00           6625          45.00       196.17
 1223.21        3334.25           6629          44.00       191.81
 1223.24        3334.50           6633          53.00       231.04
 1223.26        3334.75           6636          53.00       231.04
 1223.29        3335.00           6640          51.00       222.32
 1223.32        3335.25           6644          55.00       239.76
 1223.35        3335.50           6648          64.00       278.99
 1223.38        3335.75           6651          67.00       292.07
 1223.40        3336.00           6655          76.00       331.30
 1223.43        3336.25           6659         236.00      1028.80
 1223.46        3336.50           6663        1331.00      5803.10
 1223.49        3336.75           6666        2568.00     11198.18
 1223.51        3337.00           6670        4119.00     17965.22
 1223.54        3337.25           6674        6045.00     26372.21
 1223.57        3337.50           6677        7545.00     32922.65
 1223.60        3337.75           6681        9394.00     41000.71
 1223.62        3338.00           6685       11178.00     48798.51
 1223.65        3338.25           6689       12830.00     56022.59
 1223.68        3338.50           6692       14245.00     62212.78
 1223.71        3338.75           6696       16302.00     71215.63
 1223.74        3339.00           6700       17795.00     77753.09
 1223.77        3339.25           6704       19555.00     85462.96
 1223.80        3339.50           6707       20986.00     91734.24
 1223.83        3339.75           6711       22716.00     99319.03
 1223.86        3340.00           6715       24785.00    108394.60
 1223.88        3340.25           6719       26821.00    117330.30
 1223.91        3340.50           6722       27946.00    122269.80
 1223.94        3340.75           6726       29673.00    129855.40
 1223.97        3341.00           6730       31330.00    137136.70
 1224.00        3341.25           6733       31962.00    139914.80
 1224.03        3341.50           6737       32225.00    141070.90
 1224.06        3341.75           6741       32164.00    140802.80
 1224.08        3342.00           6745       31507.00    137914.70
 1224.11        3342.25           6748       30419.00    133133.10
 1224.14        3342.50           6752       28527.00    124821.40
 1224.17        3342.75           6756       26630.00    116491.80
 1224.20        3343.00           6760       24901.00    108903.60
 1224.22        3343.25           6763       23564.00    103038.20
 1224.25        3343.50           6767       21783.00     95228.08
 1224.28        3343.75           6771       20190.00     88245.52
 1224.31        3344.00           6775       18370.00     80271.54
 1224.33        3344.25           6778       16969.00     74135.94
 1224.36        3344.50           6782       15308.00     66864.60
 1224.39        3344.75           6786       13162.00     57474.78
 1224.42        3345.00           6790       11250.00     49113.29
 1224.44        3345.25           6793        9666.00     42189.37
 1224.47        3345.50           6797        7736.00     33756.93
 1224.50        3345.75           6801        5981.00     26092.78
 1224.53        3346.00           6805        4064.00     17725.21
 1224.56        3346.25           6808        2590.00     11294.15
 1224.58        3346.50           6812        1039.00      4529.82
 1224.61        3346.75           6816         241.00      1050.60
 1224.64        3347.00           6819          96.00       418.49
 1224.67        3347.25           6823          66.00       287.71
 1224.69        3347.50           6827          62.00       270.27
 1224.72        3347.75           6831          65.00       283.35
 1224.75        3348.00           6834          49.00       213.60
 1224.78        3348.25           6838          51.00       222.32
 1224.81        3348.50           6842          54.00       235.40
 1224.83        3348.75           6846          46.00       200.52
 1224.86        3349.00           6849          51.00       222.32
 1224.89        3349.25           6853          44.00       191.81
 1224.91        3349.50           6857          46.00       200.52
 1224.94        3349.75           6861          39.00       170.01
 1224.97        3350.00           6864          48.00       209.24
 1225.00        3350.25           6868          42.00       183.09
 1225.03        3350.50           6872          47.00       204.88
 1225.05        3350.75           6876          44.00       191.81
 1225.08        3351.00           6879          44.00       191.81
HL scan finished at 20:26:34
end
