************************************************************
  HL Scan of (1) Internal mercury lamp
************************************************************
Integration time is 0.2294 seconds per sample
dh040518Brussels 50.799-4.357 2.375pr1000
************************************************************
Dead Time -------------------------  2.7E-08 
Number of Cycles Used -------------  4 
Starting Wavelength (Angstroms) ---  3331 
Final Wavelength (Angstoms) -------  3351 
Wavelength Increment (Angstroms) --  .25 
Filter Wheel #1 Position ---------- (1) Ground quartz diffuser (ND=2.32)
Filter Wheel #2 Position ---------- 



************************************************************
HL scan start time = 00:32:37
Dark Count =  .2 


Time (GMT)  Wavelength (Ang)  Step Number  Raw Counts  Counts/Second

   33.38        3331.00           6579          39.00       169.14
   33.79        3331.25           6582          48.00       208.37
   33.82        3331.50           6586          47.00       204.01
   33.84        3331.75           6590          41.00       177.86
   33.87        3332.00           6594          38.00       164.78
   33.90        3332.25           6597          46.00       199.65
   33.93        3332.50           6601          37.00       160.42
   33.96        3332.75           6605          45.00       195.29
   33.98        3333.00           6608          44.00       190.93
   34.01        3333.25           6612          42.00       182.22
   34.04        3333.50           6616          41.00       177.86
   34.07        3333.75           6620          42.00       182.22
   34.10        3334.00           6623          39.00       169.14
   34.13        3334.25           6627          42.00       182.22
   34.15        3334.50           6631          42.00       182.22
   34.18        3334.75           6635          41.00       177.86
   34.21        3335.00           6638          48.00       208.37
   34.24        3335.25           6642          51.00       221.45
   34.27        3335.50           6646          51.00       221.45
   34.29        3335.75           6649          63.00       273.76
   34.32        3336.00           6653          56.00       243.24
   34.35        3336.25           6657          86.00       374.02
   34.38        3336.50           6661         575.00      2505.84
   34.41        3336.75           6664        1672.00      7289.14
   34.44        3337.00           6668        3326.00     14503.50
   34.46        3337.25           6672        4906.00     21397.71
   34.49        3337.50           6676        6424.00     28023.81
   34.52        3337.75           6679        7765.00     33879.28
   34.55        3338.00           6683        9377.00     40920.51
   34.58        3338.25           6687       11176.00     48781.73
   34.61        3338.50           6690       12105.00     52842.56
   34.63        3338.75           6694       13650.00     59598.00
   34.66        3339.00           6698       15359.00     67073.41
   34.69        3339.25           6702       17164.00     74972.02
   34.72        3339.50           6705       18492.00     80785.44
   34.75        3339.75           6709       19991.00     87349.62
   34.78        3340.00           6713       21540.00     94135.21
   34.80        3340.25           6717       22806.00     99682.93
   34.83        3340.50           6720       24197.00    105780.30
   34.86        3340.75           6724       25563.00    111770.10
   34.89        3341.00           6728       27107.00    118542.70
   34.92        3341.25           6732       28166.00    123189.40
   34.95        3341.50           6735       28305.00    123799.40
   34.97        3341.75           6739       28298.00    123768.60
   35.00        3342.00           6743       27999.00    122456.50
   35.03        3342.25           6747       26543.00    116068.50
   35.06        3342.50           6750       25488.00    111441.20
   35.09        3342.75           6754       23664.00    103443.70
   35.12        3343.00           6758       22031.00     96286.62
   35.14        3343.25           6761       20975.00     91659.88
   35.17        3343.50           6765       19483.00     85124.81
   35.20        3343.75           6769       17996.00     78613.94
   35.23        3344.00           6773       16559.00     72324.19
   35.26        3344.25           6776       15171.00     66250.93
   35.29        3344.50           6780       13377.00     58404.15
   35.32        3344.75           6784       11704.00     51089.60
   35.34        3345.00           6788       10145.00     44276.09
   35.37        3345.25           6791        8954.00     39072.58
   35.40        3345.50           6795        7467.00     32577.90
   35.43        3345.75           6799        5811.00     25347.77
   35.46        3346.00           6803        4405.00     19211.36
   35.49        3346.25           6806        3241.00     14132.68
   35.51        3346.50           6810        1705.00      7433.05
   35.54        3346.75           6814         376.00      1638.26
   35.57        3347.00           6818          85.00       369.66
   35.60        3347.25           6821          72.00       312.99
   35.63        3347.50           6825          60.00       260.68
   35.66        3347.75           6829          51.00       221.45
   35.68        3348.00           6833          49.00       212.73
   35.71        3348.25           6836          52.00       225.81
   35.74        3348.50           6840          48.00       208.37
   35.77        3348.75           6844          43.00       186.57
   35.80        3349.00           6848          46.00       199.65
   35.82        3349.25           6851          47.00       204.01
   35.85        3349.50           6855          46.00       199.65
   35.88        3349.75           6859          42.00       182.22
   35.91        3350.00           6863          42.00       182.22
   35.94        3350.25           6866          44.00       190.93
   35.96        3350.50           6870          47.00       204.01
   35.99        3350.75           6874          38.00       164.78
   36.02        3351.00           6878          41.00       177.86
HL scan finished at 00:37:30
end
************************************************************
  HL Scan of (1) Internal mercury lamp
************************************************************
Integration time is 0.2294 seconds per sample
dh040518Brussels 50.799-4.357 2.428648pr1000
************************************************************
Dead Time -------------------------  2.7E-08 
Number of Cycles Used -------------  4 
Starting Wavelength (Angstroms) ---  3331 
Final Wavelength (Angstoms) -------  3351 
Wavelength Increment (Angstroms) --  .25 
Filter Wheel #1 Position ---------- (1) Ground quartz diffuser (ND=2.32)
Filter Wheel #2 Position ---------- 



************************************************************
HL scan start time = 02:31:59
Dark Count =  .1 


Time (GMT)  Wavelength (Ang)  Step Number  Raw Counts  Counts/Second

  152.74        3331.00           6579          36.00       156.50
  153.15        3331.25           6582          43.00       187.01
  153.18        3331.50           6586          42.00       182.65
  153.20        3331.75           6590          41.00       178.29
  153.23        3332.00           6594          34.00       147.78
  153.26        3332.25           6597          42.00       182.65
  153.29        3332.50           6601          38.00       165.21
  153.32        3332.75           6605          37.00       160.86
  153.34        3333.00           6608          39.00       169.57
  153.37        3333.25           6612          35.00       152.14
  153.40        3333.50           6616          39.00       169.57
  153.43        3333.75           6620          39.00       169.57
  153.46        3334.00           6623          42.00       182.65
  153.49        3334.25           6627          41.00       178.29
  153.51        3334.50           6631          45.00       195.73
  153.54        3334.75           6635          45.00       195.73
  153.57        3335.00           6638          45.00       195.73
  153.60        3335.25           6642          50.00       217.53
  153.63        3335.50           6646          57.00       248.04
  153.66        3335.75           6649          57.00       248.04
  153.69        3336.00           6653          50.00       217.53
  153.71        3336.25           6657         120.00       522.68
  153.74        3336.50           6661         849.00      3700.89
  153.77        3336.75           6664        1716.00      7481.46
  153.80        3337.00           6668        2908.00     12680.45
  153.83        3337.25           6672        4168.00     18177.62
  153.86        3337.50           6676        5466.00     23842.28
  153.88        3337.75           6679        6437.00     28081.01
  153.91        3338.00           6683        8046.00     35106.93
  153.94        3338.25           6687        9492.00     41423.38
  153.97        3338.50           6690       10490.00     45784.12
  154.00        3338.75           6694       11895.00     51924.98
  154.03        3339.00           6698       13215.00     57696.18
  154.06        3339.25           6702       14738.00     64357.16
  154.08        3339.50           6705       15769.00     68867.70
  154.11        3339.75           6709       16793.00     73348.69
  154.14        3340.00           6713       18191.00     79468.06
  154.17        3340.25           6717       19509.00     85239.10
  154.20        3340.50           6720       20791.00     90854.24
  154.23        3340.75           6724       22138.00     96755.93
  154.26        3341.00           6728       23398.00    102278.10
  154.28        3341.25           6732       24106.00    105381.80
  154.31        3341.50           6735       24352.00    106460.30
  154.34        3341.75           6739       24366.00    106521.70
  154.37        3342.00           6743       23975.00    104807.50
  154.40        3342.25           6747       23030.00    100665.10
  154.43        3342.50           6750       21909.00     95752.46
  154.46        3342.75           6754       20619.00     90100.79
  154.48        3343.00           6758       19199.00     83881.57
  154.51        3343.25           6761       18173.00     79389.26
  154.54        3343.50           6765       16808.00     73414.35
  154.57        3343.75           6769       15462.00     67524.49
  154.60        3344.00           6773       14131.00     61702.11
  154.63        3344.25           6776       13033.00     56900.34
  154.66        3344.50           6780       11610.00     50679.15
  154.68        3344.75           6784       10387.00     45334.01
  154.71        3345.00           6788        8966.00     39125.45
  154.74        3345.25           6791        8018.00     34984.64
  154.77        3345.50           6795        6297.00     27469.80
  154.80        3345.75           6799        4841.00     21114.48
  154.83        3346.00           6803        3481.00     15180.15
  154.85        3346.25           6806        2475.00     10791.72
  154.88        3346.50           6810        1156.00      5039.48
  154.91        3346.75           6814         225.00       980.41
  154.94        3347.00           6818          84.00       365.74
  154.97        3347.25           6821          67.00       291.63
  155.00        3347.50           6825          55.00       239.32
  155.02        3347.75           6829          54.00       234.96
  155.05        3348.00           6833          45.00       195.73
  155.08        3348.25           6836          41.00       178.29
  155.11        3348.50           6840          39.00       169.57
  155.14        3348.75           6844          44.00       191.37
  155.17        3349.00           6848          43.00       187.01
  155.19        3349.25           6851          42.00       182.65
  155.22        3349.50           6855          43.00       187.01
  155.25        3349.75           6859          48.00       208.81
  155.28        3350.00           6863          43.00       187.01
  155.31        3350.25           6866          40.00       173.93
  155.34        3350.50           6870          42.00       182.65
  155.36        3350.75           6874          36.00       156.50
  155.39        3351.00           6878          40.00       173.93
HL scan finished at 02:36:52
end
************************************************************
  HL Scan of (1) Internal mercury lamp
************************************************************
Integration time is 0.2294 seconds per sample
dh040518Brussels 50.799-4.357 2.857833pr1000
************************************************************
Dead Time -------------------------  2.7E-08 
Number of Cycles Used -------------  4 
Starting Wavelength (Angstroms) ---  3331 
Final Wavelength (Angstoms) -------  3351 
Wavelength Increment (Angstroms) --  .25 
Filter Wheel #1 Position ---------- (1) Ground quartz diffuser (ND=2.32)
Filter Wheel #2 Position ---------- 



************************************************************
HL scan start time = 20:18:28
Dark Count =  0 


Time (GMT)  Wavelength (Ang)  Step Number  Raw Counts  Counts/Second

 1219.24        3331.00           6579          48.00       209.24
 1219.64        3331.25           6582          44.00       191.81
 1219.67        3331.50           6586          45.00       196.16
 1219.70        3331.75           6590          44.00       191.81
 1219.73        3332.00           6594          46.00       200.52
 1219.76        3332.25           6597          48.00       209.24
 1219.79        3332.50           6601          44.00       191.81
 1219.82        3332.75           6605          45.00       196.16
 1219.84        3333.00           6608          51.00       222.32
 1219.87        3333.25           6612          43.00       187.45
 1219.90        3333.50           6616          45.00       196.16
 1219.93        3333.75           6620          42.00       183.09
 1219.96        3334.00           6623          39.00       170.01
 1219.99        3334.25           6627          46.00       200.52
 1220.01        3334.50           6631          52.00       226.68
 1220.04        3334.75           6635          49.00       213.60
 1220.07        3335.00           6638          48.00       209.24
 1220.10        3335.25           6642          55.00       239.76
 1220.13        3335.50           6646          55.00       239.76
 1220.15        3335.75           6649          55.00       239.76
 1220.18        3336.00           6653          64.00       278.99
 1220.21        3336.25           6657          86.00       374.89
 1220.24        3336.50           6661         721.00      3143.25
 1220.27        3336.75           6664        1960.00      8546.00
 1220.30        3337.00           6668        3454.00     15062.79
 1220.32        3337.25           6672        5221.00     22773.37
 1220.35        3337.50           6676        7056.00     30784.08
 1220.38        3337.75           6679        8479.00     36998.58
 1220.41        3338.00           6683       10223.00     44617.80
 1220.44        3338.25           6687       12019.00     52467.48
 1220.47        3338.50           6690       13499.00     58938.53
 1220.50        3338.75           6694       15389.00     67205.53
 1220.52        3339.00           6698       17587.00     76824.41
 1220.55        3339.25           6702       19447.00     84968.03
 1220.58        3339.50           6705       20800.00     90894.11
 1220.61        3339.75           6709       22302.00     97475.03
 1220.64        3340.00           6713       24289.00    106184.60
 1220.67        3340.25           6717       26079.00    114034.10
 1220.70        3340.50           6720       27114.00    118574.30
 1220.72        3340.75           6724       28737.00    125696.10
 1220.75        3341.00           6728       30636.00    134032.60
 1220.78        3341.25           6732       32197.00    140888.00
 1220.81        3341.50           6735       32455.00    142021.30
 1220.84        3341.75           6739       32536.00    142377.10
 1220.87        3342.00           6743       32049.00    140237.90
 1220.89        3342.25           6747       30902.00    135200.60
 1220.92        3342.50           6750       29521.00    129137.40
 1220.95        3342.75           6754       27611.00    120754.90
 1220.98        3343.00           6758       25896.00    113231.40
 1221.01        3343.25           6761       24918.00    108942.50
 1221.04        3343.50           6765       22889.00    100047.60
 1221.07        3343.75           6769       21193.00     92615.79
 1221.09        3344.00           6773       19213.00     83943.31
 1221.12        3344.25           6776       17683.00     77244.63
 1221.15        3344.50           6780       15793.00     68973.13
 1221.18        3344.75           6784       13945.00     60889.03
 1221.21        3345.00           6788       11872.00     51824.87
 1221.24        3345.25           6791       10413.00     45448.07
 1221.26        3345.50           6795        8810.00     38444.42
 1221.29        3345.75           6799        7003.00     30552.66
 1221.32        3346.00           6803        5140.00     22419.85
 1221.35        3346.25           6806        3777.00     16472.02
 1221.38        3346.50           6810        2001.00      8724.81
 1221.41        3346.75           6814         574.00      2502.35
 1221.43        3347.00           6818         130.00       566.70
 1221.46        3347.25           6821          74.00       322.58
 1221.49        3347.50           6825          64.00       278.99
 1221.52        3347.75           6829          59.00       257.19
 1221.55        3348.00           6833          53.00       231.04
 1221.58        3348.25           6836          58.00       252.84
 1221.60        3348.50           6840          51.00       222.32
 1221.63        3348.75           6844          52.00       226.68
 1221.66        3349.00           6848          44.00       191.81
 1221.69        3349.25           6851          43.00       187.45
 1221.72        3349.50           6855          41.00       178.73
 1221.75        3349.75           6859          40.00       174.37
 1221.78        3350.00           6863          50.00       217.96
 1221.80        3350.25           6866          42.00       183.09
 1221.83        3350.50           6870          42.00       183.09
 1221.86        3350.75           6874          47.00       204.88
 1221.89        3351.00           6878          47.00       204.88
HL scan finished at 20:23:22
end
