************************************************************
  HL Scan of (1) Internal mercury lamp
************************************************************
Integration time is 0.2294 seconds per sample
dh030518Brussels 50.799-4.357 2.643241pr1000
************************************************************
Dead Time -------------------------  2.7E-08 
Number of Cycles Used -------------  4 
Starting Wavelength (Angstroms) ---  3331 
Final Wavelength (Angstoms) -------  3351 
Wavelength Increment (Angstroms) --  .25 
Filter Wheel #1 Position ---------- (1) Ground quartz diffuser (ND=2.32)
Filter Wheel #2 Position ---------- 



************************************************************
HL scan start time = 20:16:44
Dark Count =  .1 


Time (GMT)  Wavelength (Ang)  Step Number  Raw Counts  Counts/Second

 1217.49        3331.00           6579          37.00       160.86
 1217.90        3331.25           6582          45.00       195.73
 1217.92        3331.50           6586          39.00       169.57
 1217.95        3331.75           6590          45.00       195.73
 1217.98        3332.00           6594          47.00       204.45
 1218.01        3332.25           6597          37.00       160.86
 1218.04        3332.50           6601          42.00       182.65
 1218.07        3332.75           6605          38.00       165.21
 1218.09        3333.00           6608          43.00       187.01
 1218.12        3333.25           6612          43.00       187.01
 1218.15        3333.50           6616          44.00       191.37
 1218.18        3333.75           6620          37.00       160.86
 1218.21        3334.00           6623          47.00       204.45
 1218.24        3334.25           6627          45.00       195.73
 1218.26        3334.50           6631          50.00       217.53
 1218.29        3334.75           6635          48.00       208.81
 1218.32        3335.00           6638          43.00       187.01
 1218.35        3335.25           6642          53.00       230.60
 1218.38        3335.50           6646          57.00       248.04
 1218.40        3335.75           6649          54.00       234.96
 1218.43        3336.00           6653          61.00       265.48
 1218.46        3336.25           6657          87.00       378.82
 1218.49        3336.50           6661         779.00      3395.69
 1218.52        3336.75           6664        1844.00      8039.67
 1218.55        3337.00           6668        3161.00     13784.12
 1218.57        3337.25           6672        4731.00     20634.42
 1218.60        3337.50           6676        6320.00     27570.21
 1218.63        3337.75           6679        7505.00     32744.28
 1218.66        3338.00           6683        9470.00     41327.26
 1218.69        3338.25           6687       11121.00     48541.79
 1218.72        3338.50           6690       12303.00     53708.60
 1218.75        3338.75           6694       14142.00     61750.22
 1218.77        3339.00           6698       15704.00     68583.30
 1218.80        3339.25           6702       17167.00     74985.59
 1218.83        3339.50           6705       18483.00     80746.47
 1218.86        3339.75           6709       19701.00     86079.96
 1218.89        3340.00           6713       21415.00     93587.98
 1218.92        3340.25           6717       22970.00    100402.20
 1218.94        3340.50           6720       24538.00    107275.80
 1218.97        3340.75           6724       25742.00    112555.60
 1219.00        3341.00           6728       27171.00    118824.00
 1219.03        3341.25           6732       28030.00    122593.00
 1219.06        3341.50           6735       28294.00    123751.50
 1219.09        3341.75           6739       28332.00    123918.30
 1219.11        3342.00           6743       27730.00    121276.60
 1219.14        3342.25           6747       26719.00    116841.00
 1219.17        3342.50           6750       25385.00    110989.90
 1219.20        3342.75           6754       23855.00    104281.40
 1219.23        3343.00           6758       22248.00     97237.96
 1219.26        3343.25           6761       20880.00     91244.13
 1219.28        3343.50           6765       19450.00     84980.74
 1219.31        3343.75           6769       17797.00     77743.23
 1219.34        3344.00           6773       16068.00     70176.00
 1219.37        3344.25           6776       14903.00     65078.95
 1219.40        3344.50           6780       13473.00     58824.40
 1219.43        3344.75           6784       11855.00     51750.12
 1219.46        3345.00           6788       10185.00     44451.32
 1219.48        3345.25           6791        8893.00     38806.56
 1219.51        3345.50           6795        7343.00     32036.85
 1219.54        3345.75           6799        5619.00     24510.11
 1219.57        3346.00           6803        4065.00     17728.19
 1219.60        3346.25           6806        2936.00     12802.59
 1219.63        3346.50           6810        1479.00      6447.94
 1219.65        3346.75           6814         367.00      1599.46
 1219.68        3347.00           6818         103.00       448.57
 1219.71        3347.25           6821          66.00       287.27
 1219.74        3347.50           6825          58.00       252.40
 1219.77        3347.75           6829          57.00       248.04
 1219.80        3348.00           6833          51.00       221.88
 1219.82        3348.25           6836          53.00       230.60
 1219.85        3348.50           6840          52.00       226.24
 1219.88        3348.75           6844          50.00       217.53
 1219.91        3349.00           6848          47.00       204.45
 1219.94        3349.25           6851          45.00       195.73
 1219.97        3349.50           6855          42.00       182.65
 1219.99        3349.75           6859          42.00       182.65
 1220.02        3350.00           6863          43.00       187.01
 1220.05        3350.25           6866          47.00       204.45
 1220.08        3350.50           6870          45.00       195.73
 1220.11        3350.75           6874          36.00       156.50
 1220.13        3351.00           6878          37.00       160.86
HL scan finished at 20:21:37
end
