************************************************************
  HL Scan of (1) Internal mercury lamp
************************************************************
Integration time is 0.2294 seconds per sample
dh080518Brussels 50.799-4.357 2.911481pr1000
************************************************************
Dead Time -------------------------  2.7E-08 
Number of Cycles Used -------------  4 
Starting Wavelength (Angstroms) ---  3331 
Final Wavelength (Angstoms) -------  3351 
Wavelength Increment (Angstroms) --  .25 
Filter Wheel #1 Position ---------- (1) Ground quartz diffuser (ND=2.32)
Filter Wheel #2 Position ---------- 



************************************************************
HL scan start time = 02:33:21
Dark Count =  .2 


Time (GMT)  Wavelength (Ang)  Step Number  Raw Counts  Counts/Second

  154.12        3331.00           6579          44.00       190.93
  154.53        3331.25           6582          43.00       186.57
  154.56        3331.50           6586          46.00       199.65
  154.58        3331.75           6590          39.00       169.14
  154.61        3332.00           6594          39.00       169.14
  154.64        3332.25           6597          48.00       208.37
  154.67        3332.50           6601          43.00       186.57
  154.70        3332.75           6605          43.00       186.57
  154.73        3333.00           6608          48.00       208.37
  154.76        3333.25           6612          39.00       169.14
  154.78        3333.50           6616          47.00       204.01
  154.81        3333.75           6620          46.00       199.65
  154.84        3334.00           6623          51.00       221.45
  154.87        3334.25           6627          46.00       199.65
  154.90        3334.50           6631          53.00       230.17
  154.93        3334.75           6635          43.00       186.57
  154.96        3335.00           6638          48.00       208.37
  154.99        3335.25           6642          60.00       260.68
  155.02        3335.50           6646          51.00       221.45
  155.05        3335.75           6649          61.00       265.04
  155.08        3336.00           6653          65.00       282.48
  155.11        3336.25           6657          98.00       426.33
  155.13        3336.50           6661         906.00      3948.98
  155.16        3336.75           6664        2232.00      9731.41
  155.19        3337.00           6668        4011.00     17492.13
  155.22        3337.25           6672        5678.00     24767.21
  155.25        3337.50           6676        7532.00     32861.75
  155.28        3337.75           6679        8998.00     39264.80
  155.31        3338.00           6683       11116.00     48519.49
  155.34        3338.25           6687       12939.00     56488.88
  155.36        3338.50           6690       14618.00     63831.80
  155.39        3338.75           6694       16570.00     72372.32
  155.42        3339.00           6698       18634.00     81407.16
  155.45        3339.25           6702       20687.00     90398.24
  155.48        3339.50           6705       22160.00     96851.90
  155.51        3339.75           6709       24117.00    105429.60
  155.54        3340.00           6713       26096.00    114107.80
  155.57        3340.25           6717       27922.00    122118.70
  155.60        3340.50           6720       29209.00    127766.90
  155.63        3340.75           6724       30966.00    135480.80
  155.66        3341.00           6728       32644.00    142850.70
  155.69        3341.25           6732       33995.00    148786.60
  155.71        3341.50           6735       34465.00    150852.10
  155.74        3341.75           6739       34559.00    151265.20
  155.77        3342.00           6743       34349.00    150342.30
  155.80        3342.25           6747       32499.00    142213.70
  155.83        3342.50           6750       31159.00    136328.30
  155.86        3342.75           6754       29315.00    128232.20
  155.88        3343.00           6758       27529.00    120394.20
  155.91        3343.25           6761       26182.00    114485.00
  155.94        3343.50           6765       24376.00    106565.10
  155.97        3343.75           6769       22320.00     97553.04
  156.00        3344.00           6773       20382.00     89062.21
  156.03        3344.25           6776       18650.00     81477.21
  156.06        3344.50           6780       16626.00     72617.40
  156.08        3344.75           6784       14715.00     64256.11
  156.11        3345.00           6788       12710.00     55487.60
  156.14        3345.25           6791       11027.00     48130.51
  156.17        3345.50           6795        9031.00     39408.95
  156.20        3345.75           6799        7393.00     32254.76
  156.23        3346.00           6803        5455.00     23793.84
  156.25        3346.25           6806        4048.00     17653.57
  156.28        3346.50           6810        2270.00      9897.15
  156.31        3346.75           6814         550.00      2396.84
  156.34        3347.00           6818         128.00       557.11
  156.37        3347.25           6821          68.00       295.56
  156.40        3347.50           6825          60.00       260.68
  156.43        3347.75           6829          62.00       269.40
  156.45        3348.00           6833          58.00       251.96
  156.48        3348.25           6836          52.00       225.81
  156.51        3348.50           6840          50.00       217.09
  156.54        3348.75           6844          49.00       212.73
  156.57        3349.00           6848          48.00       208.37
  156.59        3349.25           6851          48.00       208.37
  156.62        3349.50           6855          47.00       204.01
  156.65        3349.75           6859          47.00       204.01
  156.68        3350.00           6863          46.00       199.65
  156.71        3350.25           6866          48.00       208.37
  156.74        3350.50           6870          45.00       195.29
  156.77        3350.75           6874          45.00       195.29
  156.79        3351.00           6878          51.00       221.45
HL scan finished at 02:38:16
end
