************************************************************
  HL Scan of (1) Internal mercury lamp
************************************************************
Integration time is 0.2294 seconds per sample
dh060518Brussels 50.799-4.357 2.750537pr1000
************************************************************
Dead Time -------------------------  2.7E-08 
Number of Cycles Used -------------  4 
Starting Wavelength (Angstroms) ---  3331 
Final Wavelength (Angstoms) -------  3351 
Wavelength Increment (Angstroms) --  .25 
Filter Wheel #1 Position ---------- (1) Ground quartz diffuser (ND=2.32)
Filter Wheel #2 Position ---------- 



************************************************************
HL scan start time = 02:21:37
Dark Count =  .1 


Time (GMT)  Wavelength (Ang)  Step Number  Raw Counts  Counts/Second

  142.38        3331.00           6579          46.00       200.09
  142.79        3331.25           6582          47.00       204.45
  142.82        3331.50           6586          50.00       217.53
  142.85        3331.75           6590          44.00       191.37
  142.88        3332.00           6594          37.00       160.86
  142.91        3332.25           6597          43.00       187.01
  142.94        3332.50           6601          44.00       191.37
  142.96        3332.75           6605          42.00       182.65
  142.99        3333.00           6608          46.00       200.09
  143.02        3333.25           6612          47.00       204.45
  143.05        3333.50           6616          38.00       165.21
  143.08        3333.75           6620          40.00       173.93
  143.11        3334.00           6623          46.00       200.09
  143.13        3334.25           6627          45.00       195.73
  143.16        3334.50           6631          37.00       160.86
  143.19        3334.75           6635          46.00       200.09
  143.22        3335.00           6638          50.00       217.53
  143.25        3335.25           6642          57.00       248.04
  143.28        3335.50           6646          56.00       243.68
  143.30        3335.75           6649          62.00       269.84
  143.33        3336.00           6653          66.00       287.27
  143.36        3336.25           6657         147.00       640.38
  143.39        3336.50           6661         861.00      3753.21
  143.42        3336.75           6664        1814.00      7908.84
  143.44        3337.00           6668        3452.00     15053.63
  143.47        3337.25           6672        5390.00     23510.56
  143.50        3337.50           6676        7030.00     30670.11
  143.53        3337.75           6679        8177.00     35679.08
  143.56        3338.00           6683        9851.00     42991.90
  143.59        3338.25           6687       11772.00     51387.30
  143.62        3338.50           6690       13173.00     57512.52
  143.64        3338.75           6694       14864.00     64908.34
  143.67        3339.00           6698       16370.00     71497.53
  143.70        3339.25           6702       18013.00     78688.80
  143.73        3339.50           6705       19361.00     84590.99
  143.76        3339.75           6709       21247.00     92851.94
  143.79        3340.00           6713       23073.00    100853.60
  143.81        3340.25           6717       24735.00    108139.60
  143.84        3340.50           6720       25685.00    112305.60
  143.87        3340.75           6724       27461.00    120096.30
  143.90        3341.00           6728       29325.00    128276.60
  143.93        3341.25           6732       30039.00    131410.90
  143.96        3341.50           6735       30169.00    131981.70
  143.99        3341.75           6739       30273.00    132438.30
  144.01        3342.00           6743       29777.00    130260.70
  144.04        3342.25           6747       28294.00    123751.50
  144.07        3342.50           6750       27037.00    118236.10
  144.10        3342.75           6754       25312.00    110669.80
  144.13        3343.00           6758       23710.00    103645.80
  144.16        3343.25           6761       22611.00     98828.75
  144.18        3343.50           6765       20878.00     91235.38
  144.21        3343.75           6769       19316.00     84393.91
  144.24        3344.00           6773       17609.00     76920.28
  144.27        3344.25           6776       16348.00     71401.25
  144.30        3344.50           6780       14692.00     64155.94
  144.33        3344.75           6784       12769.00     55746.01
  144.36        3345.00           6788       10661.00     46531.40
  144.38        3345.25           6791        9340.00     40759.31
  144.41        3345.50           6795        7844.00     34224.72
  144.44        3345.75           6799        6018.00     26251.82
  144.47        3346.00           6803        4184.00     18247.44
  144.50        3346.25           6806        2977.00     12981.45
  144.53        3346.50           6810        1487.00      6482.83
  144.56        3346.75           6814         366.00      1595.10
  144.58        3347.00           6818         104.00       452.93
  144.61        3347.25           6821          73.00       317.79
  144.64        3347.50           6825          68.00       295.99
  144.67        3347.75           6829          56.00       243.68
  144.70        3348.00           6833          50.00       217.53
  144.73        3348.25           6836          53.00       230.60
  144.75        3348.50           6840          49.00       213.17
  144.78        3348.75           6844          43.00       187.01
  144.81        3349.00           6848          45.00       195.73
  144.84        3349.25           6851          45.00       195.73
  144.87        3349.50           6855          46.00       200.09
  144.90        3349.75           6859          37.00       160.86
  144.93        3350.00           6863          49.00       213.17
  144.95        3350.25           6866          44.00       191.37
  144.98        3350.50           6870          44.00       191.37
  145.01        3350.75           6874          39.00       169.57
  145.04        3351.00           6878          43.00       187.01
HL scan finished at 02:26:31
end
************************************************************
  HL Scan of (1) Internal mercury lamp
************************************************************
Integration time is 0.2294 seconds per sample
dh060518Brussels 50.799-4.357 3.179721pr1000
************************************************************
Dead Time -------------------------  2.7E-08 
Number of Cycles Used -------------  4 
Starting Wavelength (Angstroms) ---  3331 
Final Wavelength (Angstoms) -------  3351 
Wavelength Increment (Angstroms) --  .25 
Filter Wheel #1 Position ---------- (1) Ground quartz diffuser (ND=2.32)
Filter Wheel #2 Position ---------- 



************************************************************
HL scan start time = 20:21:37
Dark Count =  .2 


Time (GMT)  Wavelength (Ang)  Step Number  Raw Counts  Counts/Second

 1222.37        3331.00           6579          49.00       212.73
 1222.78        3331.25           6582          46.00       199.65
 1222.81        3331.50           6586          47.00       204.01
 1222.84        3331.75           6590          49.00       212.73
 1222.87        3332.00           6594          43.00       186.57
 1222.89        3332.25           6597          50.00       217.09
 1222.92        3332.50           6601          43.00       186.57
 1222.95        3332.75           6605          54.00       234.53
 1222.98        3333.00           6608          47.00       204.01
 1223.01        3333.25           6612          47.00       204.01
 1223.03        3333.50           6616          44.00       190.93
 1223.06        3333.75           6620          44.00       190.93
 1223.09        3334.00           6623          44.00       190.93
 1223.12        3334.25           6627          40.00       173.50
 1223.15        3334.50           6631          51.00       221.45
 1223.18        3334.75           6635          51.00       221.45
 1223.21        3335.00           6638          51.00       221.45
 1223.23        3335.25           6642          55.00       238.89
 1223.26        3335.50           6646          65.00       282.48
 1223.29        3335.75           6649          69.00       299.92
 1223.32        3336.00           6653          78.00       339.15
 1223.35        3336.25           6657         106.00       461.21
 1223.38        3336.50           6661         746.00      3251.38
 1223.40        3336.75           6664        2253.00      9823.01
 1223.43        3337.00           6668        4505.00     19647.74
 1223.46        3337.25           6672        6641.00     28971.21
 1223.49        3337.50           6676        8670.00     37832.00
 1223.52        3337.75           6679       10098.00     44070.72
 1223.55        3338.00           6683       12206.00     53284.10
 1223.57        3338.25           6687       14699.00     64186.12
 1223.60        3338.50           6690       16411.00     71676.51
 1223.63        3338.75           6694       18358.00     80198.76
 1223.66        3339.00           6698       20579.00     89925.14
 1223.69        3339.25           6702       22938.00    100261.50
 1223.72        3339.50           6705       24471.00    106981.60
 1223.75        3339.75           6709       26988.00    118020.60
 1223.77        3340.00           6713       28977.00    126748.60
 1223.80        3340.25           6717       31100.00    136069.20
 1223.83        3340.50           6720       32772.00    143413.00
 1223.86        3340.75           6724       34926.00    152878.20
 1223.89        3341.00           6728       36927.00    161675.40
 1223.92        3341.25           6732       38192.00    167239.10
 1223.95        3341.50           6735       38599.00    169029.50
 1223.97        3341.75           6739       38500.00    168593.90
 1224.00        3342.00           6743       38172.00    167151.10
 1224.03        3342.25           6747       36330.00    159050.40
 1224.06        3342.50           6750       34669.00    151748.60
 1224.09        3342.75           6754       32762.00    143369.10
 1224.12        3343.00           6758       30573.00    133755.10
 1224.15        3343.25           6761       29182.00    127648.40
 1224.17        3343.50           6765       26901.00    117639.00
 1224.20        3343.75           6769       25050.00    109520.40
 1224.23        3344.00           6773       23029.00    100660.30
 1224.26        3344.25           6776       21169.00     92509.78
 1224.29        3344.50           6780       18880.00     82484.28
 1224.32        3344.75           6784       16278.00     71094.50
 1224.35        3345.00           6788       13991.00     61089.35
 1224.37        3345.25           6791       12640.00     55181.55
 1224.40        3345.50           6795       10317.00     45027.69
 1224.43        3345.75           6799        7827.00     34150.04
 1224.46        3346.00           6803        5673.00     24745.39
 1224.49        3346.25           6806        4305.00     18774.99
 1224.52        3346.50           6810        2279.00      9936.41
 1224.54        3346.75           6814         701.00      3055.18
 1224.57        3347.00           6818         157.00       683.53
 1224.60        3347.25           6821          76.00       330.43
 1224.63        3347.50           6825          53.00       230.17
 1224.66        3347.75           6829          64.00       278.12
 1224.69        3348.00           6833          66.00       286.84
 1224.72        3348.25           6836          63.00       273.76
 1224.74        3348.50           6840          47.00       204.01
 1224.77        3348.75           6844          55.00       238.89
 1224.80        3349.00           6848          53.00       230.17
 1224.83        3349.25           6851          47.00       204.01
 1224.86        3349.50           6855          50.00       217.09
 1224.88        3349.75           6859          53.00       230.17
 1224.91        3350.00           6863          48.00       208.37
 1224.94        3350.25           6866          50.00       217.09
 1224.97        3350.50           6870          47.00       204.01
 1225.00        3350.75           6874          51.00       221.45
 1225.03        3351.00           6878          47.00       204.01
HL scan finished at 20:26:30
end
