************************************************************
  HL Scan of (1) Internal mercury lamp
************************************************************
Integration time is 0.2294 seconds per sample
dh070517De Bilt 52.1-5.183 2.589593pr1000
************************************************************
Dead Time -------------------------  3E-08 
Number of Cycles Used -------------  4 
Starting Wavelength (Angstroms) ---  3331 
Final Wavelength (Angstoms) -------  3351 
Wavelength Increment (Angstroms) --  .25 
Filter Wheel #1 Position ---------- (1) Ground quartz diffuser (ND=2.32)
Filter Wheel #2 Position ---------- 



************************************************************
HL scan start time = 01:17:56
Dark Count =  0 


Time (GMT)  Wavelength (Ang)  Step Number  Raw Counts  Counts/Second

   78.69        3331.00           6581          35.00       152.57
   79.11        3331.25           6584          42.00       183.09
   79.14        3331.50           6588          42.00       183.09
   79.16        3331.75           6592          48.00       209.24
   79.19        3332.00           6595          43.00       187.45
   79.22        3332.25           6599          40.00       174.37
   79.25        3332.50           6603          51.00       222.32
   79.27        3332.75           6607          37.00       161.29
   79.30        3333.00           6610          47.00       204.88
   79.33        3333.25           6614          44.00       191.81
   79.36        3333.50           6618          41.00       178.73
   79.39        3333.75           6622          45.00       196.17
   79.41        3334.00           6625          46.00       200.52
   79.44        3334.25           6629          48.00       209.24
   79.47        3334.50           6633          44.00       191.81
   79.50        3334.75           6636          50.00       217.96
   79.53        3335.00           6640          60.00       261.55
   79.56        3335.25           6644          53.00       231.04
   79.59        3335.50           6648          61.00       265.91
   79.61        3335.75           6651          58.00       252.84
   79.64        3336.00           6655          79.00       344.38
   79.67        3336.25           6659         346.00      1508.35
   79.70        3336.50           6663        1560.00      6801.74
   79.72        3336.75           6666        2621.00     11429.38
   79.75        3337.00           6670        4071.00     17755.75
   79.78        3337.25           6674        5853.00     25533.94
   79.81        3337.50           6677        7043.00     30730.15
   79.84        3337.75           6681        8398.00     36648.82
   79.86        3338.00           6685       10193.00     44492.65
   79.89        3338.25           6689       11720.00     51168.29
   79.92        3338.50           6692       13194.00     57614.76
   79.95        3338.75           6696       14837.00     64803.28
   79.97        3339.00           6700       16475.00     71973.03
   80.00        3339.25           6704       18010.00     78694.73
   80.03        3339.50           6707       19259.00     84166.05
   80.06        3339.75           6711       20928.00     91480.01
   80.09        3340.00           6715       22259.00     97315.09
   80.11        3340.25           6719       23692.00    103599.60
   80.14        3340.50           6722       24703.00    108034.90
   80.17        3340.75           6726       26390.00    115438.30
   80.20        3341.00           6730       27796.00    121611.10
   80.22        3341.25           6733       28212.00    123438.00
   80.25        3341.50           6737       28253.00    123618.00
   80.28        3341.75           6741       27988.00    122454.30
   80.31        3342.00           6745       27219.00    119077.60
   80.34        3342.25           6748       25857.00    113098.90
   80.36        3342.50           6752       24678.00    107925.20
   80.39        3342.75           6756       23164.00    101283.80
   80.42        3343.00           6760       21497.00     93974.24
   80.45        3343.25           6763       20175.00     88179.79
   80.47        3343.50           6767       18695.00     81695.18
   80.50        3343.75           6771       16812.00     73448.50
   80.53        3344.00           6775       15408.00     67302.28
   80.56        3344.25           6778       14114.00     61639.60
   80.59        3344.50           6782       12495.00     54557.40
   80.61        3344.75           6786       10682.00     46630.14
   80.64        3345.00           6790        9252.00     40380.19
   80.67        3345.25           6793        8126.00     35460.55
   80.70        3345.50           6797        6630.00     28926.58
   80.72        3345.75           6801        4974.00     21696.77
   80.75        3346.00           6805        3286.00     14330.48
   80.78        3346.25           6808        2045.00      8916.94
   80.81        3346.50           6812         588.00      2563.41
   80.84        3346.75           6816         135.00       588.50
   80.87        3347.00           6819          69.00       300.79
   80.90        3347.25           6823          58.00       252.84
   80.93        3347.50           6827          59.00       257.19
   80.96        3347.75           6831          48.00       209.24
   80.99        3348.00           6834          49.00       213.60
   81.02        3348.25           6838          45.00       196.17
   81.05        3348.50           6842          45.00       196.17
   81.07        3348.75           6846          48.00       209.24
   81.10        3349.00           6849          45.00       196.17
   81.13        3349.25           6853          48.00       209.24
   81.16        3349.50           6857          43.00       187.45
   81.18        3349.75           6861          45.00       196.17
   81.21        3350.00           6864          49.00       213.60
   81.24        3350.25           6868          40.00       174.37
   81.27        3350.50           6872          53.00       231.04
   81.29        3350.75           6876          42.00       183.09
   81.32        3351.00           6879          46.00       200.52
HL scan finished at 01:22:48
end
************************************************************
  HL Scan of (1) Internal mercury lamp
************************************************************
Integration time is 0.2294 seconds per sample
dh070517De Bilt 52.1-5.183 2.589593pr1000
************************************************************
Dead Time -------------------------  3E-08 
Number of Cycles Used -------------  4 
Starting Wavelength (Angstroms) ---  3331 
Final Wavelength (Angstoms) -------  3351 
Wavelength Increment (Angstroms) --  .25 
Filter Wheel #1 Position ---------- (1) Ground quartz diffuser (ND=2.32)
Filter Wheel #2 Position ---------- 



************************************************************
HL scan start time = 01:44:15
Dark Count =  .1 


Time (GMT)  Wavelength (Ang)  Step Number  Raw Counts  Counts/Second

  105.01        3331.00           6581          37.00       160.86
  105.42        3331.25           6584          40.00       173.93
  105.45        3331.50           6588          42.00       182.65
  105.47        3331.75           6592          35.00       152.14
  105.50        3332.00           6595          44.00       191.37
  105.53        3332.25           6599          42.00       182.65
  105.56        3332.50           6603          39.00       169.57
  105.59        3332.75           6607          46.00       200.09
  105.61        3333.00           6610          47.00       204.45
  105.65        3333.25           6614          38.00       165.21
  105.68        3333.50           6618          41.00       178.29
  105.71        3333.75           6622          41.00       178.29
  105.73        3334.00           6625          41.00       178.29
  105.76        3334.25           6629          40.00       173.93
  105.79        3334.50           6633          43.00       187.01
  105.82        3334.75           6636          50.00       217.53
  105.84        3335.00           6640          51.00       221.88
  105.87        3335.25           6644          47.00       204.45
  105.90        3335.50           6648          51.00       221.88
  105.93        3335.75           6651          48.00       208.81
  105.96        3336.00           6655          77.00       335.23
  105.99        3336.25           6659         201.00       875.79
  106.02        3336.50           6663        1286.00      5606.44
  106.05        3336.75           6666        2318.00     10107.25
  106.07        3337.00           6670        3437.00     14988.87
  106.10        3337.25           6674        4816.00     21006.70
  106.13        3337.50           6677        5899.00     25734.34
  106.16        3337.75           6681        7187.00     31358.61
  106.19        3338.00           6685        8919.00     38924.68
  106.21        3338.25           6689       10418.00     45475.69
  106.24        3338.50           6692       11472.00     50083.48
  106.27        3338.75           6696       12930.00     56459.55
  106.30        3339.00           6700       14363.00     62728.66
  106.32        3339.25           6704       15420.00     67354.36
  106.35        3339.50           6707       16445.00     71841.25
  106.38        3339.75           6711       17766.00     77625.65
  106.41        3340.00           6715       19196.00     83889.59
  106.44        3340.25           6719       20591.00     90002.49
  106.46        3340.50           6722       21649.00     94640.16
  106.49        3340.75           6726       22916.00    100195.70
  106.52        3341.00           6730       24030.00    105081.80
  106.55        3341.25           6733       24460.00    106968.30
  106.57        3341.50           6737       24466.00    106994.60
  106.60        3341.75           6741       24423.00    106805.90
  106.63        3342.00           6745       23713.00    103691.30
  106.66        3342.25           6748       22776.00     99581.71
  106.69        3342.50           6752       21363.00     93386.37
  106.71        3342.75           6756       19844.00     86728.85
  106.74        3343.00           6760       18470.00     80709.15
  106.77        3343.25           6763       17466.00     76311.82
  106.80        3343.50           6767       15997.00     69880.00
  106.83        3343.75           6771       14616.00     63835.74
  106.85        3344.00           6775       13328.00     58200.49
  106.88        3344.25           6778       12162.00     53100.66
  106.91        3344.50           6782       10863.00     47420.95
  106.94        3344.75           6786        9447.00     41231.88
  106.96        3345.00           6790        8161.00     35613.01
  106.99        3345.25           6793        7114.00     31039.79
  107.02        3345.50           6797        5613.00     24485.72
  107.05        3345.75           6801        4112.00     17934.24
  107.07        3346.00           6805        2810.00     12253.41
  107.10        3346.25           6808        1917.00      8358.24
  107.13        3346.50           6812         641.00      2794.04
  107.16        3346.75           6816         138.00       601.14
  107.19        3347.00           6819          76.00       330.87
  107.21        3347.25           6823          57.00       248.04
  107.24        3347.50           6827          45.00       195.73
  107.27        3347.75           6831          53.00       230.60
  107.30        3348.00           6834          47.00       204.45
  107.32        3348.25           6838          45.00       195.73
  107.35        3348.50           6842          39.00       169.57
  107.38        3348.75           6846          48.00       208.81
  107.41        3349.00           6849          44.00       191.37
  107.43        3349.25           6853          42.00       182.65
  107.46        3349.50           6857          45.00       195.73
  107.49        3349.75           6861          39.00       169.57
  107.52        3350.00           6864          34.00       147.78
  107.55        3350.25           6868          44.00       191.37
  107.58        3350.50           6872          43.00       187.01
  107.60        3350.75           6876          45.00       195.73
  107.63        3351.00           6879          42.00       182.65
HL scan finished at 01:49:07
end
************************************************************
  HL Scan of (1) Internal mercury lamp
************************************************************
Integration time is 0.2294 seconds per sample
dh070517De Bilt 52.1-5.183 2.535944pr1000
************************************************************
Dead Time -------------------------  3E-08 
Number of Cycles Used -------------  4 
Starting Wavelength (Angstroms) ---  3331 
Final Wavelength (Angstoms) -------  3351 
Wavelength Increment (Angstroms) --  .25 
Filter Wheel #1 Position ---------- (1) Ground quartz diffuser (ND=2.32)
Filter Wheel #2 Position ---------- 



************************************************************
HL scan start time = 20:20:47
Dark Count =  0 


Time (GMT)  Wavelength (Ang)  Step Number  Raw Counts  Counts/Second

 1221.54        3331.00           6581          37.00       161.29
 1221.95        3331.25           6584          40.00       174.37
 1221.98        3331.50           6588          38.00       165.65
 1222.01        3331.75           6592          44.00       191.81
 1222.03        3332.00           6595          41.00       178.73
 1222.06        3332.25           6599          41.00       178.73
 1222.09        3332.50           6603          36.00       156.93
 1222.12        3332.75           6607          35.00       152.57
 1222.14        3333.00           6610          39.00       170.01
 1222.17        3333.25           6614          47.00       204.88
 1222.20        3333.50           6618          41.00       178.73
 1222.23        3333.75           6622          46.00       200.52
 1222.26        3334.00           6625          45.00       196.17
 1222.29        3334.25           6629          36.00       156.93
 1222.31        3334.50           6633          46.00       200.52
 1222.34        3334.75           6636          43.00       187.45
 1222.37        3335.00           6640          52.00       226.68
 1222.40        3335.25           6644          54.00       235.40
 1222.42        3335.50           6648          59.00       257.19
 1222.45        3335.75           6651          60.00       261.55
 1222.48        3336.00           6655          69.00       300.79
 1222.51        3336.25           6659         170.00       741.08
 1222.54        3336.50           6663        1210.00      5275.46
 1222.56        3336.75           6666        2306.00     10055.34
 1222.59        3337.00           6670        4036.00     17603.02
 1222.62        3337.25           6674        5477.00     23892.45
 1222.65        3337.50           6677        6658.00     29048.85
 1222.67        3337.75           6681        8200.00     35783.82
 1222.70        3338.00           6685        9764.00     42617.67
 1222.73        3338.25           6689       11258.00     49148.27
 1222.76        3338.50           6692       12440.00     54316.86
 1222.78        3338.75           6696       13741.00     60007.67
 1222.81        3339.00           6700       15161.00     66221.24
 1222.84        3339.25           6704       16820.00     73483.53
 1222.87        3339.50           6707       18146.00     79290.40
 1222.90        3339.75           6711       19678.00     86001.90
 1222.92        3340.00           6715       21158.00     92488.18
 1222.95        3340.25           6719       22194.00     97030.07
 1222.98        3340.50           6722       23504.00    102775.00
 1223.01        3340.75           6726       24945.00    109096.70
 1223.03        3341.00           6730       26080.00    114077.60
 1223.06        3341.25           6733       26663.00    116636.70
 1223.09        3341.50           6737       26512.00    115973.90
 1223.12        3341.75           6741       26595.00    116338.20
 1223.15        3342.00           6745       25512.00    111584.80
 1223.17        3342.25           6748       24561.00    107411.80
 1223.20        3342.50           6752       23097.00    100989.90
 1223.23        3342.75           6756       21377.00     93448.19
 1223.26        3343.00           6760       19984.00     87342.78
 1223.29        3343.25           6763       18772.00     82032.50
 1223.32        3343.50           6767       17488.00     76408.60
 1223.35        3343.75           6771       16132.00     70471.41
 1223.38        3344.00           6775       14775.00     64531.97
 1223.41        3344.25           6778       13267.00     57934.08
 1223.43        3344.50           6782       11722.00     51177.03
 1223.46        3344.75           6786       10084.00     44016.24
 1223.49        3345.00           6790        8703.00     37981.36
 1223.52        3345.25           6793        7696.00     33582.20
 1223.55        3345.50           6797        6191.00     27009.67
 1223.58        3345.75           6801        4692.00     20465.92
 1223.61        3346.00           6805        3178.00     13859.29
 1223.63        3346.25           6808        2240.00      9767.47
 1223.66        3346.50           6812         833.00      3631.61
 1223.69        3346.75           6816         160.00       697.49
 1223.72        3347.00           6819          68.00       296.43
 1223.74        3347.25           6823          52.00       226.68
 1223.77        3347.50           6827          55.00       239.76
 1223.80        3347.75           6831          47.00       204.88
 1223.83        3348.00           6834          47.00       204.88
 1223.86        3348.25           6838          47.00       204.88
 1223.88        3348.50           6842          44.00       191.81
 1223.91        3348.75           6846          43.00       187.45
 1223.94        3349.00           6849          45.00       196.17
 1223.97        3349.25           6853          48.00       209.24
 1223.99        3349.50           6857          42.00       183.09
 1224.02        3349.75           6861          43.00       187.45
 1224.05        3350.00           6864          43.00       187.45
 1224.08        3350.25           6868          48.00       209.24
 1224.11        3350.50           6872          46.00       200.52
 1224.14        3350.75           6876          39.00       170.01
 1224.16        3351.00           6879          49.00       213.60
HL scan finished at 20:25:39
end
