************************************************************
  HL Scan of (1) Internal mercury lamp
************************************************************
Integration time is 0.2294 seconds per sample
dh050518Brussels 50.799-4.357 2.589593pr1000
************************************************************
Dead Time -------------------------  2.7E-08 
Number of Cycles Used -------------  4 
Starting Wavelength (Angstroms) ---  3331 
Final Wavelength (Angstoms) -------  3351 
Wavelength Increment (Angstroms) --  .25 
Filter Wheel #1 Position ---------- (1) Ground quartz diffuser (ND=2.32)
Filter Wheel #2 Position ---------- 



************************************************************
HL scan start time = 02:31:46
Dark Count =  0 


Time (GMT)  Wavelength (Ang)  Step Number  Raw Counts  Counts/Second

  152.54        3331.00           6579          37.00       161.29
  152.95        3331.25           6582          46.00       200.52
  152.97        3331.50           6586          43.00       187.45
  153.00        3331.75           6590          44.00       191.81
  153.03        3332.00           6594          49.00       213.60
  153.06        3332.25           6597          43.00       187.45
  153.09        3332.50           6601          40.00       174.37
  153.12        3332.75           6605          42.00       183.09
  153.14        3333.00           6608          38.00       165.65
  153.17        3333.25           6612          42.00       183.09
  153.20        3333.50           6616          40.00       174.37
  153.23        3333.75           6620          48.00       209.24
  153.26        3334.00           6623          40.00       174.37
  153.29        3334.25           6627          39.00       170.01
  153.31        3334.50           6631          44.00       191.81
  153.34        3334.75           6635          45.00       196.16
  153.37        3335.00           6638          50.00       217.96
  153.40        3335.25           6642          54.00       235.40
  153.43        3335.50           6646          57.00       248.48
  153.46        3335.75           6649          57.00       248.48
  153.49        3336.00           6653          54.00       235.40
  153.51        3336.25           6657          81.00       353.10
  153.54        3336.50           6661         646.00      2816.26
  153.57        3336.75           6664        1826.00      7961.61
  153.60        3337.00           6668        3388.00     14774.86
  153.63        3337.25           6672        4801.00     20940.35
  153.66        3337.50           6676        6353.00     27714.72
  153.68        3337.75           6679        7528.00     32845.16
  153.71        3338.00           6683        9023.00     39374.88
  153.74        3338.25           6687       10483.00     45753.96
  153.77        3338.50           6690       11591.00     50596.54
  153.80        3338.75           6694       13117.00     57268.09
  153.83        3339.00           6698       14704.00     64208.87
  153.86        3339.25           6702       16419.00     71712.40
  153.88        3339.50           6705       17623.00     76982.00
  153.91        3339.75           6709       18982.00     82931.78
  153.94        3340.00           6713       20338.00     88870.36
  153.97        3340.25           6717       21759.00     95095.64
  154.00        3340.50           6720       23154.00    101209.10
  154.03        3340.75           6724       24496.00    107092.10
  154.06        3341.00           6728       25769.00    112674.40
  154.08        3341.25           6732       26731.00    116894.10
  154.11        3341.50           6735       26872.00    117512.60
  154.14        3341.75           6739       26844.00    117389.80
  154.17        3342.00           6743       26447.00    115648.30
  154.20        3342.25           6747       25193.00    110148.40
  154.23        3342.50           6750       24128.00    105478.70
  154.25        3342.75           6754       22453.00     98136.77
  154.28        3343.00           6758       20838.00     91060.58
  154.31        3343.25           6761       20004.00     87407.43
  154.34        3343.50           6765       18641.00     81438.69
  154.37        3343.75           6769       17173.00     75012.28
  154.40        3344.00           6773       15638.00     68294.96
  154.43        3344.25           6776       14232.00     62144.29
  154.45        3344.50           6780       12667.00     55300.47
  154.48        3344.75           6784       11106.00     48476.67
  154.51        3345.00           6788        9585.00     41830.13
  154.54        3345.25           6791        8542.00     37273.76
  154.57        3345.50           6795        6953.00     30334.34
  154.59        3345.75           6799        5506.00     24017.32
  154.62        3346.00           6803        4119.00     17964.25
  154.65        3346.25           6806        3037.00     13243.62
  154.68        3346.50           6810        1475.00      6430.93
  154.71        3346.75           6814         330.00      1438.59
  154.74        3347.00           6818          83.00       361.82
  154.77        3347.25           6821          68.00       296.43
  154.79        3347.50           6825          55.00       239.76
  154.82        3347.75           6829          55.00       239.76
  154.85        3348.00           6833          49.00       213.60
  154.88        3348.25           6836          47.00       204.88
  154.91        3348.50           6840          48.00       209.24
  154.94        3348.75           6844          45.00       196.16
  154.96        3349.00           6848          40.00       174.37
  154.99        3349.25           6851          42.00       183.09
  155.02        3349.50           6855          41.00       178.73
  155.05        3349.75           6859          47.00       204.88
  155.08        3350.00           6863          41.00       178.73
  155.11        3350.25           6866          37.00       161.29
  155.14        3350.50           6870          34.00       148.21
  155.16        3350.75           6874          43.00       187.45
  155.19        3351.00           6878          38.00       165.65
HL scan finished at 02:36:40
end
************************************************************
  HL Scan of (1) Internal mercury lamp
************************************************************
Integration time is 0.2294 seconds per sample
dh050518Brussels 50.799-4.357 3.018777pr1000
************************************************************
Dead Time -------------------------  2.7E-08 
Number of Cycles Used -------------  4 
Starting Wavelength (Angstroms) ---  3331 
Final Wavelength (Angstoms) -------  3351 
Wavelength Increment (Angstroms) --  .25 
Filter Wheel #1 Position ---------- (1) Ground quartz diffuser (ND=2.32)
Filter Wheel #2 Position ---------- 



************************************************************
HL scan start time = 20:20:00
Dark Count =  .1 


Time (GMT)  Wavelength (Ang)  Step Number  Raw Counts  Counts/Second

 1220.76        3331.00           6579          39.00       169.57
 1221.17        3331.25           6582          44.00       191.37
 1221.20        3331.50           6586          45.00       195.73
 1221.23        3331.75           6590          43.00       187.01
 1221.26        3332.00           6594          37.00       160.86
 1221.28        3332.25           6597          46.00       200.09
 1221.31        3332.50           6601          51.00       221.88
 1221.34        3332.75           6605          48.00       208.81
 1221.37        3333.00           6608          50.00       217.53
 1221.40        3333.25           6612          45.00       195.73
 1221.43        3333.50           6616          39.00       169.57
 1221.45        3333.75           6620          46.00       200.09
 1221.48        3334.00           6623          46.00       200.09
 1221.51        3334.25           6627          55.00       239.32
 1221.54        3334.50           6631          48.00       208.81
 1221.57        3334.75           6635          46.00       200.09
 1221.60        3335.00           6638          50.00       217.53
 1221.62        3335.25           6642          50.00       217.53
 1221.65        3335.50           6646          61.00       265.48
 1221.68        3335.75           6649          62.00       269.84
 1221.71        3336.00           6653          70.00       304.71
 1221.74        3336.25           6657          97.00       422.41
 1221.77        3336.50           6661         638.00      2780.94
 1221.79        3336.75           6664        2190.00      9548.67
 1221.82        3337.00           6668        4259.00     18574.70
 1221.85        3337.25           6672        6113.00     26666.54
 1221.88        3337.50           6676        8097.00     35329.68
 1221.91        3337.75           6679        9633.00     42039.41
 1221.94        3338.00           6683       11707.00     51103.16
 1221.97        3338.25           6687       13736.00     59974.55
 1221.99        3338.50           6690       15243.00     66566.35
 1222.02        3338.75           6694       16963.00     74092.71
 1222.05        3339.00           6698       19204.00     83903.46
 1222.08        3339.25           6702       21315.00     93149.85
 1222.11        3339.50           6705       23021.00    100625.70
 1222.14        3339.75           6709       25037.00    109463.90
 1222.16        3340.00           6713       26694.00    116731.30
 1222.19        3340.25           6717       28809.00    126011.70
 1222.22        3340.50           6720       30103.00    131691.90
 1222.25        3340.75           6724       32325.00    141449.80
 1222.28        3341.00           6728       33942.00    148554.10
 1222.31        3341.25           6732       35516.00    155472.10
 1222.34        3341.50           6735       35871.00    157032.70
 1222.37        3341.75           6739       35874.00    157045.90
 1222.39        3342.00           6743       35495.00    155379.80
 1222.42        3342.25           6747       33809.00    147969.70
 1222.45        3342.50           6750       32314.00    141401.50
 1222.48        3342.75           6754       30250.00    132337.30
 1222.51        3343.00           6758       28322.00    123874.40
 1222.54        3343.25           6761       26934.00    117784.20
 1222.57        3343.50           6765       25123.00    109841.00
 1222.59        3343.75           6769       23180.00    101322.60
 1222.62        3344.00           6773       21133.00     92352.49
 1222.65        3344.25           6776       19483.00     85125.24
 1222.68        3344.50           6780       17271.00     75440.78
 1222.71        3344.75           6784       15244.00     66570.73
 1222.74        3345.00           6788       13214.00     57691.81
 1222.76        3345.25           6791       11681.00     50989.51
 1222.79        3345.50           6795        9625.00     42004.46
 1222.82        3345.75           6799        7559.00     32980.10
 1222.85        3346.00           6803        5703.00     24876.77
 1222.88        3346.25           6806        4317.00     18827.79
 1222.91        3346.50           6810        2233.00      9736.21
 1222.94        3346.75           6814         567.00      2471.39
 1222.96        3347.00           6818         130.00       566.27
 1222.99        3347.25           6821          69.00       300.35
 1223.02        3347.50           6825          65.00       282.91
 1223.05        3347.75           6829          65.00       282.91
 1223.08        3348.00           6833          64.00       278.55
 1223.11        3348.25           6836          53.00       230.60
 1223.14        3348.50           6840          57.00       248.04
 1223.16        3348.75           6844          52.00       226.24
 1223.19        3349.00           6848          46.00       200.09
 1223.22        3349.25           6851          47.00       204.45
 1223.25        3349.50           6855          47.00       204.45
 1223.28        3349.75           6859          52.00       226.24
 1223.31        3350.00           6863          45.00       195.73
 1223.33        3350.25           6866          52.00       226.24
 1223.36        3350.50           6870          52.00       226.24
 1223.39        3350.75           6874          42.00       182.65
 1223.42        3351.00           6878          47.00       204.45
HL scan finished at 20:24:54
end
