************************************************************
  HL Scan of (1) Internal mercury lamp
************************************************************
Integration time is 0.2294 seconds per sample
dh050517De Bilt 52.1-5.183 2.482296pr1000
************************************************************
Dead Time -------------------------  3E-08 
Number of Cycles Used -------------  4 
Starting Wavelength (Angstroms) ---  3331 
Final Wavelength (Angstoms) -------  3351 
Wavelength Increment (Angstroms) --  .25 
Filter Wheel #1 Position ---------- (1) Ground quartz diffuser (ND=2.32)
Filter Wheel #2 Position ---------- 



************************************************************
HL scan start time = 01:15:01
Dark Count =  .1 


Time (GMT)  Wavelength (Ang)  Step Number  Raw Counts  Counts/Second

   75.77        3331.00           6581          37.00       160.86
   76.18        3331.25           6584          40.00       173.93
   76.20        3331.50           6588          40.00       173.93
   76.23        3331.75           6592          42.00       182.65
   76.26        3332.00           6595          43.00       187.01
   76.29        3332.25           6599          47.00       204.45
   76.31        3332.50           6603          39.00       169.57
   76.35        3332.75           6607          38.00       165.21
   76.38        3333.00           6610          41.00       178.29
   76.40        3333.25           6614          44.00       191.37
   76.43        3333.50           6618          46.00       200.09
   76.46        3333.75           6622          36.00       156.50
   76.49        3334.00           6625          39.00       169.57
   76.51        3334.25           6629          39.00       169.57
   76.54        3334.50           6633          45.00       195.73
   76.57        3334.75           6636          47.00       204.45
   76.60        3335.00           6640          46.00       200.09
   76.63        3335.25           6644          48.00       208.81
   76.66        3335.50           6648          54.00       234.96
   76.68        3335.75           6651          46.00       200.09
   76.71        3336.00           6655          70.00       304.71
   76.74        3336.25           6659         230.00      1002.21
   76.77        3336.50           6663        1425.00      6212.58
   76.80        3336.75           6666        2602.00     11346.06
   76.82        3337.00           6670        3982.00     17366.94
   76.85        3337.25           6674        5263.00     22957.83
   76.88        3337.50           6677        6417.00     27996.04
   76.91        3337.75           6681        7840.00     34210.77
   76.93        3338.00           6685        9231.00     40287.99
   76.96        3338.25           6689       10576.00     46166.34
   76.99        3338.50           6692       11607.00     50673.76
   77.02        3338.75           6696       12922.00     56424.56
   77.04        3339.00           6700       14492.00     63293.13
   77.07        3339.25           6704       15954.00     69691.77
   77.11        3339.50           6707       16983.00     74196.80
   77.14        3339.75           6711       18416.00     80472.60
   77.17        3340.00           6715       19829.00     86663.12
   77.20        3340.25           6719       21123.00     92334.32
   77.22        3340.50           6722       22233.00     97200.64
   77.25        3340.75           6726       23526.00    102871.00
   77.28        3341.00           6730       24701.00    108025.60
   77.31        3341.25           6733       24939.00    109069.90
   77.33        3341.50           6737       24979.00    109245.40
   77.36        3341.75           6741       24808.00    108495.10
   77.39        3342.00           6745       23877.00    104410.70
   77.42        3342.25           6748       22922.00    100222.00
   77.45        3342.50           6752       21528.00     94109.71
   77.47        3342.75           6756       19947.00     87180.21
   77.50        3343.00           6760       18570.00     81147.18
   77.53        3343.25           6763       17861.00     78041.71
   77.56        3343.50           6767       16424.00     71749.31
   77.58        3343.75           6771       15127.00     66072.00
   77.61        3344.00           6775       13480.00     58865.42
   77.64        3344.25           6778       12360.00     53966.56
   77.67        3344.50           6782       10928.00     47705.11
   77.70        3344.75           6786        9408.00     41061.45
   77.72        3345.00           6790        8081.00     35263.53
   77.75        3345.25           6793        7051.00     30764.65
   77.78        3345.50           6797        5573.00     24311.10
   77.81        3345.75           6801        4355.00     18994.69
   77.84        3346.00           6805        3022.00     13178.27
   77.87        3346.25           6808        1974.00      8606.84
   77.89        3346.50           6812         584.00      2545.53
   77.92        3346.75           6816         107.00       466.00
   77.96        3347.00           6819          63.00       274.20
   77.98        3347.25           6823          47.00       204.45
   78.01        3347.50           6827          59.00       256.76
   78.04        3347.75           6831          47.00       204.45
   78.07        3348.00           6834          49.00       213.17
   78.10        3348.25           6838          46.00       200.09
   78.13        3348.50           6842          42.00       182.65
   78.16        3348.75           6846          42.00       182.65
   78.19        3349.00           6849          44.00       191.37
   78.22        3349.25           6853          44.00       191.37
   78.25        3349.50           6857          42.00       182.65
   78.27        3349.75           6861          40.00       173.93
   78.30        3350.00           6864          37.00       160.86
   78.33        3350.25           6868          47.00       204.45
   78.36        3350.50           6872          47.00       204.45
   78.38        3350.75           6876          40.00       173.93
   78.41        3351.00           6879          47.00       204.45
HL scan finished at 01:19:54
end
************************************************************
  HL Scan of (1) Internal mercury lamp
************************************************************
Integration time is 0.2294 seconds per sample
dh050517De Bilt 52.1-5.183 2.482296pr1000
************************************************************
Dead Time -------------------------  3E-08 
Number of Cycles Used -------------  4 
Starting Wavelength (Angstroms) ---  3331 
Final Wavelength (Angstoms) -------  3351 
Wavelength Increment (Angstroms) --  .25 
Filter Wheel #1 Position ---------- (1) Ground quartz diffuser (ND=2.32)
Filter Wheel #2 Position ---------- 



************************************************************
HL scan start time = 01:41:23
Dark Count =  0 


Time (GMT)  Wavelength (Ang)  Step Number  Raw Counts  Counts/Second

  102.15        3331.00           6581          44.00       191.81
  102.56        3331.25           6584          39.00       170.01
  102.59        3331.50           6588          36.00       156.93
  102.62        3331.75           6592          37.00       161.29
  102.65        3332.00           6595          37.00       161.29
  102.67        3332.25           6599          37.00       161.29
  102.71        3332.50           6603          38.00       165.65
  102.74        3332.75           6607          35.00       152.57
  102.77        3333.00           6610          44.00       191.81
  102.80        3333.25           6614          41.00       178.73
  102.82        3333.50           6618          44.00       191.81
  102.85        3333.75           6622          35.00       152.57
  102.88        3334.00           6625          42.00       183.09
  102.91        3334.25           6629          38.00       165.65
  102.93        3334.50           6633          41.00       178.73
  102.96        3334.75           6636          48.00       209.24
  102.99        3335.00           6640          40.00       174.37
  103.02        3335.25           6644          42.00       183.09
  103.04        3335.50           6648          48.00       209.24
  103.07        3335.75           6651          63.00       274.63
  103.10        3336.00           6655          69.00       300.79
  103.13        3336.25           6659         345.00      1503.99
  103.16        3336.50           6663        1411.00      6151.96
  103.19        3336.75           6666        2249.00      9806.72
  103.21        3337.00           6670        3533.00     15408.17
  103.24        3337.25           6674        4589.00     20016.38
  103.27        3337.50           6677        5398.00     23547.58
  103.30        3337.75           6681        6574.00     28682.04
  103.33        3338.00           6685        7962.00     34744.13
  103.35        3338.25           6689        9379.00     40935.16
  103.38        3338.50           6692       10259.00     44781.14
  103.41        3338.75           6696       11393.00     49738.51
  103.44        3339.00           6700       12726.00     55567.71
  103.46        3339.25           6704       13915.00     60768.93
  103.49        3339.50           6707       14966.00     65367.82
  103.52        3339.75           6711       16036.00     70051.16
  103.55        3340.00           6715       17110.00     74753.33
  103.58        3340.25           6719       18480.00     80753.38
  103.61        3340.50           6722       19274.00     84231.76
  103.64        3340.75           6726       20580.00     89954.72
  103.66        3341.00           6730       21708.00     94899.26
  103.69        3341.25           6733       21959.00     95999.71
  103.72        3341.50           6737       21892.00     95705.96
  103.75        3341.75           6741       21901.00     95745.42
  103.78        3342.00           6745       20885.00     91291.54
  103.80        3342.25           6748       20154.00     88087.75
  103.83        3342.50           6752       19047.00     83237.25
  103.86        3342.75           6756       17994.00     78624.65
  103.89        3343.00           6760       16547.00     72288.25
  103.91        3343.25           6763       15392.00     67232.25
  103.94        3343.50           6767       14139.00     61748.98
  103.97        3343.75           6771       13161.00     57470.40
  104.00        3344.00           6775       12082.00     52751.25
  104.03        3344.25           6778       11133.00     48601.77
  104.05        3344.50           6782        9629.00     42027.67
  104.08        3344.75           6786        8421.00     36749.30
  104.11        3345.00           6790        7311.00     31900.61
  104.14        3345.25           6793        6412.00     27974.65
  104.16        3345.50           6797        5071.00     22120.17
  104.19        3345.75           6801        3703.00     16149.93
  104.22        3346.00           6805        2327.00     10146.94
  104.25        3346.25           6808        1425.00      6213.02
  104.27        3346.50           6812         384.00      1674.02
  104.30        3346.75           6816          97.00       422.85
  104.33        3347.00           6819          68.00       296.43
  104.37        3347.25           6823          50.00       217.96
  104.40        3347.50           6827          45.00       196.17
  104.42        3347.75           6831          48.00       209.24
  104.45        3348.00           6834          44.00       191.81
  104.48        3348.25           6838          46.00       200.52
  104.51        3348.50           6842          42.00       183.09
  104.53        3348.75           6846          33.00       143.85
  104.56        3349.00           6849          36.00       156.93
  104.59        3349.25           6853          42.00       183.09
  104.62        3349.50           6857          38.00       165.65
  104.64        3349.75           6861          49.00       213.60
  104.67        3350.00           6864          37.00       161.29
  104.70        3350.25           6868          37.00       161.29
  104.73        3350.50           6872          39.00       170.01
  104.75        3350.75           6876          37.00       161.29
  104.78        3351.00           6879          39.00       170.01
HL scan finished at 01:46:16
end
************************************************************
  HL Scan of (1) Internal mercury lamp
************************************************************
Integration time is 0.2294 seconds per sample
dh050517De Bilt 52.1-5.183 2.589593pr1000
************************************************************
Dead Time -------------------------  3E-08 
Number of Cycles Used -------------  4 
Starting Wavelength (Angstroms) ---  3331 
Final Wavelength (Angstoms) -------  3351 
Wavelength Increment (Angstroms) --  .25 
Filter Wheel #1 Position ---------- (1) Ground quartz diffuser (ND=2.32)
Filter Wheel #2 Position ---------- 



************************************************************
HL scan start time = 20:17:10
Dark Count =  0 


Time (GMT)  Wavelength (Ang)  Step Number  Raw Counts  Counts/Second

 1217.93        3331.00           6581          39.00       170.01
 1218.34        3331.25           6584          40.00       174.37
 1218.37        3331.50           6588          43.00       187.45
 1218.40        3331.75           6592          39.00       170.01
 1218.43        3332.00           6595          45.00       196.17
 1218.46        3332.25           6599          48.00       209.24
 1218.49        3332.50           6603          42.00       183.09
 1218.52        3332.75           6607          43.00       187.45
 1218.55        3333.00           6610          49.00       213.60
 1218.57        3333.25           6614          40.00       174.37
 1218.60        3333.50           6618          44.00       191.81
 1218.63        3333.75           6622          43.00       187.45
 1218.66        3334.00           6625          42.00       183.09
 1218.68        3334.25           6629          38.00       165.65
 1218.71        3334.50           6633          44.00       191.81
 1218.74        3334.75           6636          39.00       170.01
 1218.77        3335.00           6640          52.00       226.68
 1218.79        3335.25           6644          50.00       217.96
 1218.82        3335.50           6648          57.00       248.48
 1218.85        3335.75           6651          60.00       261.55
 1218.88        3336.00           6655          70.00       305.15
 1218.91        3336.25           6659         154.00       671.33
 1218.93        3336.50           6663        1145.00      4992.03
 1218.96        3336.75           6666        2259.00      9850.34
 1218.99        3337.00           6670        3545.00     15460.53
 1219.01        3337.25           6674        5052.00     22037.23
 1219.04        3337.50           6677        6238.00     27214.89
 1219.07        3337.75           6681        7890.00     34429.62
 1219.10        3338.00           6685        9624.00     42005.83
 1219.13        3338.25           6689       11281.00     49248.83
 1219.15        3338.50           6692       12367.00     53997.61
 1219.18        3338.75           6696       14007.00     61171.44
 1219.21        3339.00           6700       15527.00     67823.13
 1219.24        3339.25           6704       17000.00     74271.68
 1219.26        3339.50           6707       18014.00     78712.25
 1219.29        3339.75           6711       19393.00     84753.15
 1219.32        3340.00           6715       21092.00     92198.88
 1219.35        3340.25           6719       22751.00     99472.52
 1219.38        3340.50           6722       23834.00    104222.50
 1219.40        3340.75           6726       25467.00    111387.30
 1219.43        3341.00           6730       26420.00    115570.00
 1219.46        3341.25           6733       26920.00    117764.90
 1219.49        3341.50           6737       27018.00    118195.20
 1219.51        3341.75           6741       26990.00    118072.30
 1219.54        3342.00           6745       26416.00    115552.50
 1219.57        3342.25           6748       25301.00    110658.80
 1219.60        3342.50           6752       23881.00    104428.70
 1219.63        3342.75           6756       22287.00     97437.85
 1219.65        3343.00           6760       20700.00     90480.66
 1219.68        3343.25           6763       19502.00     85230.72
 1219.71        3343.50           6767       18027.00     78769.18
 1219.74        3343.75           6771       16566.00     72371.44
 1219.76        3344.00           6775       14951.00     65302.18
 1219.79        3344.25           6778       13783.00     60191.42
 1219.82        3344.50           6782       12353.00     53936.38
 1219.85        3344.75           6786       10744.00     46901.17
 1219.87        3345.00           6790        9308.00     40624.90
 1219.91        3345.25           6793        8112.00     35399.38
 1219.94        3345.50           6797        6388.00     27869.85
 1219.96        3345.75           6801        4876.00     21269.02
 1219.99        3346.00           6805        3444.00     15019.85
 1220.02        3346.25           6808        2310.00     10072.79
 1220.05        3346.50           6812         931.00      4058.91
 1220.07        3346.75           6816         190.00       828.27
 1220.10        3347.00           6819          84.00       366.18
 1220.13        3347.25           6823          61.00       265.91
 1220.16        3347.50           6827          57.00       248.48
 1220.18        3347.75           6831          51.00       222.32
 1220.21        3348.00           6834          48.00       209.24
 1220.24        3348.25           6838          50.00       217.96
 1220.27        3348.50           6842          45.00       196.17
 1220.29        3348.75           6846          35.00       152.57
 1220.32        3349.00           6849          41.00       178.73
 1220.35        3349.25           6853          45.00       196.17
 1220.38        3349.50           6857          47.00       204.88
 1220.40        3349.75           6861          44.00       191.81
 1220.43        3350.00           6864          39.00       170.01
 1220.46        3350.25           6868          44.00       191.81
 1220.49        3350.50           6872          42.00       183.09
 1220.51        3350.75           6876          43.00       187.45
 1220.54        3351.00           6879          41.00       178.73
HL scan finished at 20:22:01
end
