************************************************************
  HL Scan of (1) Internal mercury lamp
************************************************************
Integration time is 0.2294 seconds per sample
dh020517DelftKZ 51.997-4.386 2.643241pr1000
************************************************************
Dead Time -------------------------  3E-08 
Number of Cycles Used -------------  4 
Starting Wavelength (Angstroms) ---  3331 
Final Wavelength (Angstoms) -------  3351 
Wavelength Increment (Angstroms) --  .25 
Filter Wheel #1 Position ---------- (1) Ground quartz diffuser (ND=2.32)
Filter Wheel #2 Position ---------- 



************************************************************
HL scan start time = 10:28:16
Dark Count =  0 


Time (GMT)  Wavelength (Ang)  Step Number  Raw Counts  Counts/Second

  629.02        3331.00           6581          47.00       204.88
  629.43        3331.25           6584          48.00       209.24
  629.46        3331.50           6588          45.00       196.17
  629.49        3331.75           6592          43.00       187.45
  629.52        3332.00           6595          43.00       187.45
  629.54        3332.25           6599          42.00       183.09
  629.57        3332.50           6603          45.00       196.17
  629.60        3332.75           6607          44.00       191.81
  629.63        3333.00           6610          44.00       191.81
  629.65        3333.25           6614          39.00       170.01
  629.68        3333.50           6618          48.00       209.24
  629.71        3333.75           6622          54.00       235.40
  629.74        3334.00           6625          40.00       174.37
  629.76        3334.25           6629          49.00       213.60
  629.79        3334.50           6633          51.00       222.32
  629.82        3334.75           6636          47.00       204.88
  629.85        3335.00           6640          49.00       213.60
  629.87        3335.25           6644          47.00       204.88
  629.90        3335.50           6648          59.00       257.19
  629.93        3335.75           6651          63.00       274.63
  629.96        3336.00           6655          71.00       309.51
  629.98        3336.25           6659         212.00       924.18
  630.01        3336.50           6663        1408.00      6138.88
  630.04        3336.75           6666        2584.00     11267.98
  630.07        3337.00           6670        4253.00     18549.99
  630.10        3337.25           6674        6004.00     26193.20
  630.12        3337.50           6677        7141.00     31158.15
  630.15        3337.75           6681        8554.00     37330.36
  630.18        3338.00           6685       10141.00     44265.37
  630.21        3338.25           6689       11593.00     50612.98
  630.23        3338.50           6692       13113.00     57260.44
  630.26        3338.75           6696       14875.00     64969.58
  630.29        3339.00           6700       16587.00     72463.38
  630.32        3339.25           6704       18154.00     79325.44
  630.34        3339.50           6707       19231.00     84043.37
  630.37        3339.75           6711       21263.00     92948.44
  630.40        3340.00           6715       22824.00     99792.64
  630.43        3340.25           6719       24233.00    105972.80
  630.46        3340.50           6722       25623.00    112071.90
  630.48        3340.75           6726       27200.00    118994.20
  630.51        3341.00           6730       28528.00    124825.80
  630.54        3341.25           6733       29515.00    129161.20
  630.57        3341.50           6737       29622.00    129631.30
  630.59        3341.75           6741       29371.00    128528.70
  630.62        3342.00           6745       28660.00    125405.50
  630.65        3342.25           6748       27448.00    120083.10
  630.68        3342.50           6752       26068.00    114025.00
  630.71        3342.75           6756       24482.00    107065.20
  630.73        3343.00           6760       22805.00     99709.32
  630.76        3343.25           6763       21695.00     94842.28
  630.79        3343.50           6767       19877.00     86873.90
  630.82        3343.75           6771       17989.00     78602.75
  630.84        3344.00           6775       16462.00     71916.11
  630.87        3344.25           6778       15110.00     65998.03
  630.90        3344.50           6782       13698.00     59819.55
  630.93        3344.75           6786       12042.00     52576.33
  630.95        3345.00           6790       10325.00     45069.62
  630.98        3345.25           6793        8992.00     39244.09
  631.01        3345.50           6797        7404.00     32306.80
  631.04        3345.75           6801        5674.00     24752.46
  631.07        3346.00           6805        3894.00     16983.37
  631.10        3346.25           6808        2506.00     10927.73
  631.13        3346.50           6812         886.00      3862.70
  631.15        3346.75           6816         165.00       719.28
  631.18        3347.00           6819          80.00       348.74
  631.21        3347.25           6823          66.00       287.71
  631.24        3347.50           6827          53.00       231.04
  631.26        3347.75           6831          60.00       261.55
  631.29        3348.00           6834          57.00       248.48
  631.33        3348.25           6838          52.00       226.68
  631.36        3348.50           6842          51.00       222.32
  631.39        3348.75           6846          50.00       217.96
  631.41        3349.00           6849          51.00       222.32
  631.44        3349.25           6853          44.00       191.81
  631.47        3349.50           6857          49.00       213.60
  631.50        3349.75           6861          45.00       196.17
  631.53        3350.00           6864          49.00       213.60
  631.56        3350.25           6868          47.00       204.88
  631.59        3350.50           6872          46.00       200.52
  631.61        3350.75           6876          50.00       217.96
  631.64        3351.00           6879          43.00       187.45
HL scan finished at 10:33:07
end
************************************************************
  HL Scan of (1) Internal mercury lamp
************************************************************
Integration time is 0.2294 seconds per sample
dh020517De Bilt 52.1-5.183 2.643241pr1000
************************************************************
Dead Time -------------------------  3E-08 
Number of Cycles Used -------------  4 
Starting Wavelength (Angstroms) ---  3331 
Final Wavelength (Angstoms) -------  3351 
Wavelength Increment (Angstroms) --  .25 
Filter Wheel #1 Position ---------- (1) Ground quartz diffuser (ND=2.32)
Filter Wheel #2 Position ---------- 



************************************************************
HL scan start time = 20:13:59
Dark Count =  0 


Time (GMT)  Wavelength (Ang)  Step Number  Raw Counts  Counts/Second

 1214.74        3331.00           6581          41.00       178.73
 1215.15        3331.25           6584          49.00       213.60
 1215.18        3331.50           6588          47.00       204.88
 1215.21        3331.75           6592          43.00       187.45
 1215.24        3332.00           6595          36.00       156.93
 1215.27        3332.25           6599          46.00       200.52
 1215.30        3332.50           6603          47.00       204.88
 1215.33        3332.75           6607          45.00       196.17
 1215.36        3333.00           6610          44.00       191.81
 1215.38        3333.25           6614          51.00       222.32
 1215.41        3333.50           6618          45.00       196.17
 1215.44        3333.75           6622          46.00       200.52
 1215.47        3334.00           6625          48.00       209.24
 1215.50        3334.25           6629          51.00       222.32
 1215.52        3334.50           6633          52.00       226.68
 1215.55        3334.75           6636          47.00       204.88
 1215.58        3335.00           6640          53.00       231.04
 1215.61        3335.25           6644          49.00       213.60
 1215.64        3335.50           6648          56.00       244.12
 1215.66        3335.75           6651          55.00       239.76
 1215.69        3336.00           6655          76.00       331.30
 1215.72        3336.25           6659         307.00      1338.33
 1215.75        3336.50           6663        1754.00      7647.79
 1215.78        3336.75           6666        2853.00     12441.44
 1215.81        3337.00           6670        4351.00     18977.67
 1215.83        3337.25           6674        6054.00     26411.50
 1215.86        3337.50           6677        7246.00     31616.72
 1215.89        3337.75           6681        8602.00     37540.08
 1215.92        3338.00           6685       10114.00     44147.36
 1215.95        3338.25           6689       11621.00     50735.40
 1215.97        3338.50           6692       12759.00     55712.05
 1216.00        3338.75           6696       14545.00     63525.49
 1216.03        3339.00           6700       16331.00     71342.60
 1216.06        3339.25           6704       17902.00     78221.71
 1216.08        3339.50           6707       18837.00     82317.25
 1216.11        3339.75           6711       20476.00     89498.91
 1216.14        3340.00           6715       22043.00     96368.01
 1216.18        3340.25           6719       23573.00    103077.60
 1216.21        3340.50           6722       24491.00    107104.70
 1216.24        3340.75           6726       25912.00    113340.30
 1216.26        3341.00           6730       27286.00    119371.80
 1216.29        3341.25           6733       27962.00    122340.10
 1216.32        3341.50           6737       28048.00    122717.80
 1216.35        3341.75           6741       27759.00    121448.70
 1216.38        3342.00           6745       26871.00    117549.80
 1216.41        3342.25           6748       25721.00    112502.00
 1216.44        3342.50           6752       23956.00    104757.70
 1216.46        3342.75           6756       22552.00     98599.86
 1216.50        3343.00           6760       21158.00     92488.18
 1216.53        3343.25           6763       19887.00     86917.71
 1216.55        3343.50           6767       18535.00     80994.30
 1216.58        3343.75           6771       16705.00     72980.02
 1216.61        3344.00           6775       15174.00     66278.13
 1216.64        3344.25           6778       13908.00     60738.30
 1216.67        3344.50           6782       12291.00     53665.23
 1216.69        3344.75           6786       10773.00     47027.94
 1216.72        3345.00           6790        9180.00     40065.57
 1216.75        3345.25           6793        7939.00     34643.66
 1216.78        3345.50           6797        6563.00     28634.00
 1216.80        3345.75           6801        5080.00     22159.45
 1216.83        3346.00           6805        3325.00     14500.64
 1216.86        3346.25           6808        2070.00      9025.98
 1216.89        3346.50           6812         558.00      2432.61
 1216.92        3346.75           6816         118.00       514.39
 1216.94        3347.00           6819          68.00       296.43
 1216.97        3347.25           6823          57.00       248.48
 1217.00        3347.50           6827          54.00       235.40
 1217.03        3347.75           6831          45.00       196.17
 1217.05        3348.00           6834          47.00       204.88
 1217.08        3348.25           6838          51.00       222.32
 1217.11        3348.50           6842          49.00       213.60
 1217.14        3348.75           6846          41.00       178.73
 1217.17        3349.00           6849          59.00       257.19
 1217.20        3349.25           6853          40.00       174.37
 1217.22        3349.50           6857          44.00       191.81
 1217.25        3349.75           6861          42.00       183.09
 1217.28        3350.00           6864          47.00       204.88
 1217.31        3350.25           6868          45.00       196.17
 1217.34        3350.50           6872          48.00       209.24
 1217.36        3350.75           6876          41.00       178.73
 1217.39        3351.00           6879          46.00       200.52
HL scan finished at 20:18:52
end
