************************************************************
  HL Scan of (1) Internal mercury lamp
************************************************************
Integration time is 0.2294 seconds per sample
dh030517De Bilt 52.1-5.183 2.482296pr1000
************************************************************
Dead Time -------------------------  3E-08 
Number of Cycles Used -------------  4 
Starting Wavelength (Angstroms) ---  3331 
Final Wavelength (Angstoms) -------  3351 
Wavelength Increment (Angstroms) --  .25 
Filter Wheel #1 Position ---------- (1) Ground quartz diffuser (ND=2.32)
Filter Wheel #2 Position ---------- 



************************************************************
HL scan start time = 01:51:32
Dark Count =  .1 


Time (GMT)  Wavelength (Ang)  Step Number  Raw Counts  Counts/Second

  112.30        3331.00           6581          44.00       191.37
  112.71        3331.25           6584          43.00       187.01
  112.73        3331.50           6588          48.00       208.81
  112.76        3331.75           6592          41.00       178.29
  112.79        3332.00           6595          43.00       187.01
  112.82        3332.25           6599          37.00       160.86
  112.84        3332.50           6603          45.00       195.73
  112.87        3332.75           6607          42.00       182.65
  112.90        3333.00           6610          42.00       182.65
  112.93        3333.25           6614          43.00       187.01
  112.95        3333.50           6618          45.00       195.73
  112.98        3333.75           6622          39.00       169.57
  113.01        3334.00           6625          41.00       178.29
  113.04        3334.25           6629          47.00       204.45
  113.07        3334.50           6633          44.00       191.37
  113.09        3334.75           6636          43.00       187.01
  113.12        3335.00           6640          50.00       217.53
  113.16        3335.25           6644          56.00       243.68
  113.19        3335.50           6648          52.00       226.24
  113.21        3335.75           6651          56.00       243.68
  113.24        3336.00           6655          83.00       361.38
  113.27        3336.25           6659         363.00      1582.03
  113.30        3336.50           6663        1493.00      6509.12
  113.33        3336.75           6666        2456.00     10709.19
  113.35        3337.00           6670        3817.00     16646.93
  113.38        3337.25           6674        5428.00     23678.11
  113.41        3337.50           6677        6672.00     29109.54
  113.44        3337.75           6681        8009.00     34949.01
  113.46        3338.00           6685        9438.00     41192.55
  113.49        3338.25           6689       10964.00     47862.49
  113.52        3338.50           6692       12252.00     53494.24
  113.55        3338.75           6696       13604.00     59407.88
  113.58        3339.00           6700       14944.00     65271.11
  113.60        3339.25           6704       16507.00     72112.68
  113.63        3339.50           6707       17618.00     76977.47
  113.66        3339.75           6711       19097.00     83455.86
  113.70        3340.00           6715       20591.00     90002.49
  113.73        3340.25           6719       22044.00     96371.96
  113.75        3340.50           6722       23221.00    101533.30
  113.78        3340.75           6726       24597.00    107569.30
  113.81        3341.00           6730       25820.00    112936.10
  113.84        3341.25           6733       26062.00    113998.20
  113.87        3341.50           6737       26005.00    113748.00
  113.89        3341.75           6741       26058.00    113980.60
  113.92        3342.00           6745       25251.00    110439.00
  113.95        3342.25           6748       23903.00    104524.70
  113.98        3342.50           6752       22469.00     98235.46
  114.01        3342.75           6756       21173.00     92553.49
  114.04        3343.00           6760       19768.00     86395.83
  114.07        3343.25           6763       18446.00     80604.01
  114.10        3343.50           6767       17077.00     74608.40
  114.13        3343.75           6771       15748.00     68790.03
  114.16        3344.00           6775       14448.00     63100.60
  114.18        3344.25           6778       13362.00     58349.22
  114.21        3344.50           6782       11836.00     51675.09
  114.24        3344.75           6786       10093.00     44055.14
  114.27        3345.00           6790        8379.00     36565.38
  114.30        3345.25           6793        7302.00     31860.87
  114.32        3345.50           6797        5869.00     25603.36
  114.35        3345.75           6801        4374.00     19077.61
  114.38        3346.00           6805        2675.00     11664.50
  114.41        3346.25           6808        1665.00      7259.21
  114.43        3346.50           6812         538.00      2344.98
  114.46        3346.75           6816         132.00       574.99
  114.49        3347.00           6819          70.00       304.71
  114.52        3347.25           6823          59.00       256.76
  114.54        3347.50           6827          47.00       204.45
  114.57        3347.75           6831          49.00       213.17
  114.60        3348.00           6834          43.00       187.01
  114.63        3348.25           6838          45.00       195.73
  114.65        3348.50           6842          44.00       191.37
  114.68        3348.75           6846          38.00       165.21
  114.71        3349.00           6849          48.00       208.81
  114.74        3349.25           6853          39.00       169.57
  114.77        3349.50           6857          41.00       178.29
  114.80        3349.75           6861          45.00       195.73
  114.83        3350.00           6864          42.00       182.65
  114.85        3350.25           6868          45.00       195.73
  114.88        3350.50           6872          43.00       187.01
  114.91        3350.75           6876          42.00       182.65
  114.94        3351.00           6879          44.00       191.37
HL scan finished at 01:56:25
end
************************************************************
  HL Scan of (1) Internal mercury lamp
************************************************************
Integration time is 0.2294 seconds per sample
dh030517De Bilt 52.1-5.183 2.482296pr1000
************************************************************
Dead Time -------------------------  3E-08 
Number of Cycles Used -------------  4 
Starting Wavelength (Angstroms) ---  3331 
Final Wavelength (Angstoms) -------  3351 
Wavelength Increment (Angstroms) --  .25 
Filter Wheel #1 Position ---------- (1) Ground quartz diffuser (ND=2.32)
Filter Wheel #2 Position ---------- 



************************************************************
HL scan start time = 02:17:55
Dark Count =  .1 


Time (GMT)  Wavelength (Ang)  Step Number  Raw Counts  Counts/Second

  138.67        3331.00           6581          50.00       217.53
  139.08        3331.25           6584          46.00       200.09
  139.10        3331.50           6588          42.00       182.65
  139.13        3331.75           6592          41.00       178.29
  139.16        3332.00           6595          48.00       208.81
  139.19        3332.25           6599          43.00       187.01
  139.21        3332.50           6603          45.00       195.73
  139.24        3332.75           6607          36.00       156.50
  139.27        3333.00           6610          32.00       139.06
  139.30        3333.25           6614          38.00       165.21
  139.33        3333.50           6618          33.00       143.42
  139.36        3333.75           6622          35.00       152.14
  139.38        3334.00           6625          39.00       169.57
  139.41        3334.25           6629          37.00       160.86
  139.44        3334.50           6633          38.00       165.21
  139.47        3334.75           6636          43.00       187.01
  139.50        3335.00           6640          48.00       208.81
  139.53        3335.25           6644          52.00       226.24
  139.55        3335.50           6648          45.00       195.73
  139.58        3335.75           6651          60.00       261.12
  139.61        3336.00           6655          57.00       248.04
  139.64        3336.25           6659         144.00       627.30
  139.66        3336.50           6663        1064.00      4638.40
  139.69        3336.75           6666        2010.00      8763.86
  139.72        3337.00           6670        3161.00     13784.69
  139.75        3337.25           6674        4309.00     18793.94
  139.77        3337.50           6677        5291.00     23080.06
  139.80        3337.75           6681        6539.00     28528.77
  139.83        3338.00           6685        7857.00     34285.03
  139.86        3338.25           6689        8962.00     39112.57
  139.89        3338.50           6692        9862.00     43045.53
  139.91        3338.75           6696       11168.00     48754.35
  139.94        3339.00           6700       12524.00     54683.80
  139.97        3339.25           6704       13832.00     60405.36
  140.00        3339.50           6707       14812.00     64693.44
  140.02        3339.75           6711       16166.00     70619.81
  140.05        3340.00           6715       17405.00     76044.69
  140.08        3340.25           6719       18687.00     81659.71
  140.11        3340.50           6722       19394.00     84757.09
  140.14        3340.75           6726       20469.00     89467.81
  140.16        3341.00           6730       21553.00     94219.31
  140.19        3341.25           6733       22149.00     96832.33
  140.22        3341.50           6737       22201.00     97060.33
  140.25        3341.75           6741       22183.00     96981.41
  140.28        3342.00           6745       21537.00     94149.16
  140.31        3342.25           6748       20698.00     90471.47
  140.34        3342.50           6752       19477.00     85120.76
  140.36        3342.75           6756       18355.00     80205.41
  140.39        3343.00           6760       17008.00     74306.27
  140.42        3343.25           6763       16273.00     71088.25
  140.45        3343.50           6767       15000.00     65516.18
  140.48        3343.75           6771       13885.00     60637.24
  140.51        3344.00           6775       12626.00     55129.90
  140.54        3344.25           6778       11436.00     49926.08
  140.56        3344.50           6782       10096.00     44068.25
  140.59        3344.75           6786        8703.00     37980.92
  140.62        3345.00           6790        7321.00     31943.85
  140.65        3345.25           6793        6438.00     28087.74
  140.67        3345.50           6797        5279.00     23027.67
  140.70        3345.75           6801        4137.00     18043.33
  140.73        3346.00           6805        2985.00     13016.85
  140.76        3346.25           6808        2003.00      8733.33
  140.79        3346.50           6812         799.00      3482.93
  140.82        3346.75           6816         145.00       631.66
  140.85        3347.00           6819          57.00       248.04
  140.87        3347.25           6823          53.00       230.60
  140.90        3347.50           6827          50.00       217.53
  140.93        3347.75           6831          45.00       195.73
  140.96        3348.00           6834          44.00       191.37
  140.99        3348.25           6838          45.00       195.73
  141.02        3348.50           6842          40.00       173.93
  141.05        3348.75           6846          41.00       178.29
  141.08        3349.00           6849          40.00       173.93
  141.11        3349.25           6853          44.00       191.37
  141.14        3349.50           6857          45.00       195.73
  141.16        3349.75           6861          39.00       169.57
  141.19        3350.00           6864          39.00       169.57
  141.22        3350.25           6868          46.00       200.09
  141.25        3350.50           6872          45.00       195.73
  141.28        3350.75           6876          42.00       182.65
  141.31        3351.00           6879          39.00       169.57
HL scan finished at 02:22:47
end
************************************************************
  HL Scan of (1) Internal mercury lamp
************************************************************
Integration time is 0.2294 seconds per sample
dh030517De Bilt 52.1-5.183 2.750537pr1000
************************************************************
Dead Time -------------------------  3E-08 
Number of Cycles Used -------------  4 
Starting Wavelength (Angstroms) ---  3331 
Final Wavelength (Angstoms) -------  3351 
Wavelength Increment (Angstroms) --  .25 
Filter Wheel #1 Position ---------- (1) Ground quartz diffuser (ND=2.32)
Filter Wheel #2 Position ---------- 



************************************************************
HL scan start time = 20:15:05
Dark Count =  .1 


Time (GMT)  Wavelength (Ang)  Step Number  Raw Counts  Counts/Second

 1215.83        3331.00           6581          46.00       200.09
 1216.24        3331.25           6584          49.00       213.17
 1216.27        3331.50           6588          42.00       182.65
 1216.30        3331.75           6592          46.00       200.09
 1216.33        3332.00           6595          53.00       230.60
 1216.35        3332.25           6599          49.00       213.17
 1216.38        3332.50           6603          47.00       204.45
 1216.41        3332.75           6607          42.00       182.65
 1216.44        3333.00           6610          48.00       208.81
 1216.47        3333.25           6614          44.00       191.37
 1216.49        3333.50           6618          43.00       187.01
 1216.52        3333.75           6622          47.00       204.45
 1216.55        3334.00           6625          44.00       191.37
 1216.58        3334.25           6629          46.00       200.09
 1216.60        3334.50           6633          50.00       217.53
 1216.63        3334.75           6636          49.00       213.17
 1216.66        3335.00           6640          56.00       243.68
 1216.69        3335.25           6644          54.00       234.96
 1216.71        3335.50           6648          57.00       248.04
 1216.74        3335.75           6651          68.00       295.99
 1216.77        3336.00           6655          80.00       348.30
 1216.80        3336.25           6659         191.00       832.19
 1216.82        3336.50           6663        1192.00      5196.54
 1216.85        3336.75           6666        2613.00     11394.04
 1216.88        3337.00           6670        4433.00     19335.10
 1216.91        3337.25           6674        6294.00     27458.97
 1216.94        3337.50           6677        7942.00     34656.33
 1216.96        3337.75           6681        9737.00     42499.23
 1216.99        3338.00           6685       11621.00     50734.97
 1217.02        3338.25           6689       13694.00     59801.62
 1217.05        3338.50           6692       15107.00     65984.46
 1217.07        3338.75           6696       16798.00     73386.77
 1217.10        3339.00           6700       18376.00     80297.38
 1217.13        3339.25           6704       19986.00     87351.10
 1217.16        3339.50           6707       21466.00     93837.90
 1217.19        3339.75           6711       23509.00    102796.50
 1217.22        3340.00           6715       25540.00    111707.20
 1217.25        3340.25           6719       27167.00    118848.90
 1217.28        3340.50           6722       28526.00    124816.60
 1217.31        3340.75           6726       30077.00    131629.90
 1217.34        3341.00           6730       31601.00    138327.40
 1217.36        3341.25           6733       32236.00    141118.90
 1217.39        3341.50           6737       32411.00    141888.20
 1217.42        3341.75           6741       32417.00    141914.60
 1217.45        3342.00           6745       31352.00    137233.00
 1217.48        3342.25           6748       30050.00    131511.30
 1217.50        3342.50           6752       28530.00    124834.10
 1217.53        3342.75           6756       26277.00    114941.90
 1217.56        3343.00           6760       24559.00    107402.60
 1217.59        3343.25           6763       23148.00    101213.10
 1217.61        3343.50           6767       21120.00     92321.18
 1217.64        3343.75           6771       19575.00     85550.15
 1217.67        3344.00           6775       17954.00     78449.03
 1217.70        3344.25           6778       16660.00     72782.55
 1217.73        3344.50           6782       14684.00     64133.31
 1217.75        3344.75           6786       12682.00     55374.83
 1217.78        3345.00           6790       10690.00     46664.68
 1217.81        3345.25           6793        9370.00     40895.39
 1217.84        3345.50           6797        7527.00     32843.59
 1217.87        3345.75           6801        5864.00     25581.52
 1217.90        3346.00           6805        4164.00     18161.16
 1217.93        3346.25           6808        2679.00     11681.95
 1217.96        3346.50           6812        1077.00      4695.08
 1217.99        3346.75           6816         225.00       980.41
 1218.01        3347.00           6819          90.00       391.90
 1218.04        3347.25           6823          60.00       261.12
 1218.07        3347.50           6827          60.00       261.12
 1218.10        3347.75           6831          54.00       234.96
 1218.12        3348.00           6834          53.00       230.60
 1218.15        3348.25           6838          53.00       230.60
 1218.18        3348.50           6842          47.00       204.45
 1218.21        3348.75           6846          47.00       204.45
 1218.23        3349.00           6849          47.00       204.45
 1218.26        3349.25           6853          46.00       200.09
 1218.29        3349.50           6857          52.00       226.24
 1218.32        3349.75           6861          52.00       226.24
 1218.35        3350.00           6864          47.00       204.45
 1218.37        3350.25           6868          48.00       208.81
 1218.40        3350.50           6872          51.00       221.88
 1218.43        3350.75           6876          44.00       191.37
 1218.46        3351.00           6879          43.00       187.01
HL scan finished at 20:19:56
end
