************************************************************
  HL Scan of (1) Internal mercury lamp
************************************************************
Integration time is 0.2294 seconds per sample
dh040517De Bilt 52.1-5.183 2.535944pr1000
************************************************************
Dead Time -------------------------  3E-08 
Number of Cycles Used -------------  4 
Starting Wavelength (Angstroms) ---  3331 
Final Wavelength (Angstoms) -------  3351 
Wavelength Increment (Angstroms) --  .25 
Filter Wheel #1 Position ---------- (1) Ground quartz diffuser (ND=2.32)
Filter Wheel #2 Position ---------- 



************************************************************
HL scan start time = 00:14:59
Dark Count =  0 


Time (GMT)  Wavelength (Ang)  Step Number  Raw Counts  Counts/Second

   15.74        3331.00           6581          44.00       191.81
   16.15        3331.25           6584          47.00       204.88
   16.17        3331.50           6588          50.00       217.96
   16.20        3331.75           6592          43.00       187.45
   16.23        3332.00           6595          52.00       226.68
   16.26        3332.25           6599          50.00       217.96
   16.28        3332.50           6603          47.00       204.88
   16.31        3332.75           6607          37.00       161.29
   16.34        3333.00           6610          48.00       209.24
   16.37        3333.25           6614          45.00       196.17
   16.39        3333.50           6618          47.00       204.88
   16.42        3333.75           6622          51.00       222.32
   16.45        3334.00           6625          47.00       204.88
   16.48        3334.25           6629          47.00       204.88
   16.50        3334.50           6633          56.00       244.12
   16.53        3334.75           6636          46.00       200.52
   16.56        3335.00           6640          57.00       248.48
   16.59        3335.25           6644          60.00       261.55
   16.61        3335.50           6648          58.00       252.84
   16.64        3335.75           6651          59.00       257.19
   16.67        3336.00           6655          78.00       340.02
   16.70        3336.25           6659         259.00      1129.07
   16.73        3336.50           6663        1754.00      7647.79
   16.76        3336.75           6666        3277.00     14291.22
   16.79        3337.00           6670        5194.00     22657.07
   16.81        3337.25           6674        6937.00     30267.23
   16.84        3337.50           6677        8445.00     36854.15
   16.87        3337.75           6681       10307.00     44990.94
   16.90        3338.00           6685       12239.00     53437.83
   16.92        3338.25           6689       14084.00     61508.34
   16.95        3338.50           6692       15212.00     66444.43
   16.98        3338.75           6696       17121.00     74801.50
   17.01        3339.00           6700       19103.00     83482.57
   17.04        3339.25           6704       21049.00     92010.38
   17.06        3339.50           6707       22515.00     98437.61
   17.09        3339.75           6711       24403.00    106718.60
   17.12        3340.00           6715       26046.00    113928.40
   17.15        3340.25           6719       27774.00    121514.50
   17.17        3340.50           6722       29276.00    128111.30
   17.20        3340.75           6726       30752.00    134596.50
   17.23        3341.00           6730       32267.00    141255.60
   17.26        3341.25           6733       32744.00    143352.80
   17.29        3341.50           6737       32774.00    143484.70
   17.31        3341.75           6741       32716.00    143229.60
   17.34        3342.00           6745       31384.00    137374.10
   17.37        3342.25           6748       30126.00    131845.70
   17.40        3342.50           6752       28303.00    123837.60
   17.42        3342.75           6756       26351.00    115267.10
   17.45        3343.00           6760       24454.00    106942.40
   17.48        3343.25           6763       23185.00    101375.90
   17.51        3343.50           6767       21367.00     93404.35
   17.54        3343.75           6771       19688.00     86045.72
   17.56        3344.00           6775       17930.00     78344.34
   17.59        3344.25           6778       16230.00     70900.43
   17.62        3344.50           6782       14360.00     62715.97
   17.65        3344.75           6786       12380.00     54054.46
   17.69        3345.00           6790       10616.00     46341.63
   17.71        3345.25           6793        9404.00     41044.41
   17.74        3345.50           6797        7445.00     32485.87
   17.77        3345.75           6801        5724.00     24970.75
   17.80        3346.00           6805        3988.00     17393.56
   17.82        3346.25           6808        2706.00     11800.17
   17.85        3346.50           6812         798.00      3479.00
   17.88        3346.75           6816         167.00       728.00
   17.91        3347.00           6819          78.00       340.02
   17.93        3347.25           6823          68.00       296.43
   17.96        3347.50           6827          53.00       231.04
   17.99        3347.75           6831          55.00       239.76
   18.02        3348.00           6834          59.00       257.19
   18.05        3348.25           6838          53.00       231.04
   18.07        3348.50           6842          47.00       204.88
   18.10        3348.75           6846          47.00       204.88
   18.13        3349.00           6849          45.00       196.17
   18.16        3349.25           6853          47.00       204.88
   18.18        3349.50           6857          53.00       231.04
   18.21        3349.75           6861          45.00       196.17
   18.24        3350.00           6864          50.00       217.96
   18.27        3350.25           6868          44.00       191.81
   18.29        3350.50           6872          43.00       187.45
   18.32        3350.75           6876          47.00       204.88
   18.35        3351.00           6879          46.00       200.52
HL scan finished at 00:19:50
end
************************************************************
  HL Scan of (1) Internal mercury lamp
************************************************************
Integration time is 0.2294 seconds per sample
dh040517De Bilt 52.1-5.183 2.589593pr1000
************************************************************
Dead Time -------------------------  3E-08 
Number of Cycles Used -------------  4 
Starting Wavelength (Angstroms) ---  3331 
Final Wavelength (Angstoms) -------  3351 
Wavelength Increment (Angstroms) --  .25 
Filter Wheel #1 Position ---------- (1) Ground quartz diffuser (ND=2.32)
Filter Wheel #2 Position ---------- 



************************************************************
HL scan start time = 01:15:34
Dark Count =  0 


Time (GMT)  Wavelength (Ang)  Step Number  Raw Counts  Counts/Second

   76.32        3331.00           6581          39.00       170.01
   76.73        3331.25           6584          49.00       213.60
   76.76        3331.50           6588          41.00       178.73
   76.79        3331.75           6592          40.00       174.37
   76.81        3332.00           6595          46.00       200.52
   76.84        3332.25           6599          44.00       191.81
   76.87        3332.50           6603          39.00       170.01
   76.90        3332.75           6607          41.00       178.73
   76.92        3333.00           6610          44.00       191.81
   76.95        3333.25           6614          42.00       183.09
   76.98        3333.50           6618          42.00       183.09
   77.01        3333.75           6622          41.00       178.73
   77.04        3334.00           6625          44.00       191.81
   77.06        3334.25           6629          43.00       187.45
   77.09        3334.50           6633          49.00       213.60
   77.12        3334.75           6636          48.00       209.24
   77.15        3335.00           6640          44.00       191.81
   77.17        3335.25           6644          50.00       217.96
   77.20        3335.50           6648          65.00       283.35
   77.23        3335.75           6651          65.00       283.35
   77.26        3336.00           6655          86.00       374.90
   77.28        3336.25           6659         477.00      2079.47
   77.31        3336.50           6663        1889.00      8236.56
   77.34        3336.75           6666        3076.00     13414.29
   77.37        3337.00           6670        4448.00     19401.00
   77.40        3337.25           6674        5917.00     25813.36
   77.42        3337.50           6677        6996.00     30524.89
   77.45        3337.75           6681        8631.00     37666.78
   77.48        3338.00           6685       10568.00     46131.80
   77.51        3338.25           6689       12218.00     53345.99
   77.53        3338.50           6692       13454.00     58752.11
   77.56        3338.75           6696       14993.00     65485.98
   77.59        3339.00           6700       16510.00     72126.26
   77.62        3339.25           6704       18310.00     80008.73
   77.64        3339.50           6707       19301.00     84350.06
   77.67        3339.75           6711       20836.00     91076.77
   77.70        3340.00           6715       22297.00     97481.71
   77.73        3340.25           6719       24206.00    105854.40
   77.76        3340.50           6722       25257.00    110465.70
   77.78        3340.75           6726       26927.00    117795.70
   77.81        3341.00           6730       28074.00    122831.90
   77.84        3341.25           6733       28534.00    124852.10
   77.87        3341.50           6737       28699.00    125576.80
   77.89        3341.75           6741       28443.00    124452.50
   77.93        3342.00           6745       27305.00    119455.20
   77.96        3342.25           6748       26612.00    116412.80
   77.98        3342.50           6752       24929.00    109026.50
   78.01        3342.75           6756       23333.00    102025.00
   78.04        3343.00           6760       21562.00     94259.21
   78.07        3343.25           6763       20133.00     87995.72
   78.09        3343.50           6767       18576.00     81173.90
   78.12        3343.75           6771       17064.00     74551.91
   78.16        3344.00           6775       15619.00     68225.81
   78.19        3344.25           6778       14295.00     62431.56
   78.22        3344.50           6782       12593.00     54986.01
   78.24        3344.75           6786       11225.00     49003.99
   78.27        3345.00           6790        9425.00     41136.18
   78.30        3345.25           6793        8326.00     36334.27
   78.33        3345.50           6797        6414.00     27983.38
   78.36        3345.75           6801        4746.00     20701.61
   78.39        3346.00           6805        3008.00     13117.63
   78.42        3346.25           6808        1965.00      8568.03
   78.44        3346.50           6812         503.00      2192.82
   78.47        3346.75           6816         101.00       440.28
   78.50        3347.00           6819          62.00       270.27
   78.53        3347.25           6823          67.00       292.07
   78.55        3347.50           6827          53.00       231.04
   78.58        3347.75           6831          54.00       235.40
   78.61        3348.00           6834          46.00       200.52
   78.64        3348.25           6838          42.00       183.09
   78.66        3348.50           6842          41.00       178.73
   78.69        3348.75           6846          51.00       222.32
   78.72        3349.00           6849          47.00       204.88
   78.75        3349.25           6853          48.00       209.24
   78.77        3349.50           6857          44.00       191.81
   78.80        3349.75           6861          40.00       174.37
   78.83        3350.00           6864          41.00       178.73
   78.86        3350.25           6868          44.00       191.81
   78.88        3350.50           6872          48.00       209.24
   78.91        3350.75           6876          41.00       178.73
   78.94        3351.00           6879          42.00       183.09
HL scan finished at 01:20:25
end
************************************************************
  HL Scan of (1) Internal mercury lamp
************************************************************
Integration time is 0.2294 seconds per sample
dh040517De Bilt 52.1-5.183 2.589593pr1000
************************************************************
Dead Time -------------------------  3E-08 
Number of Cycles Used -------------  4 
Starting Wavelength (Angstroms) ---  3331 
Final Wavelength (Angstoms) -------  3351 
Wavelength Increment (Angstroms) --  .25 
Filter Wheel #1 Position ---------- (1) Ground quartz diffuser (ND=2.32)
Filter Wheel #2 Position ---------- 



************************************************************
HL scan start time = 01:41:54
Dark Count =  .2 


Time (GMT)  Wavelength (Ang)  Step Number  Raw Counts  Counts/Second

  102.65        3331.00           6581          42.00       182.22
  103.06        3331.25           6584          39.00       169.14
  103.09        3331.50           6588          40.00       173.50
  103.12        3331.75           6592          48.00       208.37
  103.15        3332.00           6595          43.00       186.57
  103.18        3332.25           6599          44.00       190.93
  103.20        3332.50           6603          41.00       177.86
  103.23        3332.75           6607          38.00       164.78
  103.26        3333.00           6610          40.00       173.50
  103.29        3333.25           6614          47.00       204.01
  103.32        3333.50           6618          48.00       208.37
  103.34        3333.75           6622          43.00       186.57
  103.37        3334.00           6625          44.00       190.93
  103.40        3334.25           6629          44.00       190.93
  103.43        3334.50           6633          46.00       199.65
  103.45        3334.75           6636          50.00       217.09
  103.48        3335.00           6640          45.00       195.29
  103.51        3335.25           6644          51.00       221.45
  103.54        3335.50           6648          55.00       238.89
  103.56        3335.75           6651          57.00       247.60
  103.59        3336.00           6655          75.00       326.07
  103.62        3336.25           6659         237.00      1032.29
  103.65        3336.50           6663        1075.00      4685.93
  103.67        3336.75           6666        2001.00      8724.17
  103.70        3337.00           6670        3378.00     14731.01
  103.73        3337.25           6674        4981.00     21726.45
  103.76        3337.50           6677        6048.00     26384.43
  103.79        3337.75           6681        7406.00     32314.66
  103.81        3338.00           6685        8741.00     38146.51
  103.84        3338.25           6689       10202.00     44531.12
  103.87        3338.50           6692       11327.00     49449.07
  103.90        3338.75           6696       12653.00     55247.55
  103.92        3339.00           6700       14022.00     61236.20
  103.95        3339.25           6704       15433.00     67410.83
  103.98        3339.50           6707       16510.00     72125.40
  104.01        3339.75           6711       17931.00     78347.85
  104.03        3340.00           6715       19406.00     84809.22
  104.06        3340.25           6719       20997.00     91781.58
  104.09        3340.50           6722       21822.00     95398.19
  104.12        3340.75           6726       23271.00    101752.20
  104.15        3341.00           6730       24657.00    107832.20
  104.17        3341.25           6733       24829.00    108586.80
  104.20        3341.50           6737       24858.00    108714.10
  104.23        3341.75           6741       24913.00    108955.40
  104.26        3342.00           6745       24345.00    106463.30
  104.28        3342.25           6748       23232.00    101581.10
  104.31        3342.50           6752       21779.00     95209.66
  104.34        3342.75           6756       20499.00     89598.84
  104.37        3343.00           6760       19065.00     83315.22
  104.41        3343.25           6763       18169.00     79390.26
  104.43        3343.50           6767       16725.00     73066.71
  104.46        3343.75           6771       15433.00     67410.83
  104.49        3344.00           6775       14240.00     62190.03
  104.52        3344.25           6778       13107.00     57233.33
  104.55        3344.50           6782       11582.00     50564.01
  104.57        3344.75           6786       10026.00     43761.86
  104.60        3345.00           6790        8372.00     36534.35
  104.63        3345.25           6793        7259.00     31672.62
  104.66        3345.50           6797        5959.00     25995.86
  104.69        3345.75           6801        4547.00     19832.20
  104.72        3346.00           6805        3012.00     13134.21
  104.74        3346.25           6808        1961.00      8549.71
  104.77        3346.50           6812         745.00      3247.05
  104.80        3346.75           6816         164.00       714.05
  104.83        3347.00           6819          79.00       343.51
  104.86        3347.25           6823          57.00       247.60
  104.88        3347.50           6827          56.00       243.25
  104.91        3347.75           6831          49.00       212.73
  104.94        3348.00           6834          44.00       190.93
  104.97        3348.25           6838          49.00       212.73
  104.99        3348.50           6842          39.00       169.14
  105.02        3348.75           6846          51.00       221.45
  105.05        3349.00           6849          44.00       190.93
  105.08        3349.25           6853          43.00       186.57
  105.10        3349.50           6857          40.00       173.50
  105.13        3349.75           6861          40.00       173.50
  105.16        3350.00           6864          35.00       151.70
  105.19        3350.25           6868          45.00       195.29
  105.22        3350.50           6872          43.00       186.57
  105.24        3350.75           6876          51.00       221.45
  105.27        3351.00           6879          43.00       186.57
HL scan finished at 01:46:45
end
************************************************************
  HL Scan of (1) Internal mercury lamp
************************************************************
Integration time is 0.2294 seconds per sample
dh040517De Bilt 52.1-5.183 2.589593pr1000
************************************************************
Dead Time -------------------------  3E-08 
Number of Cycles Used -------------  4 
Starting Wavelength (Angstroms) ---  3331 
Final Wavelength (Angstoms) -------  3351 
Wavelength Increment (Angstroms) --  .25 
Filter Wheel #1 Position ---------- (1) Ground quartz diffuser (ND=2.32)
Filter Wheel #2 Position ---------- 



************************************************************
HL scan start time = 20:18:40
Dark Count =  0 


Time (GMT)  Wavelength (Ang)  Step Number  Raw Counts  Counts/Second

 1219.43        3331.00           6581          37.00       161.29
 1219.83        3331.25           6584          39.00       170.01
 1219.86        3331.50           6588          40.00       174.37
 1219.89        3331.75           6592          50.00       217.96
 1219.92        3332.00           6595          47.00       204.88
 1219.94        3332.25           6599          45.00       196.17
 1219.97        3332.50           6603          44.00       191.81
 1220.00        3332.75           6607          38.00       165.65
 1220.03        3333.00           6610          45.00       196.17
 1220.05        3333.25           6614          47.00       204.88
 1220.08        3333.50           6618          41.00       178.73
 1220.11        3333.75           6622          47.00       204.88
 1220.14        3334.00           6625          41.00       178.73
 1220.16        3334.25           6629          45.00       196.17
 1220.19        3334.50           6633          45.00       196.17
 1220.22        3334.75           6636          47.00       204.88
 1220.25        3335.00           6640          50.00       217.96
 1220.27        3335.25           6644          49.00       213.60
 1220.30        3335.50           6648          57.00       248.48
 1220.33        3335.75           6651          61.00       265.91
 1220.36        3336.00           6655          70.00       305.15
 1220.39        3336.25           6659         140.00       610.30
 1220.41        3336.50           6663        1128.00      4917.90
 1220.44        3336.75           6666        2344.00     10221.09
 1220.47        3337.00           6670        3699.00     16132.48
 1220.50        3337.25           6674        5158.00     22499.93
 1220.52        3337.50           6677        6403.00     27935.35
 1220.55        3337.75           6681        7936.00     34630.56
 1220.58        3338.00           6685        9626.00     42014.57
 1220.61        3338.25           6689       11468.00     50066.42
 1220.64        3338.50           6692       12613.00     55073.49
 1220.66        3338.75           6696       14394.00     62864.74
 1220.69        3339.00           6700       16007.00     69924.21
 1220.72        3339.25           6704       17441.00     76202.78
 1220.75        3339.50           6707       18547.00     81046.87
 1220.77        3339.75           6711       19969.00     87277.05
 1220.80        3340.00           6715       21401.00     93553.40
 1220.83        3340.25           6719       23089.00    100954.80
 1220.86        3340.50           6722       24223.00    105928.90
 1220.89        3340.75           6726       25927.00    113406.10
 1220.92        3341.00           6730       27233.00    119139.10
 1220.95        3341.25           6733       27703.00    121202.80
 1220.97        3341.50           6737       27850.00    121848.30
 1221.00        3341.75           6741       27724.00    121295.00
 1221.03        3342.00           6745       26989.00    118067.90
 1221.06        3342.25           6748       26080.00    114077.60
 1221.08        3342.50           6752       24679.00    107929.50
 1221.11        3342.75           6756       23025.00    100674.10
 1221.14        3343.00           6760       21263.00     92948.44
 1221.17        3343.25           6763       19972.00     87290.19
 1221.19        3343.50           6767       18395.00     80381.05
 1221.22        3343.75           6771       16904.00     73851.32
 1221.25        3344.00           6775       15317.00     66903.99
 1221.29        3344.25           6778       14196.00     61998.39
 1221.32        3344.50           6782       12637.00     55178.45
 1221.34        3344.75           6786       11071.00     48330.71
 1221.37        3345.00           6790        9562.00     41734.88
 1221.40        3345.25           6793        8383.00     36583.29
 1221.43        3345.50           6797        6660.00     29057.58
 1221.46        3345.75           6801        4989.00     21762.24
 1221.49        3346.00           6805        3528.00     15386.35
 1221.52        3346.25           6808        2384.00     10395.57
 1221.54        3346.50           6812         964.00      4202.80
 1221.57        3346.75           6816         192.00       836.99
 1221.60        3347.00           6819          68.00       296.43
 1221.63        3347.25           6823          58.00       252.84
 1221.65        3347.50           6827          49.00       213.60
 1221.69        3347.75           6831          52.00       226.68
 1221.72        3348.00           6834          48.00       209.24
 1221.75        3348.25           6838          43.00       187.45
 1221.78        3348.50           6842          52.00       226.68
 1221.80        3348.75           6846          44.00       191.81
 1221.83        3349.00           6849          48.00       209.24
 1221.86        3349.25           6853          40.00       174.37
 1221.89        3349.50           6857          49.00       213.60
 1221.91        3349.75           6861          44.00       191.81
 1221.94        3350.00           6864          41.00       178.73
 1221.97        3350.25           6868          39.00       170.01
 1222.00        3350.50           6872          52.00       226.68
 1222.02        3350.75           6876          43.00       187.45
 1222.05        3351.00           6879          45.00       196.17
HL scan finished at 20:23:32
end
