************************************************************
  HL Scan of (1) Internal mercury lamp
************************************************************
Integration time is 0.2294 seconds per sample
dh070518Brussels 50.799-4.357 2.857833pr1000
************************************************************
Dead Time -------------------------  2.7E-08 
Number of Cycles Used -------------  4 
Starting Wavelength (Angstroms) ---  3331 
Final Wavelength (Angstoms) -------  3351 
Wavelength Increment (Angstroms) --  .25 
Filter Wheel #1 Position ---------- (1) Ground quartz diffuser (ND=2.32)
Filter Wheel #2 Position ---------- 



************************************************************
HL scan start time = 02:33:17
Dark Count =  .1 


Time (GMT)  Wavelength (Ang)  Step Number  Raw Counts  Counts/Second

  154.05        3331.00           6579          38.00       165.21
  154.46        3331.25           6582          42.00       182.65
  154.48        3331.50           6586          51.00       221.88
  154.51        3331.75           6590          47.00       204.45
  154.54        3332.00           6594          45.00       195.73
  154.57        3332.25           6597          41.00       178.29
  154.60        3332.50           6601          48.00       208.81
  154.63        3332.75           6605          48.00       208.81
  154.66        3333.00           6608          39.00       169.57
  154.68        3333.25           6612          47.00       204.45
  154.71        3333.50           6616          37.00       160.86
  154.74        3333.75           6620          45.00       195.73
  154.77        3334.00           6623          44.00       191.37
  154.80        3334.25           6627          44.00       191.37
  154.83        3334.50           6631          50.00       217.53
  154.85        3334.75           6635          50.00       217.53
  154.88        3335.00           6638          56.00       243.68
  154.91        3335.25           6642          53.00       230.60
  154.94        3335.50           6646          64.00       278.55
  154.97        3335.75           6649          60.00       261.12
  154.99        3336.00           6653          71.00       309.07
  155.02        3336.25           6657         101.00       439.85
  155.05        3336.50           6661         854.00      3722.69
  155.08        3336.75           6664        2137.00      9317.51
  155.11        3337.00           6668        4140.00     18055.44
  155.14        3337.25           6672        5940.00     25911.32
  155.16        3337.50           6676        7725.00     33705.02
  155.19        3337.75           6679        9307.00     40615.14
  155.22        3338.00           6683       11149.00     48664.17
  155.25        3338.25           6687       13013.00     56812.89
  155.28        3338.50           6690       14249.00     62218.21
  155.31        3338.75           6694       16247.00     70959.28
  155.34        3339.00           6698       18005.00     78653.78
  155.37        3339.25           6702       19965.00     87236.19
  155.39        3339.50           6705       21488.00     93907.81
  155.42        3339.75           6709       23206.00    101436.60
  155.45        3340.00           6713       25119.00    109823.40
  155.48        3340.25           6717       26815.00    117262.10
  155.51        3340.50           6720       28242.00    123523.30
  155.54        3340.75           6724       29995.00    131217.80
  155.56        3341.00           6728       31439.00    137558.40
  155.59        3341.25           6732       32830.00    143668.30
  155.62        3341.50           6735       32838.00    143703.40
  155.65        3341.75           6739       32855.00    143778.10
  155.68        3342.00           6743       32113.00    140518.60
  155.71        3342.25           6747       30651.00    134098.00
  155.74        3342.50           6750       29365.00    128452.10
  155.76        3342.75           6754       27395.00    119806.70
  155.79        3343.00           6758       25603.00    111946.00
  155.82        3343.25           6761       24150.00    105574.70
  155.85        3343.50           6765       22589.00     98732.34
  155.88        3343.75           6769       20997.00     91756.69
  155.91        3344.00           6773       19010.00     83053.96
  155.94        3344.25           6776       17487.00     76386.25
  155.96        3344.50           6780       15517.00     67765.11
  155.99        3344.75           6784       13494.00     58916.23
  156.02        3345.00           6788       11584.00     50565.51
  156.05        3345.25           6791       10141.00     44259.05
  156.08        3345.50           6795        8457.00     36902.06
  156.11        3345.75           6799        6645.00     28989.11
  156.14        3346.00           6803        4843.00     21123.21
  156.16        3346.25           6806        3575.00     15590.26
  156.19        3346.50           6810        1744.00      7603.57
  156.22        3346.75           6814         390.00      1699.73
  156.25        3347.00           6818          91.00       396.26
  156.28        3347.25           6821          63.00       274.20
  156.30        3347.50           6825          63.00       274.20
  156.33        3347.75           6829          65.00       282.91
  156.36        3348.00           6833          50.00       217.53
  156.39        3348.25           6836          51.00       221.88
  156.42        3348.50           6840          46.00       200.09
  156.45        3348.75           6844          48.00       208.81
  156.47        3349.00           6848          51.00       221.88
  156.50        3349.25           6851          47.00       204.45
  156.53        3349.50           6855          48.00       208.81
  156.56        3349.75           6859          48.00       208.81
  156.59        3350.00           6863          46.00       200.09
  156.62        3350.25           6866          42.00       182.65
  156.65        3350.50           6870          46.00       200.09
  156.67        3350.75           6874          41.00       178.29
  156.70        3351.00           6878          52.00       226.24
HL scan finished at 02:38:11
end
************************************************************
  HL Scan of (1) Internal mercury lamp
************************************************************
Integration time is 0.2294 seconds per sample
dh070518Brussels 50.799-4.357 3.179721pr1000
************************************************************
Dead Time -------------------------  2.7E-08 
Number of Cycles Used -------------  4 
Starting Wavelength (Angstroms) ---  3331 
Final Wavelength (Angstoms) -------  3351 
Wavelength Increment (Angstroms) --  .25 
Filter Wheel #1 Position ---------- (1) Ground quartz diffuser (ND=2.32)
Filter Wheel #2 Position ---------- 



************************************************************
HL scan start time = 20:22:12
Dark Count =  .2 


Time (GMT)  Wavelength (Ang)  Step Number  Raw Counts  Counts/Second

 1222.96        3331.00           6579          47.00       204.01
 1223.37        3331.25           6582          46.00       199.65
 1223.39        3331.50           6586          38.00       164.78
 1223.42        3331.75           6590          46.00       199.65
 1223.45        3332.00           6594          42.00       182.22
 1223.48        3332.25           6597          45.00       195.29
 1223.51        3332.50           6601          44.00       190.93
 1223.54        3332.75           6605          45.00       195.29
 1223.56        3333.00           6608          42.00       182.22
 1223.59        3333.25           6612          53.00       230.17
 1223.62        3333.50           6616          54.00       234.53
 1223.65        3333.75           6620          46.00       199.65
 1223.68        3334.00           6623          47.00       204.01
 1223.71        3334.25           6627          53.00       230.17
 1223.74        3334.50           6631          47.00       204.01
 1223.77        3334.75           6635          46.00       199.65
 1223.79        3335.00           6638          54.00       234.53
 1223.82        3335.25           6642          55.00       238.89
 1223.85        3335.50           6646          67.00       291.20
 1223.88        3335.75           6649          70.00       304.27
 1223.91        3336.00           6653          78.00       339.15
 1223.93        3336.25           6657         108.00       469.93
 1223.96        3336.50           6661        1066.00      4646.62
 1223.99        3336.75           6664        2538.00     11066.08
 1224.02        3337.00           6668        4595.00     20040.48
 1224.05        3337.25           6672        6718.00     29307.40
 1224.08        3337.50           6676        8887.00     38779.90
 1224.10        3337.75           6679       10401.00     45394.75
 1224.13        3338.00           6683       12437.00     54294.01
 1224.16        3338.25           6687       14688.00     64138.00
 1224.19        3338.50           6690       16304.00     71208.27
 1224.22        3338.75           6694       18587.00     81201.38
 1224.25        3339.00           6698       20952.00     91559.11
 1224.28        3339.25           6702       23004.00    100550.70
 1224.31        3339.50           6705       24684.00    107915.60
 1224.33        3339.75           6709       26901.00    117639.00
 1224.36        3340.00           6713       29097.00    127275.30
 1224.39        3340.25           6717       31183.00    136433.70
 1224.42        3340.50           6720       32482.00    142139.10
 1224.45        3340.75           6724       34743.00    152073.90
 1224.48        3341.00           6728       36646.00    160439.80
 1224.50        3341.25           6732       38339.00    167885.70
 1224.53        3341.50           6735       38864.00    170195.30
 1224.56        3341.75           6739       38698.00    169465.00
 1224.59        3342.00           6743       38453.00    168387.20
 1224.62        3342.25           6747       36396.00    159340.50
 1224.65        3342.50           6750       34877.00    152662.80
 1224.68        3342.75           6754       32897.00    143962.20
 1224.70        3343.00           6758       30730.00    134444.40
 1224.73        3343.25           6761       29514.00    129105.80
 1224.76        3343.50           6765       27310.00    119433.30
 1224.79        3343.75           6769       24810.00    108468.00
 1224.82        3344.00           6773       22770.00     99525.16
 1224.85        3344.25           6776       21006.00     91795.68
 1224.88        3344.50           6780       18743.00     81884.41
 1224.90        3344.75           6784       16852.00     73606.48
 1224.93        3345.00           6788       14337.00     62602.68
 1224.96        3345.25           6791       12592.00     54971.68
 1224.99        3345.50           6795       10546.00     46028.40
 1225.02        3345.75           6799        8498.00     37080.70
 1225.05        3346.00           6803        6155.00     26849.45
 1225.08        3346.25           6806        4305.00     18774.99
 1225.10        3346.50           6810        2126.00      9269.10
 1225.13        3346.75           6814         495.00      2157.06
 1225.16        3347.00           6818         123.00       535.32
 1225.19        3347.25           6821          90.00       391.46
 1225.22        3347.50           6825          68.00       295.56
 1225.25        3347.75           6829          65.00       282.48
 1225.28        3348.00           6833          63.00       273.76
 1225.30        3348.25           6836          59.00       256.32
 1225.33        3348.50           6840          59.00       256.32
 1225.36        3348.75           6844          51.00       221.45
 1225.39        3349.00           6848          47.00       204.01
 1225.42        3349.25           6851          45.00       195.29
 1225.45        3349.50           6855          46.00       199.65
 1225.47        3349.75           6859          57.00       247.60
 1225.50        3350.00           6863          48.00       208.37
 1225.53        3350.25           6866          45.00       195.29
 1225.56        3350.50           6870          45.00       195.29
 1225.59        3350.75           6874          43.00       186.57
 1225.62        3351.00           6878          55.00       238.89
HL scan finished at 20:27:06
end
