************************************************************
  HL Scan of (1) Internal mercury lamp
************************************************************
Integration time is 0.2294 seconds per sample
dh300418Delft 51.9969-4.3863 2.535944pr1000
************************************************************
Dead Time -------------------------  2.7E-08 
Number of Cycles Used -------------  4 
Starting Wavelength (Angstroms) ---  3331 
Final Wavelength (Angstoms) -------  3351 
Wavelength Increment (Angstroms) --  .25 
Filter Wheel #1 Position ---------- (1) Ground quartz diffuser (ND=2.32)
Filter Wheel #2 Position ---------- 



************************************************************
HL scan start time = 02:38:49
Dark Count =  .2 


Time (GMT)  Wavelength (Ang)  Step Number  Raw Counts  Counts/Second

  159.58        3331.00           6579          45.00       195.29
  159.99        3331.25           6582          42.00       182.22
  160.02        3331.50           6586          41.00       177.86
  160.05        3331.75           6590          43.00       186.57
  160.08        3332.00           6594          44.00       190.93
  160.11        3332.25           6597          44.00       190.93
  160.14        3332.50           6601          41.00       177.86
  160.17        3332.75           6605          42.00       182.22
  160.20        3333.00           6608          40.00       173.50
  160.23        3333.25           6612          44.00       190.93
  160.26        3333.50           6616          44.00       190.93
  160.29        3333.75           6620          37.00       160.42
  160.32        3334.00           6623          46.00       199.65
  160.35        3334.25           6627          39.00       169.14
  160.38        3334.50           6631          40.00       173.50
  160.41        3334.75           6635          49.00       212.73
  160.44        3335.00           6638          48.00       208.37
  160.47        3335.25           6642          50.00       217.09
  160.50        3335.50           6646          50.00       217.09
  160.53        3335.75           6649          55.00       238.89
  160.55        3336.00           6653          59.00       256.32
  160.59        3336.25           6657         106.00       461.21
  160.61        3336.50           6661         656.00      2858.98
  160.64        3336.75           6664        1512.00      6591.41
  160.67        3337.00           6668        2922.00     12741.09
  160.70        3337.25           6672        4409.00     19228.81
  160.73        3337.50           6676        5743.00     25050.94
  160.76        3337.75           6679        6813.00     29722.19
  160.79        3338.00           6683        8389.00     36604.60
  160.82        3338.25           6687        9872.00     43083.22
  160.85        3338.50           6690       11224.00     48991.53
  160.88        3338.75           6694       12823.00     55981.68
  160.91        3339.00           6698       14229.00     62130.30
  160.94        3339.25           6702       15705.00     68587.24
  160.97        3339.50           6705       16780.00     73291.36
  161.00        3339.75           6709       18329.00     80071.80
  161.03        3340.00           6713       19682.00     85996.31
  161.06        3340.25           6717       20808.00     90928.28
  161.09        3340.50           6720       21901.00     95716.98
  161.12        3340.75           6724       23479.00    102632.80
  161.15        3341.00           6728       24742.00    108169.90
  161.18        3341.25           6732       25700.00    112371.00
  161.21        3341.50           6735       25928.00    113370.90
  161.24        3341.75           6739       25870.00    113116.50
  161.27        3342.00           6743       25480.00    111406.10
  161.30        3342.25           6747       24380.00    106582.70
  161.33        3342.50           6750       23245.00    101607.10
  161.36        3342.75           6754       22059.00     96409.31
  161.39        3343.00           6758       20562.00     89850.68
  161.42        3343.25           6761       19469.00     85063.50
  161.45        3343.50           6765       18072.00     78946.66
  161.48        3343.75           6769       16443.00     71816.55
  161.51        3344.00           6773       14941.00     65244.74
  161.54        3344.25           6776       13981.00     61045.61
  161.57        3344.50           6780       12360.00     53957.37
  161.60        3344.75           6784       10724.00     46806.28
  161.63        3345.00           6788        9321.00     40675.86
  161.66        3345.25           6791        8313.00     36272.65
  161.69        3345.50           6795        6903.00     30115.15
  161.72        3345.75           6799        5457.00     23802.57
  161.75        3346.00           6803        3896.00     16990.36
  161.78        3346.25           6806        2687.00     11716.00
  161.81        3346.50           6810        1319.00      5749.80
  161.84        3346.75           6814         336.00      1463.88
  161.87        3347.00           6818          93.00       404.54
  161.90        3347.25           6821          66.00       286.84
  161.93        3347.50           6825          62.00       269.40
  161.96        3347.75           6829          52.00       225.81
  161.99        3348.00           6833          43.00       186.57
  162.02        3348.25           6836          55.00       238.89
  162.05        3348.50           6840          44.00       190.93
  162.07        3348.75           6844          39.00       169.14
  162.10        3349.00           6848          51.00       221.45
  162.14        3349.25           6851          45.00       195.29
  162.16        3349.50           6855          45.00       195.29
  162.19        3349.75           6859          46.00       199.65
  162.22        3350.00           6863          37.00       160.42
  162.25        3350.25           6866          44.00       190.93
  162.28        3350.50           6870          37.00       160.42
  162.31        3350.75           6874          42.00       182.22
  162.34        3351.00           6878          49.00       212.73
HL scan finished at 02:43:50
end
