************************************************************
  HL Scan of (1) Internal mercury lamp
************************************************************
Integration time is 0.2294 seconds per sample
dh080517De Bilt 52.1-5.183 2.535944pr1000
************************************************************
Dead Time -------------------------  3E-08 
Number of Cycles Used -------------  4 
Starting Wavelength (Angstroms) ---  3331 
Final Wavelength (Angstoms) -------  3351 
Wavelength Increment (Angstroms) --  .25 
Filter Wheel #1 Position ---------- (1) Ground quartz diffuser (ND=2.32)
Filter Wheel #2 Position ---------- 



************************************************************
HL scan start time = 01:18:08
Dark Count =  0 


Time (GMT)  Wavelength (Ang)  Step Number  Raw Counts  Counts/Second

   78.88        3331.00           6581          47.00       204.88
   79.29        3331.25           6584          46.00       200.52
   79.32        3331.50           6588          36.00       156.93
   79.35        3331.75           6592          50.00       217.96
   79.38        3332.00           6595          39.00       170.01
   79.40        3332.25           6599          37.00       161.29
   79.43        3332.50           6603          42.00       183.09
   79.46        3332.75           6607          42.00       183.09
   79.49        3333.00           6610          41.00       178.73
   79.51        3333.25           6614          42.00       183.09
   79.54        3333.50           6618          47.00       204.88
   79.57        3333.75           6622          38.00       165.65
   79.60        3334.00           6625          43.00       187.45
   79.62        3334.25           6629          54.00       235.40
   79.65        3334.50           6633          45.00       196.17
   79.68        3334.75           6636          40.00       174.37
   79.71        3335.00           6640          52.00       226.68
   79.73        3335.25           6644          59.00       257.19
   79.76        3335.50           6648          65.00       283.35
   79.79        3335.75           6651          66.00       287.71
   79.82        3336.00           6655          84.00       366.18
   79.85        3336.25           6659         422.00      1839.68
   79.87        3336.50           6663        1767.00      7704.48
   79.90        3336.75           6666        2764.00     12053.18
   79.93        3337.00           6670        4069.00     17747.02
   79.96        3337.25           6674        5370.00     23425.35
   79.98        3337.50           6677        6503.00     28372.01
   80.01        3337.75           6681        8228.00     35906.14
   80.04        3338.00           6685        9916.00     43281.97
   80.07        3338.25           6689       11347.00     49537.39
   80.10        3338.50           6692       12453.00     54373.72
   80.12        3338.75           6696       14013.00     61197.69
   80.15        3339.00           6700       15581.00     68059.49
   80.18        3339.25           6704       17137.00     74871.56
   80.21        3339.50           6707       18061.00     78918.10
   80.23        3339.75           6711       19745.00     86295.49
   80.26        3340.00           6715       21038.00     91962.16
   80.29        3340.25           6719       22714.00     99310.26
   80.32        3340.50           6722       23910.00    104555.90
   80.35        3340.75           6726       25292.00    110619.30
   80.39        3341.00           6730       26511.00    115969.50
   80.42        3341.25           6733       26843.00    117426.90
   80.44        3341.50           6737       27096.00    118537.60
   80.47        3341.75           6741       26900.00    117677.10
   80.50        3342.00           6745       26348.00    115254.00
   80.53        3342.25           6748       25174.00    110101.50
   80.56        3342.50           6752       23642.00    103380.30
   80.58        3342.75           6756       22026.00     96293.47
   80.61        3343.00           6760       20338.00     88894.12
   80.64        3343.25           6763       19330.00     84477.11
   80.67        3343.50           6767       17734.00     77485.93
   80.69        3343.75           6771       16284.00     71136.83
   80.72        3344.00           6775       14913.00     65135.88
   80.75        3344.25           6778       13455.00     58756.49
   80.78        3344.50           6782       12190.00     53223.54
   80.81        3344.75           6786       10601.00     46276.06
   80.83        3345.00           6790        9003.00     39292.15
   80.86        3345.25           6793        7701.00     33604.04
   80.89        3345.50           6797        6026.00     26289.26
   80.92        3345.75           6801        4466.00     19479.56
   80.95        3346.00           6805        3056.00     13327.04
   80.97        3346.25           6808        1937.00      8445.91
   81.00        3346.50           6812         485.00      2114.35
   81.03        3346.75           6816         117.00       510.03
   81.06        3347.00           6819          59.00       257.19
   81.08        3347.25           6823          55.00       239.76
   81.11        3347.50           6827          52.00       226.68
   81.14        3347.75           6831          45.00       196.17
   81.17        3348.00           6834          46.00       200.52
   81.19        3348.25           6838          35.00       152.57
   81.22        3348.50           6842          44.00       191.81
   81.25        3348.75           6846          46.00       200.52
   81.28        3349.00           6849          46.00       200.52
   81.30        3349.25           6853          50.00       217.96
   81.33        3349.50           6857          47.00       204.88
   81.36        3349.75           6861          43.00       187.45
   81.39        3350.00           6864          41.00       178.73
   81.41        3350.25           6868          45.00       196.17
   81.44        3350.50           6872          50.00       217.96
   81.47        3350.75           6876          43.00       187.45
   81.50        3351.00           6879          52.00       226.68
HL scan finished at 01:22:59
end
************************************************************
  HL Scan of (1) Internal mercury lamp
************************************************************
Integration time is 0.2294 seconds per sample
dh080517De Bilt 52.1-5.183 2.535944pr1000
************************************************************
Dead Time -------------------------  3E-08 
Number of Cycles Used -------------  4 
Starting Wavelength (Angstroms) ---  3331 
Final Wavelength (Angstoms) -------  3351 
Wavelength Increment (Angstroms) --  .25 
Filter Wheel #1 Position ---------- (1) Ground quartz diffuser (ND=2.32)
Filter Wheel #2 Position ---------- 



************************************************************
HL scan start time = 01:44:27
Dark Count =  0 


Time (GMT)  Wavelength (Ang)  Step Number  Raw Counts  Counts/Second

  105.20        3331.00           6581          46.00       200.52
  105.61        3331.25           6584          38.00       165.65
  105.64        3331.50           6588          34.00       148.21
  105.66        3331.75           6592          46.00       200.52
  105.69        3332.00           6595          38.00       165.65
  105.72        3332.25           6599          40.00       174.37
  105.75        3332.50           6603          36.00       156.93
  105.78        3332.75           6607          36.00       156.93
  105.80        3333.00           6610          40.00       174.37
  105.83        3333.25           6614          40.00       174.37
  105.86        3333.50           6618          37.00       161.29
  105.89        3333.75           6622          36.00       156.93
  105.91        3334.00           6625          44.00       191.81
  105.94        3334.25           6629          44.00       191.81
  105.97        3334.50           6633          47.00       204.88
  106.00        3334.75           6636          40.00       174.37
  106.03        3335.00           6640          45.00       196.17
  106.06        3335.25           6644          49.00       213.60
  106.08        3335.50           6648          46.00       200.52
  106.11        3335.75           6651          55.00       239.76
  106.14        3336.00           6655          56.00       244.12
  106.17        3336.25           6659         175.00       762.88
  106.19        3336.50           6663         908.00      3958.62
  106.22        3336.75           6666        1811.00      7896.38
  106.25        3337.00           6670        3106.00     13545.17
  106.28        3337.25           6674        4549.00     19841.80
  106.31        3337.50           6677        5487.00     23936.10
  106.33        3337.75           6681        6669.00     29096.88
  106.36        3338.00           6685        7905.00     34495.14
  106.39        3338.25           6689        9432.00     41166.77
  106.42        3338.50           6692       10514.00     45895.76
  106.44        3338.75           6696       11579.00     50551.76
  106.47        3339.00           6700       12832.00     56031.34
  106.50        3339.25           6704       14143.00     61766.48
  106.53        3339.50           6707       15191.00     66352.53
  106.55        3339.75           6711       16672.00     72835.53
  106.58        3340.00           6715       18048.00     78861.16
  106.61        3340.25           6719       19258.00     84161.66
  106.64        3340.50           6722       20235.00     88442.72
  106.67        3340.75           6726       21620.00     94513.47
  106.69        3341.00           6730       22623.00     98911.21
  106.72        3341.25           6733       23022.00    100661.00
  106.75        3341.50           6737       23202.00    101450.40
  106.78        3341.75           6741       23265.00    101726.70
  106.81        3342.00           6745       22528.00     98494.62
  106.83        3342.25           6748       21560.00     94250.42
  106.86        3342.50           6752       20333.00     88872.21
  106.89        3342.75           6756       19105.00     83491.35
  106.92        3343.00           6760       17859.00     78033.38
  106.94        3343.25           6763       16994.00     74245.40
  106.97        3343.50           6767       15465.00     67551.76
  107.00        3343.75           6771       14408.00     62926.01
  107.03        3344.00           6775       13340.00     58253.42
  107.06        3344.25           6778       12260.00     53529.67
  107.08        3344.50           6782       10735.00     46861.83
  107.11        3344.75           6786        9313.00     40646.74
  107.14        3345.00           6790        7931.00     34608.72
  107.17        3345.25           6793        6859.00     29926.60
  107.19        3345.50           6797        5570.00     24298.44
  107.22        3345.75           6801        4180.00     18231.42
  107.25        3346.00           6805        2834.00     12358.55
  107.28        3346.25           6808        1958.00      8537.50
  107.30        3346.50           6812         841.00      3666.49
  107.33        3346.75           6816         178.00       775.96
  107.36        3347.00           6819          79.00       344.38
  107.39        3347.25           6823          61.00       265.91
  107.41        3347.50           6827          43.00       187.45
  107.45        3347.75           6831          44.00       191.81
  107.48        3348.00           6834          48.00       209.24
  107.50        3348.25           6838          42.00       183.09
  107.53        3348.50           6842          44.00       191.81
  107.56        3348.75           6846          47.00       204.88
  107.59        3349.00           6849          39.00       170.01
  107.61        3349.25           6853          42.00       183.09
  107.64        3349.50           6857          42.00       183.09
  107.67        3349.75           6861          41.00       178.73
  107.70        3350.00           6864          44.00       191.81
  107.72        3350.25           6868          43.00       187.45
  107.75        3350.50           6872          37.00       161.29
  107.78        3350.75           6876          40.00       174.37
  107.81        3351.00           6879          40.00       174.37
HL scan finished at 01:49:17
end
