************************************************************
  HL Scan of (1) Internal mercury lamp
************************************************************
Integration time is 0.2294 seconds per sample
dh160518Delft 52.017-4.35 2.750537pr1000
************************************************************
Dead Time -------------------------  2.7E-08 
Number of Cycles Used -------------  4 
Starting Wavelength (Angstroms) ---  3331 
Final Wavelength (Angstoms) -------  3351 
Wavelength Increment (Angstroms) --  .25 
Filter Wheel #1 Position ---------- (1) Ground quartz diffuser (ND=2.32)
Filter Wheel #2 Position ---------- 



************************************************************
HL scan start time = 03:11:00
Dark Count =  .1 


Time (GMT)  Wavelength (Ang)  Step Number  Raw Counts  Counts/Second

  191.77        3331.00           6579          45.00       195.73
  192.18        3331.25           6582          46.00       200.09
  192.21        3331.50           6586          48.00       208.81
  192.23        3331.75           6590          44.00       191.37
  192.26        3332.00           6594          44.00       191.37
  192.29        3332.25           6597          47.00       204.45
  192.32        3332.50           6601          46.00       200.09
  192.35        3332.75           6605          46.00       200.09
  192.38        3333.00           6608          47.00       204.45
  192.40        3333.25           6612          45.00       195.73
  192.43        3333.50           6616          43.00       187.01
  192.46        3333.75           6620          36.00       156.50
  192.49        3334.00           6623          37.00       160.86
  192.52        3334.25           6627          38.00       165.21
  192.55        3334.50           6631          48.00       208.81
  192.57        3334.75           6635          49.00       213.17
  192.60        3335.00           6638          47.00       204.45
  192.63        3335.25           6642          49.00       213.17
  192.66        3335.50           6646          65.00       282.91
  192.69        3335.75           6649          57.00       248.04
  192.71        3336.00           6653          72.00       313.43
  192.74        3336.25           6657         112.00       487.80
  192.77        3336.50           6661         903.00      3936.34
  192.80        3336.75           6664        2265.00      9875.78
  192.83        3337.00           6668        4175.00     18208.16
  192.86        3337.25           6672        5877.00     25636.31
  192.89        3337.50           6676        7620.00     33246.48
  192.91        3337.75           6679        8935.00     38990.03
  192.94        3338.00           6683       10928.00     47698.27
  192.97        3338.25           6687       12682.00     55365.62
  193.00        3338.50           6690       13923.00     60792.38
  193.03        3338.75           6694       15654.00     68364.53
  193.06        3339.00           6698       17422.00     76101.72
  193.09        3339.25           6702       19486.00     85138.38
  193.11        3339.50           6705       20920.00     91419.36
  193.14        3339.75           6709       22448.00     98114.41
  193.17        3340.00           6713       24162.00    105627.30
  193.20        3340.25           6717       25960.00    113511.70
  193.23        3340.50           6720       27177.00    118850.30
  193.26        3340.75           6724       28730.00    125665.00
  193.28        3341.00           6728       30532.00    133575.50
  193.31        3341.25           6732       31498.00    137817.50
  193.34        3341.50           6735       31592.00    138230.30
  193.37        3341.75           6739       31667.00    138559.70
  193.40        3342.00           6743       30852.00    134980.60
  193.43        3342.25           6747       29290.00    128122.90
  193.45        3342.50           6750       27946.00    122224.40
  193.48        3342.75           6754       26029.00    113814.40
  193.51        3343.00           6758       24470.00    106977.70
  193.54        3343.25           6761       23183.00    101335.70
  193.57        3343.50           6765       21617.00     94473.02
  193.60        3343.75           6769       20009.00     87428.89
  193.63        3344.00           6773       18094.00     79043.41
  193.65        3344.25           6776       16501.00     72070.80
  193.68        3344.50           6780       14720.00     64278.42
  193.71        3344.75           6784       12845.00     56078.31
  193.74        3345.00           6788       11050.00     48231.47
  193.77        3345.25           6791        9778.00     42672.95
  193.80        3345.50           6795        7963.00     34744.44
  193.83        3345.75           6799        6229.00     27172.94
  193.85        3346.00           6803        4620.00     20150.02
  193.88        3346.25           6806        3350.00     14608.64
  193.91        3346.50           6810        1539.00      6709.59
  193.94        3346.75           6814         315.00      1372.76
  193.97        3347.00           6818          92.00       400.61
  194.00        3347.25           6821          74.00       322.15
  194.02        3347.50           6825          64.00       278.55
  194.05        3347.75           6829          57.00       248.04
  194.08        3348.00           6833          59.00       256.76
  194.11        3348.25           6836          50.00       217.53
  194.14        3348.50           6840          48.00       208.81
  194.17        3348.75           6844          45.00       195.73
  194.19        3349.00           6848          47.00       204.45
  194.22        3349.25           6851          42.00       182.65
  194.25        3349.50           6855          49.00       213.17
  194.28        3349.75           6859          48.00       208.81
  194.31        3350.00           6863          40.00       173.93
  194.34        3350.25           6866          47.00       204.45
  194.37        3350.50           6870          50.00       217.53
  194.39        3350.75           6874          49.00       213.17
  194.42        3351.00           6878          46.00       200.09
HL scan finished at 03:15:54
end
************************************************************
  HL Scan of (1) Internal mercury lamp
************************************************************
Integration time is 0.2294 seconds per sample
dh160518Delft 52.017-4.35 2.643241pr1000
************************************************************
Dead Time -------------------------  2.7E-08 
Number of Cycles Used -------------  4 
Starting Wavelength (Angstroms) ---  3331 
Final Wavelength (Angstoms) -------  3351 
Wavelength Increment (Angstroms) --  .25 
Filter Wheel #1 Position ---------- (1) Ground quartz diffuser (ND=2.32)
Filter Wheel #2 Position ---------- 



************************************************************
HL scan start time = 20:39:12
Dark Count =  .1 


Time (GMT)  Wavelength (Ang)  Step Number  Raw Counts  Counts/Second

 1239.97        3331.00           6579          47.00       204.45
 1240.38        3331.25           6582          39.00       169.57
 1240.41        3331.50           6586          38.00       165.21
 1240.43        3331.75           6590          48.00       208.81
 1240.46        3332.00           6594          40.00       173.93
 1240.49        3332.25           6597          38.00       165.21
 1240.52        3332.50           6601          46.00       200.09
 1240.55        3332.75           6605          44.00       191.37
 1240.58        3333.00           6608          39.00       169.57
 1240.60        3333.25           6612          43.00       187.01
 1240.63        3333.50           6616          43.00       187.01
 1240.66        3333.75           6620          46.00       200.09
 1240.69        3334.00           6623          39.00       169.57
 1240.72        3334.25           6627          43.00       187.01
 1240.74        3334.50           6631          38.00       165.21
 1240.77        3334.75           6635          43.00       187.01
 1240.80        3335.00           6638          47.00       204.45
 1240.83        3335.25           6642          48.00       208.81
 1240.86        3335.50           6646          53.00       230.60
 1240.89        3335.75           6649          54.00       234.96
 1240.91        3336.00           6653          67.00       291.63
 1240.94        3336.25           6657         122.00       531.39
 1240.97        3336.50           6661        1006.00      4385.44
 1241.00        3336.75           6664        2040.00      8894.46
 1241.03        3337.00           6668        3433.00     14970.74
 1241.05        3337.25           6672        4782.00     20856.99
 1241.08        3337.50           6676        6379.00     27827.79
 1241.11        3337.75           6679        7700.00     33595.85
 1241.14        3338.00           6683        9080.00     39623.45
 1241.17        3338.25           6687       10638.00     46430.89
 1241.20        3338.50           6690       11866.00     51798.20
 1241.22        3338.75           6694       13420.00     58592.62
 1241.25        3339.00           6698       15078.00     65844.52
 1241.28        3339.25           6702       16690.00     72897.91
 1241.31        3339.50           6705       17870.00     78062.80
 1241.34        3339.75           6709       19511.00     85247.86
 1241.37        3340.00           6713       21033.00     91914.40
 1241.40        3340.25           6717       22334.00     97614.82
 1241.42        3340.50           6720       23485.00    102659.50
 1241.45        3340.75           6724       24735.00    108139.60
 1241.48        3341.00           6728       26126.00    114239.80
 1241.51        3341.25           6732       27216.00    119021.40
 1241.54        3341.50           6735       27259.00    119210.00
 1241.57        3341.75           6739       27444.00    120021.70
 1241.59        3342.00           6743       26816.00    117266.50
 1241.62        3342.25           6747       25644.00    112125.80
 1241.65        3342.50           6750       24477.00    107008.40
 1241.68        3342.75           6754       22793.00     99626.39
 1241.71        3343.00           6758       21401.00     93526.64
 1241.74        3343.25           6761       20427.00     89259.77
 1241.76        3343.50           6765       18978.00     82913.84
 1241.79        3343.75           6769       17466.00     76294.32
 1241.82        3344.00           6773       15779.00     68911.45
 1241.85        3344.25           6776       14462.00     63149.87
 1241.88        3344.50           6780       12836.00     56038.96
 1241.91        3344.75           6784       11345.00     49520.84
 1241.93        3345.00           6788        9612.00     41947.66
 1241.96        3345.25           6791        8332.00     36356.07
 1241.99        3345.50           6795        6891.00     30063.19
 1242.02        3345.75           6799        5523.00     24091.08
 1242.05        3346.00           6803        4024.00     17549.29
 1242.08        3346.25           6806        2900.00     12645.56
 1242.11        3346.50           6810        1351.00      5889.78
 1242.13        3346.75           6814         280.00      1220.18
 1242.16        3347.00           6818          81.00       352.66
 1242.19        3347.25           6821          65.00       282.91
 1242.22        3347.50           6825          57.00       248.04
 1242.25        3347.75           6829          55.00       239.32
 1242.27        3348.00           6833          50.00       217.53
 1242.30        3348.25           6836          50.00       217.53
 1242.33        3348.50           6840          42.00       182.65
 1242.36        3348.75           6844          41.00       178.29
 1242.39        3349.00           6848          40.00       173.93
 1242.42        3349.25           6851          42.00       182.65
 1242.44        3349.50           6855          43.00       187.01
 1242.47        3349.75           6859          45.00       195.73
 1242.50        3350.00           6863          47.00       204.45
 1242.53        3350.25           6866          43.00       187.01
 1242.56        3350.50           6870          43.00       187.01
 1242.59        3350.75           6874          43.00       187.01
 1242.61        3351.00           6878          45.00       195.73
HL scan finished at 20:44:05
end
