************************************************************
  HL Scan of (1) Internal mercury lamp
************************************************************
Integration time is 0.2294 seconds per sample
dh170517Kaunas 54.88398-23.83586 2.750537pr1000
************************************************************
Dead Time -------------------------  3E-08 
Number of Cycles Used -------------  4 
Starting Wavelength (Angstroms) ---  3331 
Final Wavelength (Angstoms) -------  3351 
Wavelength Increment (Angstroms) --  .25 
Filter Wheel #1 Position ---------- (1) Ground quartz diffuser (ND=2.32)
Filter Wheel #2 Position ---------- 



************************************************************
HL scan start time = 22:58:39
Dark Count =  .1 


Time (GMT)  Wavelength (Ang)  Step Number  Raw Counts  Counts/Second

 1379.41        3331.00           6581          54.00       234.96
 1379.82        3331.25           6584          42.00       182.65
 1379.85        3331.50           6588          52.00       226.24
 1379.88        3331.75           6592          51.00       221.88
 1379.90        3332.00           6595          48.00       208.81
 1379.93        3332.25           6599          44.00       191.37
 1379.96        3332.50           6603          54.00       234.96
 1379.99        3332.75           6607          47.00       204.45
 1380.01        3333.00           6610          49.00       213.17
 1380.04        3333.25           6614          48.00       208.81
 1380.07        3333.50           6618          44.00       191.37
 1380.10        3333.75           6622          47.00       204.45
 1380.14        3334.00           6625          48.00       208.81
 1380.17        3334.25           6629          50.00       217.53
 1380.19        3334.50           6633          46.00       200.09
 1380.22        3334.75           6636          60.00       261.12
 1380.25        3335.00           6640          46.00       200.09
 1380.28        3335.25           6644          56.00       243.68
 1380.30        3335.50           6648          66.00       287.27
 1380.33        3335.75           6651          67.00       291.63
 1380.36        3336.00           6655          80.00       348.30
 1380.39        3336.25           6659         179.00       779.88
 1380.42        3336.50           6663        1285.00      5602.08
 1380.44        3336.75           6666        2922.00     12742.01
 1380.47        3337.00           6670        5064.00     22089.18
 1380.50        3337.25           6674        6832.00     29808.25
 1380.53        3337.50           6677        8400.00     36657.12
 1380.55        3337.75           6681       10696.00     46690.90
 1380.58        3338.00           6685       12829.00     56017.78
 1380.61        3338.25           6689       15165.00     66238.30
 1380.64        3338.50           6692       17017.00     74345.68
 1380.66        3338.75           6696       19116.00     83539.10
 1380.70        3339.00           6700       21246.00     92873.49
 1380.73        3339.25           6704       23363.00    102156.10
 1380.75        3339.50           6707       25004.00    109355.10
 1380.78        3339.75           6711       26857.00    117487.90
 1380.81        3340.00           6715       28787.00    125962.90
 1380.84        3340.25           6719       30519.00    133572.10
 1380.86        3340.50           6722       32225.00    141070.50
 1380.89        3340.75           6726       34582.00    151435.80
 1380.92        3341.00           6730       36401.00    159439.50
 1380.95        3341.25           6733       37069.00    162379.80
 1380.98        3341.50           6737       37152.00    162745.10
 1381.00        3341.75           6741       37266.00    163247.00
 1381.03        3342.00           6745       36292.00    158959.80
 1381.06        3342.25           6748       34885.00    152768.70
 1381.09        3342.50           6752       33045.00    144675.80
 1381.11        3342.75           6756       30947.00    135453.00
 1381.14        3343.00           6760       28864.00    126301.10
 1381.17        3343.25           6763       27001.00    118120.10
 1381.20        3343.50           6767       24856.00    108705.70
 1381.23        3343.75           6771       22804.00     99704.50
 1381.25        3344.00           6775       20611.00     90090.16
 1381.28        3344.25           6778       18887.00     82535.86
 1381.31        3344.50           6782       16756.00     73202.87
 1381.34        3344.75           6786       14887.00     65021.66
 1381.36        3345.00           6790       12955.00     56568.90
 1381.39        3345.25           6793       11345.00     49528.21
 1381.42        3345.50           6797        9265.00     40436.56
 1381.45        3345.75           6801        6934.00     30253.69
 1381.48        3346.00           6805        4773.00     20819.02
 1381.50        3346.25           6808        3143.00     13706.16
 1381.53        3346.50           6812        1354.00      5902.96
 1381.56        3346.75           6816         296.00      1289.94
 1381.59        3347.00           6819         115.00       500.88
 1381.61        3347.25           6823          73.00       317.79
 1381.64        3347.50           6827          66.00       287.27
 1381.67        3347.75           6831          62.00       269.84
 1381.70        3348.00           6834          58.00       252.40
 1381.72        3348.25           6838          57.00       248.04
 1381.75        3348.50           6842          49.00       213.17
 1381.78        3348.75           6846          48.00       208.81
 1381.81        3349.00           6849          50.00       217.53
 1381.83        3349.25           6853          51.00       221.88
 1381.86        3349.50           6857          48.00       208.81
 1381.89        3349.75           6861          51.00       221.88
 1381.92        3350.00           6864          48.00       208.81
 1381.95        3350.25           6868          49.00       213.17
 1381.97        3350.50           6872          47.00       204.45
 1382.00        3350.75           6876          45.00       195.73
 1382.03        3351.00           6879          44.00       191.37
HL scan finished at 23:03:31
end
************************************************************
  HL Scan of (1) Internal mercury lamp
************************************************************
Integration time is 0.2294 seconds per sample
dh170517Kaunas 54.88398-23.83586 2.750537pr1000
************************************************************
Dead Time -------------------------  3E-08 
Number of Cycles Used -------------  4 
Starting Wavelength (Angstroms) ---  3331 
Final Wavelength (Angstoms) -------  3351 
Wavelength Increment (Angstroms) --  .25 
Filter Wheel #1 Position ---------- (1) Ground quartz diffuser (ND=2.32)
Filter Wheel #2 Position ---------- 



************************************************************
HL scan start time = 00:00:00
Dark Count =  .1 


Time (GMT)  Wavelength (Ang)  Step Number  Raw Counts  Counts/Second

    0.76        3331.00           6581          48.00       208.81
    1.17        3331.25           6584          43.00       187.01
    1.20        3331.50           6588          44.00       191.37
    1.23        3331.75           6592          40.00       173.93
    1.26        3332.00           6595          47.00       204.45
    1.29        3332.25           6599          48.00       208.81
    1.31        3332.50           6603          47.00       204.45
    1.34        3332.75           6607          41.00       178.29
    1.37        3333.00           6610          42.00       182.65
    1.40        3333.25           6614          44.00       191.37
    1.42        3333.50           6618          43.00       187.01
    1.45        3333.75           6622          44.00       191.37
    1.48        3334.00           6625          38.00       165.21
    1.51        3334.25           6629          46.00       200.09
    1.53        3334.50           6633          48.00       208.81
    1.56        3334.75           6636          47.00       204.45
    1.59        3335.00           6640          53.00       230.60
    1.62        3335.25           6644          56.00       243.68
    1.64        3335.50           6648          58.00       252.40
    1.67        3335.75           6651          57.00       248.04
    1.70        3336.00           6655          65.00       282.91
    1.73        3336.25           6659         127.00       553.19
    1.76        3336.50           6663        1039.00      4529.39
    1.78        3336.75           6666        2291.00      9989.48
    1.81        3337.00           6670        4250.00     18536.46
    1.84        3337.25           6674        6024.00     26280.09
    1.87        3337.50           6677        7255.00     31655.59
    1.90        3337.75           6681        9198.00     40143.79
    1.93        3338.00           6685       10949.00     47796.92
    1.95        3338.25           6689       12701.00     55457.93
    1.98        3338.50           6692       13848.00     60475.36
    2.01        3338.75           6696       15507.00     67735.15
    2.04        3339.00           6700       17266.00     75436.01
    2.07        3339.25           6704       19246.00     84108.64
    2.09        3339.50           6707       20562.00     89875.39
    2.12        3339.75           6711       22595.00     98787.99
    2.15        3340.00           6715       24123.00    105489.80
    2.18        3340.25           6719       25776.00    112743.00
    2.20        3340.50           6722       26954.00    117913.80
    2.23        3340.75           6726       28713.00    125637.90
    2.26        3341.00           6730       30185.00    132104.50
    2.29        3341.25           6733       30805.00    134828.90
    2.31        3341.50           6737       31046.00    135888.10
    2.34        3341.75           6741       30922.00    135343.10
    2.37        3342.00           6745       30040.00    131467.40
    2.40        3342.25           6748       29116.00    127408.00
    2.43        3342.50           6752       27449.00    120087.00
    2.45        3342.75           6756       25536.00    111689.70
    2.48        3343.00           6760       23624.00    103300.90
    2.51        3343.25           6763       22377.00     97832.05
    2.54        3343.50           6767       20712.00     90532.82
    2.57        3343.75           6771       19377.00     84682.60
    2.59        3344.00           6775       17718.00     77415.43
    2.62        3344.25           6778       16080.00     70243.34
    2.65        3344.50           6782       14061.00     61407.28
    2.68        3344.75           6786       12185.00     53201.24
    2.70        3345.00           6790       10486.00     45772.93
    2.73        3345.25           6793        9313.00     40646.31
    2.76        3345.50           6797        7717.00     33673.49
    2.79        3345.75           6801        5895.00     25716.87
    2.81        3346.00           6805        4266.00     18606.29
    2.84        3346.25           6808        2964.00     12925.24
    2.87        3346.50           6812        1412.00      6155.89
    2.90        3346.75           6816         249.00      1085.04
    2.92        3347.00           6819          92.00       400.62
    2.95        3347.25           6823          71.00       309.07
    2.98        3347.50           6827          62.00       269.84
    3.01        3347.75           6831          53.00       230.60
    3.03        3348.00           6834          53.00       230.60
    3.06        3348.25           6838          51.00       221.88
    3.09        3348.50           6842          48.00       208.81
    3.12        3348.75           6846          45.00       195.73
    3.14        3349.00           6849          44.00       191.37
    3.17        3349.25           6853          48.00       208.81
    3.20        3349.50           6857          42.00       182.65
    3.23        3349.75           6861          49.00       213.17
    3.25        3350.00           6864          41.00       178.29
    3.28        3350.25           6868          46.00       200.09
    3.31        3350.50           6872          49.00       213.17
    3.34        3350.75           6876          47.00       204.45
    3.37        3351.00           6879          49.00       213.17
HL scan finished at 00:04:51
end
************************************************************
  HL Scan of (1) Internal mercury lamp
************************************************************
Integration time is 0.2294 seconds per sample
dh180517Kaunas 54.88398-23.83586 2.696889pr1000
************************************************************
Dead Time -------------------------  3E-08 
Number of Cycles Used -------------  4 
Starting Wavelength (Angstroms) ---  3331 
Final Wavelength (Angstoms) -------  3351 
Wavelength Increment (Angstroms) --  .25 
Filter Wheel #1 Position ---------- (1) Ground quartz diffuser (ND=2.32)
Filter Wheel #2 Position ---------- 



************************************************************
HL scan start time = 00:26:17
Dark Count =  .1 


Time (GMT)  Wavelength (Ang)  Step Number  Raw Counts  Counts/Second

   27.03        3331.00           6581          39.00       169.57
   27.44        3331.25           6584          43.00       187.01
   27.47        3331.50           6588          39.00       169.57
   27.50        3331.75           6592          41.00       178.29
   27.53        3332.00           6595          42.00       182.65
   27.56        3332.25           6599          43.00       187.01
   27.59        3332.50           6603          42.00       182.65
   27.61        3332.75           6607          41.00       178.29
   27.64        3333.00           6610          38.00       165.21
   27.67        3333.25           6614          41.00       178.29
   27.70        3333.50           6618          41.00       178.29
   27.72        3333.75           6622          42.00       182.65
   27.75        3334.00           6625          44.00       191.37
   27.78        3334.25           6629          39.00       169.57
   27.81        3334.50           6633          47.00       204.45
   27.84        3334.75           6636          45.00       195.73
   27.86        3335.00           6640          51.00       221.88
   27.89        3335.25           6644          54.00       234.96
   27.92        3335.50           6648          60.00       261.12
   27.95        3335.75           6651          60.00       261.12
   27.97        3336.00           6655          67.00       291.63
   28.00        3336.25           6659         308.00      1342.25
   28.03        3336.50           6663        1510.00      6583.25
   28.06        3336.75           6666        2613.00     11394.04
   28.08        3337.00           6670        4140.00     18056.42
   28.11        3337.25           6674        5534.00     24140.84
   28.14        3337.50           6677        6618.00     28873.74
   28.17        3337.75           6681        7964.00     34752.43
   28.20        3338.00           6685        9570.00     41769.40
   28.22        3338.25           6689       11171.00     48767.47
   28.25        3338.50           6692       12438.00     54307.68
   28.28        3338.75           6696       14027.00     61258.51
   28.31        3339.00           6700       15261.00     66658.46
   28.33        3339.25           6704       16722.00     73054.01
   28.36        3339.50           6707       17846.00     77976.00
   28.39        3339.75           6711       19564.00     85501.96
   28.42        3340.00           6715       20880.00     91269.18
   28.44        3340.25           6719       22463.00     98209.16
   28.47        3340.50           6722       23353.00    102112.20
   28.50        3340.75           6726       24781.00    108376.60
   28.53        3341.00           6730       26368.00    115341.30
   28.56        3341.25           6733       26732.00    116939.20
   28.58        3341.50           6737       26829.00    117365.00
   28.61        3341.75           6741       26745.00    116996.30
   28.64        3342.00           6745       25747.00    112615.70
   28.67        3342.25           6748       24782.00    108381.00
   28.69        3342.50           6752       23321.00    101971.90
   28.72        3342.75           6756       22033.00     96323.72
   28.75        3343.00           6760       20431.00     89301.27
   28.78        3343.25           6763       19405.00     84805.29
   28.81        3343.50           6767       17702.00     77345.35
   28.83        3343.75           6771       16226.00     70882.49
   28.86        3344.00           6775       14873.00     64960.39
   28.89        3344.25           6778       13526.00     59066.65
   28.92        3344.50           6782       12000.00     52392.23
   28.94        3344.75           6786       10502.00     45842.87
   28.97        3345.00           6790        9002.00     39287.35
   29.00        3345.25           6793        7969.00     34774.27
   29.03        3345.50           6797        6498.00     28349.73
   29.06        3345.75           6801        4705.00     20522.22
   29.09        3346.00           6805        3113.00     13575.28
   29.12        3346.25           6808        1877.00      8183.79
   29.14        3346.50           6812         558.00      2432.17
   29.17        3346.75           6816         144.00       627.30
   29.21        3347.00           6819          67.00       291.63
   29.24        3347.25           6823          53.00       230.60
   29.27        3347.50           6827          52.00       226.24
   29.29        3347.75           6831          46.00       200.09
   29.32        3348.00           6834          49.00       213.17
   29.35        3348.25           6838          43.00       187.01
   29.38        3348.50           6842          50.00       217.53
   29.40        3348.75           6846          44.00       191.37
   29.43        3349.00           6849          42.00       182.65
   29.46        3349.25           6853          44.00       191.37
   29.49        3349.50           6857          41.00       178.29
   29.51        3349.75           6861          44.00       191.37
   29.54        3350.00           6864          42.00       182.65
   29.57        3350.25           6868          41.00       178.29
   29.60        3350.50           6872          39.00       169.57
   29.62        3350.75           6876          54.00       234.96
   29.65        3351.00           6879          40.00       173.93
HL scan finished at 00:31:08
end
