************************************************************
  HL Scan of (1) Internal mercury lamp
************************************************************
Integration time is 0.2294 seconds per sample
dh140518Delft 52.017-4.35 2.857833pr1000
************************************************************
Dead Time -------------------------  2.7E-08 
Number of Cycles Used -------------  4 
Starting Wavelength (Angstroms) ---  3331 
Final Wavelength (Angstoms) -------  3351 
Wavelength Increment (Angstroms) --  .25 
Filter Wheel #1 Position ---------- (1) Ground quartz diffuser (ND=2.32)
Filter Wheel #2 Position ---------- 



************************************************************
HL scan start time = 20:37:20
Dark Count =  .2 


Time (GMT)  Wavelength (Ang)  Step Number  Raw Counts  Counts/Second

 1238.10        3331.00           6579          41.00       177.86
 1238.51        3331.25           6582          44.00       190.93
 1238.53        3331.50           6586          44.00       190.93
 1238.56        3331.75           6590          43.00       186.57
 1238.59        3332.00           6594          47.00       204.01
 1238.62        3332.25           6597          44.00       190.93
 1238.65        3332.50           6601          44.00       190.93
 1238.68        3332.75           6605          46.00       199.65
 1238.70        3333.00           6608          49.00       212.73
 1238.73        3333.25           6612          38.00       164.78
 1238.76        3333.50           6616          38.00       164.78
 1238.79        3333.75           6620          41.00       177.86
 1238.82        3334.00           6623          41.00       177.86
 1238.85        3334.25           6627          44.00       190.93
 1238.87        3334.50           6631          42.00       182.22
 1238.90        3334.75           6635          50.00       217.09
 1238.93        3335.00           6638          48.00       208.37
 1238.96        3335.25           6642          60.00       260.68
 1238.99        3335.50           6646          61.00       265.04
 1239.02        3335.75           6649          61.00       265.04
 1239.04        3336.00           6653          75.00       326.07
 1239.07        3336.25           6657          99.00       430.69
 1239.10        3336.50           6661         642.00      2797.94
 1239.13        3336.75           6664        2034.00      8867.86
 1239.16        3337.00           6668        3808.00     16606.40
 1239.19        3337.25           6672        5581.00     24343.81
 1239.21        3337.50           6676        7293.00     31818.08
 1239.24        3337.75           6679        8593.00     37495.66
 1239.27        3338.00           6683       10657.00     46513.48
 1239.30        3338.25           6687       12642.00     55190.29
 1239.33        3338.50           6690       13879.00     60599.51
 1239.36        3338.75           6694       15730.00     68696.62
 1239.38        3339.00           6698       17773.00     77637.74
 1239.41        3339.25           6702       19611.00     85685.38
 1239.44        3339.50           6705       21290.00     93039.89
 1239.47        3339.75           6709       23224.00    101515.00
 1239.50        3340.00           6713       25031.00    109437.10
 1239.53        3340.25           6717       26677.00    116656.30
 1239.56        3340.50           6720       28452.00    124444.50
 1239.59        3340.75           6724       29877.00    130699.30
 1239.61        3341.00           6728       31478.00    137729.20
 1239.64        3341.25           6732       32579.00    142565.20
 1239.67        3341.50           6735       33121.00    144946.30
 1239.70        3341.75           6739       33440.00    146347.90
 1239.73        3342.00           6743       32816.00    143606.30
 1239.76        3342.25           6747       31382.00    137307.60
 1239.78        3342.50           6750       30259.00    132376.40
 1239.81        3342.75           6754       28440.00    124391.80
 1239.84        3343.00           6758       26613.00    116375.60
 1239.87        3343.25           6761       25348.00    110827.20
 1239.90        3343.50           6765       23389.00    102238.20
 1239.93        3343.75           6769       21741.00     95015.90
 1239.96        3344.00           6773       19769.00     86377.34
 1239.98        3344.25           6776       18320.00     80032.40
 1240.01        3344.50           6780       16117.00     70389.97
 1240.04        3344.75           6784       14071.00     61439.24
 1240.07        3345.00           6788       12213.00     53314.71
 1240.10        3345.25           6791       10759.00     46959.24
 1240.13        3345.50           6795        8803.00     38412.97
 1240.15        3345.75           6799        7025.00     30647.85
 1240.18        3346.00           6803        5137.00     22405.88
 1240.21        3346.25           6806        3841.00     16750.38
 1240.24        3346.50           6810        2146.00      9356.33
 1240.27        3346.75           6814         618.00      2693.31
 1240.30        3347.00           6818         125.00       544.04
 1240.32        3347.25           6821          71.00       308.63
 1240.35        3347.50           6825          59.00       256.32
 1240.38        3347.75           6829          56.00       243.24
 1240.41        3348.00           6833          55.00       238.89
 1240.44        3348.25           6836          53.00       230.17
 1240.47        3348.50           6840          51.00       221.45
 1240.49        3348.75           6844          47.00       204.01
 1240.52        3349.00           6848          50.00       217.09
 1240.55        3349.25           6851          45.00       195.29
 1240.58        3349.50           6855          44.00       190.93
 1240.61        3349.75           6859          45.00       195.29
 1240.64        3350.00           6863          53.00       230.17
 1240.66        3350.25           6866          44.00       190.93
 1240.69        3350.50           6870          50.00       217.09
 1240.72        3350.75           6874          40.00       173.50
 1240.75        3351.00           6878          57.00       247.60
HL scan finished at 20:42:14
end
