************************************************************
  HL Scan of (1) Internal mercury lamp
************************************************************
Integration time is 0.2294 seconds per sample
dh150517Kaunas 54.88398-23.83586 2.643241pr1000
************************************************************
Dead Time -------------------------  3E-08 
Number of Cycles Used -------------  4 
Starting Wavelength (Angstroms) ---  3331 
Final Wavelength (Angstoms) -------  3351 
Wavelength Increment (Angstroms) --  .25 
Filter Wheel #1 Position ---------- (1) Ground quartz diffuser (ND=2.32)
Filter Wheel #2 Position ---------- 



************************************************************
HL scan start time = 23:48:53
Dark Count =  .1 


Time (GMT)  Wavelength (Ang)  Step Number  Raw Counts  Counts/Second

 1429.65        3331.00           6581          42.00       182.65
 1430.06        3331.25           6584          43.00       187.01
 1430.09        3331.50           6588          42.00       182.65
 1430.11        3331.75           6592          51.00       221.88
 1430.14        3332.00           6595          43.00       187.01
 1430.17        3332.25           6599          43.00       187.01
 1430.20        3332.50           6603          35.00       152.14
 1430.22        3332.75           6607          45.00       195.73
 1430.25        3333.00           6610          45.00       195.73
 1430.28        3333.25           6614          47.00       204.45
 1430.31        3333.50           6618          44.00       191.37
 1430.34        3333.75           6622          44.00       191.37
 1430.36        3334.00           6625          48.00       208.81
 1430.39        3334.25           6629          43.00       187.01
 1430.42        3334.50           6633          49.00       213.17
 1430.45        3334.75           6636          46.00       200.09
 1430.47        3335.00           6640          49.00       213.17
 1430.50        3335.25           6644          55.00       239.32
 1430.53        3335.50           6648          54.00       234.96
 1430.56        3335.75           6651          64.00       278.56
 1430.58        3336.00           6655          79.00       343.94
 1430.61        3336.25           6659         415.00      1808.73
 1430.64        3336.50           6663        1748.00      7621.18
 1430.67        3336.75           6666        2775.00     12100.73
 1430.70        3337.00           6670        4245.00     18514.64
 1430.72        3337.25           6674        5719.00     24948.48
 1430.75        3337.50           6677        7107.00     31009.22
 1430.78        3337.75           6681        8954.00     39077.61
 1430.81        3338.00           6685       10632.00     46411.14
 1430.84        3338.25           6689       12166.00     53118.15
 1430.86        3338.50           6692       13405.00     58537.33
 1430.89        3338.75           6696       15169.00     66255.81
 1430.92        3339.00           6700       16823.00     73496.22
 1430.95        3339.25           6704       18327.00     80082.76
 1430.97        3339.50           6707       19453.00     85015.59
 1431.00        3339.75           6711       21261.00     92939.25
 1431.03        3340.00           6715       22766.00     99537.86
 1431.06        3340.25           6719       24476.00    107038.50
 1431.08        3340.50           6722       25852.00    113076.50
 1431.11        3340.75           6726       27561.00    120578.80
 1431.14        3341.00           6730       28672.00    125457.80
 1431.17        3341.25           6733       29332.00    128356.90
 1431.20        3341.50           6737       29320.00    128304.20
 1431.22        3341.75           6741       29361.00    128484.30
 1431.25        3342.00           6745       28511.00    124750.70
 1431.28        3342.25           6748       27269.00    119296.70
 1431.31        3342.50           6752       25701.00    112413.80
 1431.33        3342.75           6756       23737.00    103796.60
 1431.36        3343.00           6760       22221.00     97148.03
 1431.39        3343.25           6763       20980.00     91707.50
 1431.42        3343.50           6767       19462.00     85055.03
 1431.44        3343.75           6771       17855.00     78015.43
 1431.47        3344.00           6775       16155.00     70571.66
 1431.50        3344.25           6778       14859.00     64899.12
 1431.53        3344.50           6782       13341.00     58257.36
 1431.56        3344.75           6786       11631.00     50778.70
 1431.58        3345.00           6790        9834.00     42923.16
 1431.61        3345.25           6793        8408.00     36692.07
 1431.64        3345.50           6797        6635.00     28947.97
 1431.67        3345.75           6801        4977.00     21709.43
 1431.69        3346.00           6805        3359.00     14648.55
 1431.72        3346.25           6808        2146.00      9357.03
 1431.75        3346.50           6812         569.00      2480.13
 1431.78        3346.75           6816         151.00       657.82
 1431.81        3347.00           6819          78.00       339.59
 1431.83        3347.25           6823          64.00       278.56
 1431.86        3347.50           6827          56.00       243.68
 1431.89        3347.75           6831          58.00       252.40
 1431.92        3348.00           6834          52.00       226.24
 1431.94        3348.25           6838          49.00       213.17
 1431.97        3348.50           6842          54.00       234.96
 1432.00        3348.75           6846          50.00       217.53
 1432.03        3349.00           6849          44.00       191.37
 1432.05        3349.25           6853          39.00       169.57
 1432.08        3349.50           6857          42.00       182.65
 1432.11        3349.75           6861          46.00       200.09
 1432.14        3350.00           6864          47.00       204.45
 1432.16        3350.25           6868          42.00       182.65
 1432.19        3350.50           6872          42.00       182.65
 1432.22        3350.75           6876          42.00       182.65
 1432.25        3351.00           6879          46.00       200.09
HL scan finished at 23:53:44
end
************************************************************
  HL Scan of (1) Internal mercury lamp
************************************************************
Integration time is 0.2294 seconds per sample
dh160517Kaunas 54.88398-23.83586 2.643241pr1000
************************************************************
Dead Time -------------------------  3E-08 
Number of Cycles Used -------------  4 
Starting Wavelength (Angstroms) ---  3331 
Final Wavelength (Angstoms) -------  3351 
Wavelength Increment (Angstroms) --  .25 
Filter Wheel #1 Position ---------- (1) Ground quartz diffuser (ND=2.32)
Filter Wheel #2 Position ---------- 



************************************************************
HL scan start time = 00:19:35
Dark Count =  .2 


Time (GMT)  Wavelength (Ang)  Step Number  Raw Counts  Counts/Second

   20.35        3331.00           6581          41.00       177.86
   20.76        3331.25           6584          38.00       164.78
   20.79        3331.50           6588          45.00       195.29
   20.81        3331.75           6592          40.00       173.50
   20.84        3332.00           6595          48.00       208.37
   20.87        3332.25           6599          42.00       182.22
   20.90        3332.50           6603          47.00       204.01
   20.92        3332.75           6607          39.00       169.14
   20.95        3333.00           6610          46.00       199.65
   20.98        3333.25           6614          40.00       173.50
   21.01        3333.50           6618          35.00       151.70
   21.03        3333.75           6622          44.00       190.93
   21.06        3334.00           6625          42.00       182.22
   21.09        3334.25           6629          47.00       204.01
   21.12        3334.50           6633          44.00       190.93
   21.14        3334.75           6636          45.00       195.29
   21.17        3335.00           6640          52.00       225.81
   21.20        3335.25           6644          48.00       208.37
   21.23        3335.50           6648          53.00       230.17
   21.25        3335.75           6651          63.00       273.76
   21.28        3336.00           6655          68.00       295.56
   21.31        3336.25           6659         215.00       936.38
   21.34        3336.50           6663        1261.00      5496.98
   21.37        3336.75           6666        2319.00     10111.18
   21.39        3337.00           6670        3807.00     16602.86
   21.42        3337.25           6674        5094.00     22219.69
   21.45        3337.50           6677        6111.00     26659.50
   21.48        3337.75           6681        7329.00     31978.35
   21.51        3338.00           6685        8986.00     39216.99
   21.54        3338.25           6689       10525.00     45942.97
   21.57        3338.50           6692       11524.00     50310.40
   21.60        3338.75           6696       12883.00     56253.53
   21.63        3339.00           6700       14311.00     62500.69
   21.66        3339.25           6704       15621.00     68233.69
   21.68        3339.50           6707       16729.00     73084.22
   21.71        3339.75           6711       18379.00     80310.09
   21.74        3340.00           6715       19667.00     85952.83
   21.77        3340.25           6719       21052.00     92022.66
   21.80        3340.50           6722       22223.00     97156.36
   21.82        3340.75           6726       23524.00    102861.80
   21.85        3341.00           6730       24553.00    107375.90
   21.88        3341.25           6733       24963.00    109174.80
   21.91        3341.50           6737       25029.00    109464.40
   21.93        3341.75           6741       24911.00    108946.60
   21.96        3342.00           6745       24146.00    105590.30
   21.99        3342.25           6748       23261.00    101708.30
   22.02        3342.50           6752       21930.00     95871.69
   22.04        3342.75           6756       20479.00     89511.19
   22.07        3343.00           6760       19269.00     84208.99
   22.10        3343.25           6763       17925.00     78321.56
   22.13        3343.50           6767       16811.00     73443.25
   22.16        3343.75           6771       15317.00     66903.11
   22.18        3344.00           6775       14038.00     61306.20
   22.21        3344.25           6778       12865.00     56174.80
   22.24        3344.50           6782       11385.00     49702.65
   22.27        3344.75           6786        9759.00     42594.94
   22.30        3345.00           6790        8352.00     36446.98
   22.32        3345.25           6793        7241.00     31594.01
   22.35        3345.50           6797        5663.00     24703.57
   22.38        3345.75           6801        4237.00     18479.29
   22.41        3346.00           6805        2963.00     12920.44
   22.44        3346.25           6808        2000.00      8719.81
   22.47        3346.50           6812         710.00      3094.45
   22.50        3346.75           6816         154.00       670.46
   22.52        3347.00           6819          72.00       312.99
   22.55        3347.25           6823          58.00       251.96
   22.58        3347.50           6827          51.00       221.45
   22.61        3347.75           6831          48.00       208.37
   22.63        3348.00           6834          45.00       195.29
   22.66        3348.25           6838          48.00       208.37
   22.69        3348.50           6842          42.00       182.22
   22.72        3348.75           6846          51.00       221.45
   22.74        3349.00           6849          43.00       186.57
   22.77        3349.25           6853          47.00       204.01
   22.80        3349.50           6857          39.00       169.14
   22.83        3349.75           6861          38.00       164.78
   22.86        3350.00           6864          50.00       217.09
   22.89        3350.25           6868          38.00       164.78
   22.92        3350.50           6872          41.00       177.86
   22.95        3350.75           6876          44.00       190.93
   22.98        3351.00           6879          39.00       169.14
HL scan finished at 00:24:28
end
************************************************************
  HL Scan of (1) Internal mercury lamp
************************************************************
Integration time is 0.2294 seconds per sample
dh160517Kaunas 54.88398-23.83586 2.643241pr1000
************************************************************
Dead Time -------------------------  3E-08 
Number of Cycles Used -------------  4 
Starting Wavelength (Angstroms) ---  3331 
Final Wavelength (Angstoms) -------  3351 
Wavelength Increment (Angstroms) --  .25 
Filter Wheel #1 Position ---------- (1) Ground quartz diffuser (ND=2.32)
Filter Wheel #2 Position ---------- 



************************************************************
HL scan start time = 19:37:42
Dark Count =  .1 


Time (GMT)  Wavelength (Ang)  Step Number  Raw Counts  Counts/Second

 1178.47        3331.00           6581          42.00       182.65
 1178.88        3331.25           6584          44.00       191.37
 1178.91        3331.50           6588          45.00       195.73
 1178.94        3331.75           6592          47.00       204.45
 1178.96        3332.00           6595          42.00       182.65
 1178.99        3332.25           6599          43.00       187.01
 1179.02        3332.50           6603          42.00       182.65
 1179.05        3332.75           6607          45.00       195.73
 1179.07        3333.00           6610          46.00       200.09
 1179.10        3333.25           6614          42.00       182.65
 1179.14        3333.50           6618          44.00       191.37
 1179.17        3333.75           6622          42.00       182.65
 1179.20        3334.00           6625          46.00       200.09
 1179.22        3334.25           6629          41.00       178.29
 1179.25        3334.50           6633          41.00       178.29
 1179.28        3334.75           6636          43.00       187.01
 1179.31        3335.00           6640          52.00       226.24
 1179.33        3335.25           6644          57.00       248.04
 1179.36        3335.50           6648          54.00       234.96
 1179.39        3335.75           6651          50.00       217.53
 1179.42        3336.00           6655          70.00       304.71
 1179.44        3336.25           6659         146.00       636.02
 1179.47        3336.50           6663        1123.00      4895.66
 1179.50        3336.75           6666        2326.00     10142.14
 1179.53        3337.00           6670        3769.00     16437.49
 1179.56        3337.25           6674        5302.00     23128.07
 1179.58        3337.50           6677        6445.00     28118.31
 1179.61        3337.75           6681        8059.00     35167.42
 1179.64        3338.00           6685        9950.00     43430.14
 1179.67        3338.25           6689       11861.00     51784.40
 1179.69        3338.50           6692       12989.00     56717.62
 1179.72        3338.75           6696       14672.00     64080.79
 1179.75        3339.00           6700       16297.00     71193.31
 1179.78        3339.25           6704       17816.00     77844.62
 1179.81        3339.50           6707       19000.00     83030.90
 1179.83        3339.75           6711       20387.00     89108.43
 1179.86        3340.00           6715       22036.00     96336.88
 1179.89        3340.25           6719       23791.00    104033.40
 1179.92        3340.50           6722       25062.00    109609.60
 1179.94        3340.75           6726       26442.00    115666.10
 1179.98        3341.00           6730       27885.00    122001.50
 1180.01        3341.25           6733       28415.00    124329.10
 1180.03        3341.50           6737       28706.00    125607.10
 1180.06        3341.75           6741       28542.00    124886.80
 1180.09        3342.00           6745       27777.00    121527.30
 1180.12        3342.25           6748       27030.00    118247.40
 1180.14        3342.50           6752       25474.00    111417.60
 1180.17        3342.75           6756       23830.00    104204.50
 1180.20        3343.00           6760       22180.00     96968.25
 1180.23        3343.25           6763       20812.00     90971.13
 1180.26        3343.50           6767       19124.00     83574.15
 1180.28        3343.75           6771       17477.00     76360.00
 1180.31        3344.00           6775       15836.00     69175.24
 1180.34        3344.25           6778       14554.00     63564.43
 1180.37        3344.50           6782       12998.00     56756.99
 1180.39        3344.75           6786       11369.00     49633.14
 1180.42        3345.00           6790        9934.00     43360.21
 1180.45        3345.25           6793        8691.00     37928.49
 1180.48        3345.50           6797        6983.00     30467.68
 1180.51        3345.75           6801        5194.00     22656.63
 1180.53        3346.00           6805        3710.00     16180.04
 1180.56        3346.25           6808        2474.00     10787.71
 1180.59        3346.50           6812        1029.00      4485.78
 1180.62        3346.75           6816         220.00       958.62
 1180.64        3347.00           6819         103.00       448.57
 1180.67        3347.25           6823          56.00       243.68
 1180.70        3347.50           6827          55.00       239.32
 1180.73        3347.75           6831          57.00       248.04
 1180.76        3348.00           6834          45.00       195.73
 1180.78        3348.25           6838          48.00       208.81
 1180.81        3348.50           6842          46.00       200.09
 1180.84        3348.75           6846          50.00       217.53
 1180.87        3349.00           6849          45.00       195.73
 1180.89        3349.25           6853          43.00       187.01
 1180.92        3349.50           6857          46.00       200.09
 1180.95        3349.75           6861          44.00       191.37
 1180.98        3350.00           6864          50.00       217.53
 1181.00        3350.25           6868          50.00       217.53
 1181.04        3350.50           6872          45.00       195.73
 1181.07        3350.75           6876          44.00       191.37
 1181.09        3351.00           6879          49.00       213.17
HL scan finished at 19:42:34
end
