************************************************************
  HL Scan of (1) Internal mercury lamp
************************************************************
Integration time is 0.2294 seconds per sample
dh150517Kaunas 54.88398-23.83586 2.857833pr1000
************************************************************
Dead Time -------------------------  3E-08 
Number of Cycles Used -------------  4 
Starting Wavelength (Angstroms) ---  3331 
Final Wavelength (Angstoms) -------  3351 
Wavelength Increment (Angstroms) --  .25 
Filter Wheel #1 Position ---------- (1) Ground quartz diffuser (ND=2.32)
Filter Wheel #2 Position ---------- 



************************************************************
HL scan start time = 19:35:52
Dark Count =  .2 


Time (GMT)  Wavelength (Ang)  Step Number  Raw Counts  Counts/Second

 1176.62        3331.00           6581          44.00       190.93
 1177.03        3331.25           6584          45.00       195.29
 1177.06        3331.50           6588          44.00       190.93
 1177.09        3331.75           6592          45.00       195.29
 1177.11        3332.00           6595          50.00       217.09
 1177.14        3332.25           6599          52.00       225.81
 1177.17        3332.50           6603          46.00       199.65
 1177.20        3332.75           6607          47.00       204.01
 1177.22        3333.00           6610          46.00       199.65
 1177.25        3333.25           6614          42.00       182.22
 1177.28        3333.50           6618          43.00       186.57
 1177.31        3333.75           6622          46.00       199.65
 1177.33        3334.00           6625          50.00       217.09
 1177.36        3334.25           6629          52.00       225.81
 1177.39        3334.50           6633          47.00       204.01
 1177.42        3334.75           6636          50.00       217.09
 1177.44        3335.00           6640          55.00       238.89
 1177.47        3335.25           6644          62.00       269.40
 1177.50        3335.50           6648          62.00       269.40
 1177.53        3335.75           6651          62.00       269.40
 1177.56        3336.00           6655          73.00       317.35
 1177.59        3336.25           6659         154.00       670.46
 1177.62        3336.50           6663        1284.00      5597.28
 1177.64        3336.75           6666        2996.00     13064.40
 1177.67        3337.00           6670        4821.00     21028.08
 1177.70        3337.25           6674        6643.00     28982.47
 1177.73        3337.50           6677        8084.00     35276.20
 1177.75        3337.75           6681       10083.00     44010.99
 1177.78        3338.00           6685       11914.00     52015.72
 1177.81        3338.25           6689       13715.00     59893.05
 1177.84        3338.50           6692       14996.00     65498.23
 1177.86        3338.75           6696       16796.00     73377.56
 1177.89        3339.00           6700       19051.00     83253.90
 1177.92        3339.25           6704       20940.00     91531.72
 1177.95        3339.50           6707       22498.00     98362.19
 1177.98        3339.75           6711       24197.00    105814.00
 1178.00        3340.00           6715       26031.00    113861.70
 1178.03        3340.25           6719       27987.00    122449.00
 1178.06        3340.50           6722       29409.00    128694.70
 1178.09        3340.75           6726       30928.00    135369.00
 1178.11        3341.00           6730       32797.00    143584.90
 1178.14        3341.25           6733       33519.00    146759.80
 1178.17        3341.50           6737       33784.00    147925.30
 1178.20        3341.75           6741       33720.00    147643.80
 1178.23        3342.00           6745       32746.00    143360.70
 1178.25        3342.25           6748       31521.00    137975.40
 1178.28        3342.50           6752       29732.00    130113.70
 1178.31        3342.75           6756       27610.00    120793.50
 1178.34        3343.00           6760       25886.00    113225.30
 1178.37        3343.25           6763       24526.00    107257.40
 1178.39        3343.50           6767       22809.00     99725.99
 1178.42        3343.75           6771       21083.00     92158.55
 1178.45        3344.00           6775       18943.00     82780.75
 1178.48        3344.25           6778       17372.00     75899.75
 1178.51        3344.50           6782       15278.00     66732.43
 1178.54        3344.75           6786       13419.00     58598.14
 1178.57        3345.00           6790       11471.00     50078.67
 1178.59        3345.25           6793       10110.00     44129.01
 1178.62        3345.50           6797        8205.00     35804.79
 1178.66        3345.75           6801        6336.00     27641.92
 1178.69        3346.00           6805        4691.00     20460.68
 1178.72        3346.25           6808        3232.00     14094.02
 1178.74        3346.50           6812        1230.00      5361.80
 1178.77        3346.75           6816         236.00      1027.93
 1178.80        3347.00           6819          92.00       400.18
 1178.83        3347.25           6823          66.00       286.84
 1178.85        3347.50           6827          60.00       260.68
 1178.88        3347.75           6831          55.00       238.89
 1178.91        3348.00           6834          59.00       256.32
 1178.94        3348.25           6838          57.00       247.60
 1178.97        3348.50           6842          50.00       217.09
 1178.99        3348.75           6846          45.00       195.29
 1179.02        3349.00           6849          52.00       225.81
 1179.05        3349.25           6853          47.00       204.01
 1179.08        3349.50           6857          48.00       208.37
 1179.10        3349.75           6861          43.00       186.57
 1179.13        3350.00           6864          51.00       221.45
 1179.16        3350.25           6868          52.00       225.81
 1179.19        3350.50           6872          46.00       199.65
 1179.22        3350.75           6876          49.00       212.73
 1179.25        3351.00           6879          50.00       217.09
HL scan finished at 19:40:44
end
