************************************************************
  HL Scan of (1) Internal mercury lamp
************************************************************
Integration time is 0.2294 seconds per sample
dh150518Delft 52.017-4.35 3.018777pr1000
************************************************************
Dead Time -------------------------  2.7E-08 
Number of Cycles Used -------------  4 
Starting Wavelength (Angstroms) ---  3331 
Final Wavelength (Angstoms) -------  3351 
Wavelength Increment (Angstroms) --  .25 
Filter Wheel #1 Position ---------- (1) Ground quartz diffuser (ND=2.32)
Filter Wheel #2 Position ---------- 



************************************************************
HL scan start time = 20:39:11
Dark Count =  .1 


Time (GMT)  Wavelength (Ang)  Step Number  Raw Counts  Counts/Second

 1239.94        3331.00           6579          44.00       191.37
 1240.35        3331.25           6582          48.00       208.81
 1240.38        3331.50           6586          43.00       187.01
 1240.41        3331.75           6590          44.00       191.37
 1240.44        3332.00           6594          45.00       195.73
 1240.46        3332.25           6597          41.00       178.29
 1240.49        3332.50           6601          41.00       178.29
 1240.52        3332.75           6605          41.00       178.29
 1240.55        3333.00           6608          43.00       187.01
 1240.58        3333.25           6612          44.00       191.37
 1240.60        3333.50           6616          44.00       191.37
 1240.63        3333.75           6620          49.00       213.17
 1240.66        3334.00           6623          46.00       200.09
 1240.69        3334.25           6627          47.00       204.45
 1240.72        3334.50           6631          45.00       195.73
 1240.75        3334.75           6635          46.00       200.09
 1240.77        3335.00           6638          49.00       213.17
 1240.80        3335.25           6642          51.00       221.88
 1240.83        3335.50           6646          59.00       256.76
 1240.86        3335.75           6649          59.00       256.76
 1240.89        3336.00           6653          71.00       309.07
 1240.92        3336.25           6657          79.00       343.94
 1240.95        3336.50           6661         667.00      2907.38
 1240.97        3336.75           6664        1970.00      8589.18
 1241.00        3337.00           6668        3766.00     16423.58
 1241.03        3337.25           6672        5540.00     24165.28
 1241.06        3337.50           6676        7220.00     31499.75
 1241.09        3337.75           6679        8804.00     38417.77
 1241.12        3338.00           6683       11054.00     48248.96
 1241.14        3338.25           6687       12821.00     55973.37
 1241.17        3338.50           6690       14439.00     63049.27
 1241.20        3338.75           6694       16493.00     72035.79
 1241.23        3339.00           6698       18355.00     80186.06
 1241.26        3339.25           6702       20590.00     89973.76
 1241.29        3339.50           6705       22094.00     96563.12
 1241.32        3339.75           6709       24086.00    105294.10
 1241.35        3340.00           6713       26219.00    114647.70
 1241.37        3340.25           6717       28105.00    122922.10
 1241.40        3340.50           6720       29543.00    129233.50
 1241.43        3340.75           6724       31070.00    135937.90
 1241.46        3341.00           6728       32824.00    143641.90
 1241.49        3341.25           6732       34494.00    150980.00
 1241.52        3341.50           6735       35011.00    153252.30
 1241.54        3341.75           6739       35083.00    153568.70
 1241.57        3342.00           6743       34742.00    152069.90
 1241.60        3342.25           6747       33351.00    145957.20
 1241.63        3342.50           6750       32026.00    140136.50
 1241.66        3342.75           6754       30194.00    132091.40
 1241.69        3343.00           6758       28328.00    123900.70
 1241.71        3343.25           6761       26802.00    117205.10
 1241.74        3343.50           6765       25127.00    109858.50
 1241.77        3343.75           6769       23034.00    100682.70
 1241.80        3344.00           6773       21160.00     92470.78
 1241.83        3344.25           6776       19503.00     85212.83
 1241.86        3344.50           6780       17190.00     75086.25
 1241.89        3344.75           6784       15230.00     66509.47
 1241.91        3345.00           6788       13269.00     57932.31
 1241.94        3345.25           6791       11471.00     50071.57
 1241.97        3345.50           6795        9422.00     41117.55
 1242.00        3345.75           6799        7736.00     33753.07
 1242.03        3346.00           6803        5941.00     25915.69
 1242.06        3346.25           6806        4530.00     19757.27
 1242.09        3346.50           6810        2678.00     11677.18
 1242.11        3346.75           6814         746.00      3251.81
 1242.14        3347.00           6818         154.00       670.89
 1242.17        3347.25           6821          79.00       343.94
 1242.20        3347.50           6825          71.00       309.07
 1242.23        3347.75           6829          67.00       291.63
 1242.26        3348.00           6833          60.00       261.12
 1242.29        3348.25           6836          54.00       234.96
 1242.31        3348.50           6840          59.00       256.76
 1242.34        3348.75           6844          48.00       208.81
 1242.37        3349.00           6848          50.00       217.53
 1242.40        3349.25           6851          43.00       187.01
 1242.43        3349.50           6855          45.00       195.73
 1242.46        3349.75           6859          46.00       200.09
 1242.48        3350.00           6863          51.00       221.88
 1242.51        3350.25           6866          36.00       156.50
 1242.54        3350.50           6870          46.00       200.09
 1242.57        3350.75           6874          41.00       178.29
 1242.60        3351.00           6878          48.00       208.81
HL scan finished at 20:44:04
end
