************************************************************
  HL Scan of (1) Internal mercury lamp
************************************************************
Integration time is 0.2294 seconds per sample
dh170518Delft 52.017-4.35 2.589593pr1000
************************************************************
Dead Time -------------------------  2.7E-08 
Number of Cycles Used -------------  4 
Starting Wavelength (Angstroms) ---  3331 
Final Wavelength (Angstoms) -------  3351 
Wavelength Increment (Angstroms) --  .25 
Filter Wheel #1 Position ---------- (1) Ground quartz diffuser (ND=2.32)
Filter Wheel #2 Position ---------- 



************************************************************
HL scan start time = 02:22:02
Dark Count =  .1 


Time (GMT)  Wavelength (Ang)  Step Number  Raw Counts  Counts/Second

  142.79        3331.00           6579          41.00       178.29
  143.20        3331.25           6582          40.00       173.93
  143.23        3331.50           6586          39.00       169.57
  143.26        3331.75           6590          40.00       173.93
  143.28        3332.00           6594          43.00       187.01
  143.31        3332.25           6597          43.00       187.01
  143.34        3332.50           6601          43.00       187.01
  143.37        3332.75           6605          41.00       178.29
  143.40        3333.00           6608          38.00       165.21
  143.43        3333.25           6612          43.00       187.01
  143.46        3333.50           6616          43.00       187.01
  143.49        3333.75           6620          35.00       152.14
  143.52        3334.00           6623          40.00       173.93
  143.54        3334.25           6627          38.00       165.21
  143.57        3334.50           6631          45.00       195.73
  143.60        3334.75           6635          39.00       169.57
  143.63        3335.00           6638          51.00       221.88
  143.66        3335.25           6642          50.00       217.53
  143.69        3335.50           6646          48.00       208.81
  143.71        3335.75           6649          56.00       243.68
  143.74        3336.00           6653          59.00       256.76
  143.77        3336.25           6657         102.00       444.21
  143.80        3336.50           6661         850.00      3705.25
  143.83        3336.75           6664        2081.00      9073.28
  143.86        3337.00           6668        3605.00     15721.14
  143.88        3337.25           6672        5082.00     22166.27
  143.91        3337.50           6676        6501.00     28360.42
  143.94        3337.75           6679        7791.00     33993.26
  143.97        3338.00           6683        9290.00     40540.87
  144.00        3338.25           6687       10736.00     46859.17
  144.03        3338.50           6690       11956.00     52191.63
  144.05        3338.75           6694       13403.00     58518.28
  144.08        3339.00           6698       15085.00     65875.13
  144.11        3339.25           6702       16747.00     73147.38
  144.14        3339.50           6705       17904.00     78211.63
  144.17        3339.75           6709       19375.00     84652.29
  144.20        3340.00           6713       20772.00     90771.02
  144.23        3340.25           6717       22292.00     97430.77
  144.26        3340.50           6720       23405.00    102308.80
  144.28        3340.75           6724       24845.00    108621.90
  144.31        3341.00           6728       26235.00    114717.90
  144.34        3341.25           6732       27025.00    118183.40
  144.37        3341.50           6735       27252.00    119179.30
  144.40        3341.75           6739       27214.00    119012.60
  144.43        3342.00           6743       26453.00    115674.10
  144.46        3342.25           6747       25367.00    110911.00
  144.48        3342.50           6750       24078.00    105259.10
  144.51        3342.75           6754       22204.00     97045.14
  144.54        3343.00           6758       21123.00     92308.68
  144.57        3343.25           6761       19913.00     87008.44
  144.60        3343.50           6765       18672.00     81573.98
  144.63        3343.75           6769       17162.00     74963.71
  144.66        3344.00           6773       15437.00     67415.11
  144.69        3344.25           6776       14136.00     61723.97
  144.72        3344.50           6780       12623.00     55107.66
  144.74        3344.75           6784       11058.00     48266.44
  144.77        3345.00           6788        9604.00     41912.71
  144.80        3345.25           6791        8446.00     36854.01
  144.83        3345.50           6795        6833.00     29809.95
  144.86        3345.75           6799        5391.00     23514.93
  144.89        3346.00           6803        3974.00     17331.12
  144.92        3346.25           6806        2773.00     12091.57
  144.95        3346.50           6810        1233.00      5375.24
  144.97        3346.75           6814         244.00      1063.24
  145.00        3347.00           6818          82.00       357.02
  145.03        3347.25           6821          62.00       269.84
  145.06        3347.50           6825          58.00       252.40
  145.09        3347.75           6829          53.00       230.60
  145.12        3348.00           6833          48.00       208.81
  145.15        3348.25           6836          54.00       234.96
  145.17        3348.50           6840          51.00       221.88
  145.20        3348.75           6844          41.00       178.29
  145.23        3349.00           6848          42.00       182.65
  145.26        3349.25           6851          42.00       182.65
  145.29        3349.50           6855          41.00       178.29
  145.31        3349.75           6859          39.00       169.57
  145.34        3350.00           6863          43.00       187.01
  145.37        3350.25           6866          46.00       200.09
  145.40        3350.50           6870          46.00       200.09
  145.43        3350.75           6874          38.00       165.21
  145.46        3351.00           6878          38.00       165.21
HL scan finished at 02:26:56
end
************************************************************
  HL Scan of (1) Internal mercury lamp
************************************************************
Integration time is 0.2294 seconds per sample
dh170518Delft 52.017-4.35 2.589593pr1000
************************************************************
Dead Time -------------------------  2.7E-08 
Number of Cycles Used -------------  4 
Starting Wavelength (Angstroms) ---  3331 
Final Wavelength (Angstoms) -------  3351 
Wavelength Increment (Angstroms) --  .25 
Filter Wheel #1 Position ---------- (1) Ground quartz diffuser (ND=2.32)
Filter Wheel #2 Position ---------- 



************************************************************
HL scan start time = 20:41:09
Dark Count =  0 


Time (GMT)  Wavelength (Ang)  Step Number  Raw Counts  Counts/Second

 1241.91        3331.00           6579          44.00       191.81
 1242.32        3331.25           6582          46.00       200.52
 1242.35        3331.50           6586          38.00       165.65
 1242.37        3331.75           6590          47.00       204.88
 1242.40        3332.00           6594          39.00       170.01
 1242.43        3332.25           6597          39.00       170.01
 1242.46        3332.50           6601          39.00       170.01
 1242.49        3332.75           6605          42.00       183.09
 1242.52        3333.00           6608          38.00       165.65
 1242.54        3333.25           6612          38.00       165.65
 1242.57        3333.50           6616          40.00       174.37
 1242.60        3333.75           6620          45.00       196.16
 1242.63        3334.00           6623          40.00       174.37
 1242.66        3334.25           6627          41.00       178.73
 1242.69        3334.50           6631          41.00       178.73
 1242.71        3334.75           6635          46.00       200.52
 1242.74        3335.00           6638          42.00       183.09
 1242.77        3335.25           6642          45.00       196.16
 1242.80        3335.50           6646          53.00       231.04
 1242.83        3335.75           6649          51.00       222.32
 1242.85        3336.00           6653          57.00       248.48
 1242.88        3336.25           6657         123.00       536.19
 1242.91        3336.50           6661         932.00      4063.22
 1242.94        3336.75           6664        1929.00      8410.80
 1242.97        3337.00           6668        3278.00     14294.97
 1243.00        3337.25           6672        4542.00     19810.07
 1243.02        3337.50           6676        5856.00     25545.08
 1243.05        3337.75           6679        7004.00     30557.02
 1243.08        3338.00           6683        8561.00     37356.76
 1243.11        3338.25           6687       10363.00     45229.57
 1243.14        3338.50           6690       11500.00     50198.77
 1243.17        3338.75           6694       12792.00     55847.01
 1243.20        3339.00           6698       14137.00     61728.78
 1243.22        3339.25           6702       15613.00     68185.57
 1243.25        3339.50           6705       16923.00     73918.10
 1243.28        3339.75           6709       18112.00     79122.65
 1243.31        3340.00           6713       19521.00     85292.09
 1243.34        3340.25           6717       20976.00     91665.12
 1243.37        3340.50           6720       22031.00     96287.49
 1243.39        3340.75           6724       23670.00    103470.90
 1243.42        3341.00           6728       25118.00    109819.50
 1243.45        3341.25           6732       25909.00    113288.50
 1243.48        3341.50           6735       26047.00    113893.70
 1243.51        3341.75           6739       26068.00    113985.90
 1243.54        3342.00           6743       25585.00    111867.50
 1243.56        3342.25           6747       24418.00    106750.10
 1243.59        3342.50           6750       23523.00    102826.50
 1243.62        3342.75           6754       22134.00     96738.84
 1243.65        3343.00           6758       20425.00     89251.44
 1243.68        3343.25           6761       19198.00     83877.63
 1243.71        3343.50           6765       17908.00     78229.58
 1243.73        3343.75           6769       16476.00     71961.84
 1243.76        3344.00           6773       14975.00     65394.35
 1243.79        3344.25           6776       13858.00     60508.54
 1243.82        3344.50           6780       12418.00     54211.82
 1243.85        3344.75           6784       10891.00     47537.01
 1243.88        3345.00           6788        9545.00     41655.37
 1243.90        3345.25           6791        8420.00     36740.88
 1243.93        3345.50           6795        6762.00     29500.38
 1243.96        3345.75           6799        5216.00     22751.55
 1243.99        3346.00           6803        3633.00     15843.74
 1244.02        3346.25           6806        2576.00     11232.70
 1244.05        3346.50           6810        1197.00      5218.70
 1244.07        3346.75           6814         245.00      1068.03
 1244.10        3347.00           6818          79.00       344.38
 1244.13        3347.25           6821          61.00       265.91
 1244.16        3347.50           6825          57.00       248.48
 1244.19        3347.75           6829          47.00       204.88
 1244.22        3348.00           6833          51.00       222.32
 1244.24        3348.25           6836          54.00       235.40
 1244.27        3348.50           6840          42.00       183.09
 1244.30        3348.75           6844          43.00       187.45
 1244.33        3349.00           6848          41.00       178.73
 1244.36        3349.25           6851          39.00       170.01
 1244.39        3349.50           6855          35.00       152.57
 1244.41        3349.75           6859          42.00       183.09
 1244.44        3350.00           6863          39.00       170.01
 1244.47        3350.25           6866          40.00       174.37
 1244.50        3350.50           6870          40.00       174.37
 1244.53        3350.75           6874          43.00       187.45
 1244.55        3351.00           6878          42.00       183.09
HL scan finished at 20:46:02
end
