************************************************************
  HL Scan of (1) Internal mercury lamp
************************************************************
Integration time is 0.2294 seconds per sample
dh190518Delft 52.017-4.35 2.589593pr1000
************************************************************
Dead Time -------------------------  2.7E-08 
Number of Cycles Used -------------  4 
Starting Wavelength (Angstroms) ---  3331 
Final Wavelength (Angstoms) -------  3351 
Wavelength Increment (Angstroms) --  .25 
Filter Wheel #1 Position ---------- (1) Ground quartz diffuser (ND=2.32)
Filter Wheel #2 Position ---------- 



************************************************************
HL scan start time = 01:48:37
Dark Count =  .1 


Time (GMT)  Wavelength (Ang)  Step Number  Raw Counts  Counts/Second

  109.37        3331.00           6579          47.00       204.45
  109.78        3331.25           6582          46.00       200.09
  109.81        3331.50           6586          44.00       191.37
  109.84        3331.75           6590          45.00       195.73
  109.87        3332.00           6594          41.00       178.29
  109.89        3332.25           6597          39.00       169.57
  109.92        3332.50           6601          41.00       178.29
  109.95        3332.75           6605          44.00       191.37
  109.98        3333.00           6608          42.00       182.65
  110.01        3333.25           6612          41.00       178.29
  110.03        3333.50           6616          39.00       169.57
  110.06        3333.75           6620          41.00       178.29
  110.09        3334.00           6623          45.00       195.73
  110.12        3334.25           6627          38.00       165.21
  110.15        3334.50           6631          43.00       187.01
  110.17        3334.75           6635          44.00       191.37
  110.20        3335.00           6638          48.00       208.81
  110.23        3335.25           6642          56.00       243.68
  110.26        3335.50           6646          61.00       265.48
  110.29        3335.75           6649          58.00       252.40
  110.32        3336.00           6653          62.00       269.84
  110.34        3336.25           6657          88.00       383.18
  110.37        3336.50           6661         519.00      2262.13
  110.40        3336.75           6664        1567.00      6831.69
  110.43        3337.00           6668        3113.00     13574.72
  110.46        3337.25           6672        4590.00     20019.10
  110.49        3337.50           6676        6023.00     26273.65
  110.52        3337.75           6679        7192.00     31377.49
  110.54        3338.00           6683        8866.00     38688.61
  110.57        3338.25           6687       10645.00     46461.48
  110.60        3338.50           6690       12196.00     53240.82
  110.63        3338.75           6694       13791.00     60215.08
  110.66        3339.00           6698       15350.00     67034.48
  110.68        3339.25           6702       17025.00     74364.08
  110.71        3339.50           6705       18221.00     79599.41
  110.74        3339.75           6709       19650.00     85856.59
  110.77        3340.00           6713       20903.00     91344.88
  110.80        3340.25           6717       22370.00     97772.59
  110.83        3340.50           6720       23894.00    104452.40
  110.85        3340.75           6724       25559.00    111753.00
  110.88        3341.00           6728       27040.00    118249.20
  110.91        3341.25           6732       28071.00    122772.90
  110.94        3341.50           6735       28071.00    122772.90
  110.97        3341.75           6739       28166.00    123189.80
  111.00        3342.00           6743       27981.00    122378.00
  111.02        3342.25           6747       26622.00    116415.50
  111.05        3342.50           6750       25684.00    112301.20
  111.08        3342.75           6754       24025.00    105026.70
  111.11        3343.00           6758       22525.00     98451.85
  111.14        3343.25           6761       21196.00     92628.50
  111.17        3343.50           6765       19595.00     85615.74
  111.20        3343.75           6769       17965.00     78478.68
  111.22        3344.00           6773       16405.00     71650.69
  111.25        3344.25           6776       15120.00     66028.25
  111.28        3344.50           6780       13590.00     59336.05
  111.31        3344.75           6784       11963.00     52222.23
  111.34        3345.00           6788       10372.00     45268.46
  111.36        3345.25           6791        9293.00     40553.97
  111.39        3345.50           6795        7687.00     33539.08
  111.42        3345.75           6799        5961.00     26002.99
  111.45        3346.00           6803        4177.00     18216.89
  111.48        3346.25           6806        2891.00     12606.30
  111.51        3346.50           6810        1557.00      6788.08
  111.53        3346.75           6814         462.00      2013.62
  111.56        3347.00           6818         124.00       540.11
  111.59        3347.25           6821          73.00       317.79
  111.62        3347.50           6825          56.00       243.68
  111.65        3347.75           6829          54.00       234.96
  111.67        3348.00           6833          50.00       217.53
  111.70        3348.25           6836          52.00       226.24
  111.73        3348.50           6840          48.00       208.81
  111.76        3348.75           6844          43.00       187.01
  111.79        3349.00           6848          46.00       200.09
  111.82        3349.25           6851          48.00       208.81
  111.84        3349.50           6855          43.00       187.01
  111.87        3349.75           6859          42.00       182.65
  111.90        3350.00           6863          45.00       195.73
  111.93        3350.25           6866          40.00       173.93
  111.96        3350.50           6870          45.00       195.73
  111.99        3350.75           6874          44.00       191.37
  112.01        3351.00           6878          45.00       195.73
HL scan finished at 01:53:30
end
************************************************************
  HL Scan of (1) Internal mercury lamp
************************************************************
Integration time is 0.2294 seconds per sample
dh190518Delft 52.017-4.35 2.750537pr1000
************************************************************
Dead Time -------------------------  2.7E-08 
Number of Cycles Used -------------  4 
Starting Wavelength (Angstroms) ---  3331 
Final Wavelength (Angstoms) -------  3351 
Wavelength Increment (Angstroms) --  .25 
Filter Wheel #1 Position ---------- (1) Ground quartz diffuser (ND=2.32)
Filter Wheel #2 Position ---------- 



************************************************************
HL scan start time = 20:48:28
Dark Count =  .1 


Time (GMT)  Wavelength (Ang)  Step Number  Raw Counts  Counts/Second

 1249.23        3331.00           6579          43.00       187.01
 1249.64        3331.25           6582          42.00       182.65
 1249.67        3331.50           6586          40.00       173.93
 1249.69        3331.75           6590          45.00       195.73
 1249.72        3332.00           6594          47.00       204.45
 1249.75        3332.25           6597          40.00       173.93
 1249.78        3332.50           6601          42.00       182.65
 1249.81        3332.75           6605          38.00       165.21
 1249.84        3333.00           6608          51.00       221.88
 1249.86        3333.25           6612          44.00       191.37
 1249.89        3333.50           6616          40.00       173.93
 1249.92        3333.75           6620          41.00       178.29
 1249.95        3334.00           6623          42.00       182.65
 1249.98        3334.25           6627          40.00       173.93
 1250.01        3334.50           6631          45.00       195.73
 1250.03        3334.75           6635          48.00       208.81
 1250.06        3335.00           6638          44.00       191.37
 1250.09        3335.25           6642          53.00       230.60
 1250.12        3335.50           6646          52.00       226.24
 1250.14        3335.75           6649          66.00       287.27
 1250.17        3336.00           6653          62.00       269.84
 1250.20        3336.25           6657         112.00       487.80
 1250.23        3336.50           6661         745.00      3247.45
 1250.26        3336.75           6664        1906.00      8310.06
 1250.29        3337.00           6668        3599.00     15694.97
 1250.31        3337.25           6672        5599.00     24422.81
 1250.34        3337.50           6676        7499.00     32718.08
 1250.37        3337.75           6679        8795.00     38378.46
 1250.40        3338.00           6683       10497.00     45814.71
 1250.43        3338.25           6687       12473.00     54451.84
 1250.46        3338.50           6690       13655.00     59620.31
 1250.48        3338.75           6694       15404.00     67270.72
 1250.51        3339.00           6698       16963.00     74092.71
 1250.54        3339.25           6702       18612.00     81311.28
 1250.57        3339.50           6705       20172.00     88142.82
 1250.60        3339.75           6709       22127.00     96707.72
 1250.62        3340.00           6713       23834.00    104189.40
 1250.65        3340.25           6717       25334.00    110766.30
 1250.68        3340.50           6720       26368.00    115301.30
 1250.71        3340.75           6724       28036.00    122619.30
 1250.74        3341.00           6728       29795.00    130339.80
 1250.77        3341.25           6732       30753.00    134545.90
 1250.79        3341.50           6735       30769.00    134616.10
 1250.82        3341.75           6739       30877.00    135090.40
 1250.85        3342.00           6743       30212.00    132170.50
 1250.88        3342.25           6747       28732.00    125673.80
 1250.91        3342.50           6750       27300.00    119389.90
 1250.94        3342.75           6754       25442.00    111239.90
 1250.96        3343.00           6758       23866.00    104329.70
 1250.99        3343.25           6761       22636.00     98938.32
 1251.02        3343.50           6765       20911.00     91379.93
 1251.05        3343.75           6769       19234.00     84034.84
 1251.08        3344.00           6773       17667.00     77174.16
 1251.11        3344.25           6776       16246.00     70954.90
 1251.13        3344.50           6780       14595.00     63731.64
 1251.16        3344.75           6784       12568.00     54867.19
 1251.19        3345.00           6788       10697.00     46688.73
 1251.22        3345.25           6791        9488.00     41405.90
 1251.25        3345.50           6795        7659.00     33416.80
 1251.28        3345.75           6799        6145.00     26806.23
 1251.30        3346.00           6803        4368.00     19050.34
 1251.33        3346.25           6806        3019.00     13164.66
 1251.36        3346.50           6810        1488.00      6487.19
 1251.39        3346.75           6814         404.00      1760.76
 1251.42        3347.00           6818          98.00       426.77
 1251.44        3347.25           6821          71.00       309.07
 1251.47        3347.50           6825          60.00       261.12
 1251.50        3347.75           6829          57.00       248.04
 1251.53        3348.00           6833          52.00       226.24
 1251.56        3348.25           6836          52.00       226.24
 1251.59        3348.50           6840          44.00       191.37
 1251.61        3348.75           6844          45.00       195.73
 1251.64        3349.00           6848          46.00       200.09
 1251.67        3349.25           6851          43.00       187.01
 1251.70        3349.50           6855          41.00       178.29
 1251.73        3349.75           6859          43.00       187.01
 1251.75        3350.00           6863          43.00       187.01
 1251.78        3350.25           6866          45.00       195.73
 1251.81        3350.50           6870          39.00       169.57
 1251.84        3350.75           6874          48.00       208.81
 1251.87        3351.00           6878          43.00       187.01
HL scan finished at 20:53:21
end
