************************************************************
  HL Scan of (1) Internal mercury lamp
************************************************************
Integration time is 0.2294 seconds per sample
dh180518Delft 52.017-4.35 2.428648pr1000
************************************************************
Dead Time -------------------------  2.7E-08 
Number of Cycles Used -------------  4 
Starting Wavelength (Angstroms) ---  3331 
Final Wavelength (Angstoms) -------  3351 
Wavelength Increment (Angstroms) --  .25 
Filter Wheel #1 Position ---------- (1) Ground quartz diffuser (ND=2.32)
Filter Wheel #2 Position ---------- 



************************************************************
HL scan start time = 00:32:37
Dark Count =  0 


Time (GMT)  Wavelength (Ang)  Step Number  Raw Counts  Counts/Second

   33.38        3331.00           6579          37.00       161.29
   33.79        3331.25           6582          41.00       178.73
   33.82        3331.50           6586          45.00       196.16
   33.85        3331.75           6590          31.00       135.14
   33.88        3332.00           6594          41.00       178.73
   33.90        3332.25           6597          40.00       174.37
   33.93        3332.50           6601          43.00       187.45
   33.96        3332.75           6605          45.00       196.16
   33.99        3333.00           6608          40.00       174.37
   34.02        3333.25           6612          42.00       183.09
   34.05        3333.50           6616          41.00       178.73
   34.07        3333.75           6620          36.00       156.93
   34.10        3334.00           6623          42.00       183.09
   34.13        3334.25           6627          45.00       196.16
   34.16        3334.50           6631          43.00       187.45
   34.19        3334.75           6635          51.00       222.32
   34.22        3335.00           6638          40.00       174.37
   34.25        3335.25           6642          57.00       248.48
   34.27        3335.50           6646          64.00       278.99
   34.30        3335.75           6649          55.00       239.76
   34.33        3336.00           6653          63.00       274.63
   34.36        3336.25           6657         104.00       453.36
   34.39        3336.50           6661         805.00      3509.49
   34.41        3336.75           6664        1988.00      8668.11
   34.44        3337.00           6668        3506.00     15289.66
   34.47        3337.25           6672        5137.00     22406.75
   34.50        3337.50           6676        6575.00     28683.93
   34.53        3337.75           6679        7755.00     33836.48
   34.56        3338.00           6683        9468.00     41318.96
   34.58        3338.25           6687       11068.00     48310.58
   34.61        3338.50           6690       12289.00     53647.84
   34.64        3338.75           6694       13806.00     60281.12
   34.67        3339.00           6698       15283.00     66741.79
   34.70        3339.25           6702       17190.00     75086.69
   34.73        3339.50           6705       18448.00     80593.68
   34.76        3339.75           6709       20053.00     87622.05
   34.78        3340.00           6713       21627.00     94517.28
   34.81        3340.25           6717       23236.00    101568.50
   34.84        3340.50           6720       24409.00    106710.70
   34.87        3340.75           6724       25555.00    111735.90
   34.90        3341.00           6728       27067.00    118368.10
   34.93        3341.25           6732       28177.00    123238.50
   34.95        3341.50           6735       28242.00    123523.80
   34.98        3341.75           6739       28304.00    123795.90
   35.01        3342.00           6743       27663.00    120983.10
   35.04        3342.25           6747       26511.00    115929.00
   35.07        3342.50           6750       25253.00    110411.50
   35.10        3342.75           6754       23800.00    104040.80
   35.12        3343.00           6758       22134.00     96738.84
   35.15        3343.25           6761       20926.00     91446.08
   35.18        3343.50           6765       19607.00     85668.72
   35.21        3343.75           6769       18063.00     78908.13
   35.24        3344.00           6773       16395.00     71607.37
   35.27        3344.25           6776       15182.00     66299.93
   35.29        3344.50           6780       13310.00     58112.03
   35.32        3344.75           6784       11588.00     50583.43
   35.35        3345.00           6788       10019.00     43726.40
   35.38        3345.25           6791        8765.00     38247.85
   35.41        3345.50           6795        7153.00     31207.63
   35.44        3345.75           6799        5568.00     24287.94
   35.46        3346.00           6803        4106.00     17907.52
   35.49        3346.25           6806        2938.00     12811.76
   35.52        3346.50           6810        1451.00      6326.28
   35.55        3346.75           6814         342.00      1490.91
   35.58        3347.00           6818          81.00       353.10
   35.61        3347.25           6821          61.00       265.91
   35.63        3347.50           6825          61.00       265.91
   35.66        3347.75           6829          52.00       226.68
   35.69        3348.00           6833          45.00       196.16
   35.72        3348.25           6836          47.00       204.88
   35.75        3348.50           6840          45.00       196.16
   35.78        3348.75           6844          46.00       200.52
   35.80        3349.00           6848          49.00       213.60
   35.83        3349.25           6851          44.00       191.81
   35.86        3349.50           6855          45.00       196.16
   35.89        3349.75           6859          40.00       174.37
   35.92        3350.00           6863          46.00       200.52
   35.95        3350.25           6866          45.00       196.16
   35.97        3350.50           6870          39.00       170.01
   36.00        3350.75           6874          42.00       183.09
   36.03        3351.00           6878          38.00       165.65
HL scan finished at 00:37:31
end
************************************************************
  HL Scan of (1) Internal mercury lamp
************************************************************
Integration time is 0.2294 seconds per sample
dh180518Delft 52.017-4.35 2.482296pr1000
************************************************************
Dead Time -------------------------  2.7E-08 
Number of Cycles Used -------------  4 
Starting Wavelength (Angstroms) ---  3331 
Final Wavelength (Angstoms) -------  3351 
Wavelength Increment (Angstroms) --  .25 
Filter Wheel #1 Position ---------- (1) Ground quartz diffuser (ND=2.32)
Filter Wheel #2 Position ---------- 



************************************************************
HL scan start time = 01:48:55
Dark Count =  0 


Time (GMT)  Wavelength (Ang)  Step Number  Raw Counts  Counts/Second

  109.68        3331.00           6579          41.00       178.73
  110.09        3331.25           6582          40.00       174.37
  110.12        3331.50           6586          38.00       165.65
  110.15        3331.75           6590          42.00       183.09
  110.17        3332.00           6594          40.00       174.37
  110.20        3332.25           6597          37.00       161.29
  110.23        3332.50           6601          40.00       174.37
  110.26        3332.75           6605          40.00       174.37
  110.29        3333.00           6608          40.00       174.37
  110.32        3333.25           6612          41.00       178.73
  110.34        3333.50           6616          43.00       187.45
  110.37        3333.75           6620          39.00       170.01
  110.40        3334.00           6623          45.00       196.16
  110.43        3334.25           6627          36.00       156.93
  110.46        3334.50           6631          40.00       174.37
  110.48        3334.75           6635          36.00       156.93
  110.51        3335.00           6638          42.00       183.09
  110.54        3335.25           6642          48.00       209.24
  110.57        3335.50           6646          51.00       222.32
  110.60        3335.75           6649          57.00       248.48
  110.63        3336.00           6653          61.00       265.91
  110.65        3336.25           6657         104.00       453.36
  110.68        3336.50           6661         698.00      3042.97
  110.71        3336.75           6664        1608.00      7010.92
  110.74        3337.00           6668        2986.00     13021.14
  110.77        3337.25           6672        4271.00     18627.50
  110.80        3337.50           6676        5546.00     24191.91
  110.83        3337.75           6679        6549.00     28570.42
  110.85        3338.00           6683        8069.00     35207.82
  110.88        3338.25           6687        9602.00     41904.40
  110.91        3338.50           6690       11023.00     48113.91
  110.94        3338.75           6694       12394.00     54106.89
  110.97        3339.00           6698       13697.00     59804.42
  111.00        3339.25           6702       15164.00     66221.18
  111.02        3339.50           6705       16162.00     70587.77
  111.05        3339.75           6709       17496.00     76426.08
  111.08        3340.00           6713       18551.00     81044.63
  111.11        3340.25           6717       20014.00     87451.24
  111.14        3340.50           6720       21118.00     92287.21
  111.17        3340.75           6724       22486.00     98281.39
  111.20        3341.00           6728       23813.00    104097.80
  111.22        3341.25           6732       24403.00    106684.40
  111.25        3341.50           6735       24580.00    107460.40
  111.28        3341.75           6739       24594.00    107521.80
  111.31        3342.00           6743       23936.00    104637.00
  111.34        3342.25           6747       22946.00    100297.40
  111.37        3342.50           6750       22228.00     97150.75
  111.40        3342.75           6754       20659.00     90276.46
  111.42        3343.00           6758       19394.00     84735.93
  111.45        3343.25           6761       18129.00     79197.07
  111.48        3343.50           6765       16863.00     73655.49
  111.51        3343.75           6769       15397.00     67240.53
  111.54        3344.00           6773       13992.00     61094.60
  111.57        3344.25           6776       12764.00     55724.59
  111.59        3344.50           6780       11457.00     50010.82
  111.62        3344.75           6784       10099.00     44075.96
  111.65        3345.00           6788        8758.00     38217.27
  111.68        3345.25           6791        7729.00     33722.93
  111.71        3345.50           6795        6428.00     28042.15
  111.74        3345.75           6799        4884.00     21302.57
  111.76        3346.00           6803        3349.00     14604.71
  111.79        3346.25           6806        2337.00     10190.25
  111.82        3346.50           6810        1066.00      4647.49
  111.85        3346.75           6814         282.00      1229.33
  111.88        3347.00           6818          77.00       335.66
  111.91        3347.25           6821          63.00       274.63
  111.93        3347.50           6825          55.00       239.76
  111.96        3347.75           6829          55.00       239.76
  111.99        3348.00           6833          44.00       191.81
  112.02        3348.25           6836          48.00       209.24
  112.05        3348.50           6840          45.00       196.16
  112.08        3348.75           6844          45.00       196.16
  112.11        3349.00           6848          44.00       191.81
  112.13        3349.25           6851          44.00       191.81
  112.16        3349.50           6855          38.00       165.65
  112.19        3349.75           6859          40.00       174.37
  112.22        3350.00           6863          43.00       187.45
  112.25        3350.25           6866          36.00       156.93
  112.27        3350.50           6870          42.00       183.09
  112.30        3350.75           6874          48.00       209.24
  112.33        3351.00           6878          43.00       187.45
HL scan finished at 01:53:48
end
************************************************************
  HL Scan of (1) Internal mercury lamp
************************************************************
Integration time is 0.2294 seconds per sample
dh180518Delft 52.017-4.35 2.696889pr1000
************************************************************
Dead Time -------------------------  2.7E-08 
Number of Cycles Used -------------  4 
Starting Wavelength (Angstroms) ---  3331 
Final Wavelength (Angstoms) -------  3351 
Wavelength Increment (Angstroms) --  .25 
Filter Wheel #1 Position ---------- (1) Ground quartz diffuser (ND=2.32)
Filter Wheel #2 Position ---------- 



************************************************************
HL scan start time = 20:45:52
Dark Count =  .1 


Time (GMT)  Wavelength (Ang)  Step Number  Raw Counts  Counts/Second

 1246.64        3331.00           6579          45.00       195.73
 1247.04        3331.25           6582          44.00       191.37
 1247.07        3331.50           6586          46.00       200.09
 1247.10        3331.75           6590          47.00       204.45
 1247.13        3332.00           6594          40.00       173.93
 1247.16        3332.25           6597          42.00       182.65
 1247.18        3332.50           6601          40.00       173.93
 1247.21        3332.75           6605          40.00       173.93
 1247.24        3333.00           6608          38.00       165.21
 1247.27        3333.25           6612          40.00       173.93
 1247.30        3333.50           6616          41.00       178.29
 1247.32        3333.75           6620          47.00       204.45
 1247.35        3334.00           6623          43.00       187.01
 1247.38        3334.25           6627          42.00       182.65
 1247.41        3334.50           6631          46.00       200.09
 1247.44        3334.75           6635          44.00       191.37
 1247.47        3335.00           6638          49.00       213.17
 1247.49        3335.25           6642          51.00       221.88
 1247.52        3335.50           6646          52.00       226.24
 1247.55        3335.75           6649          55.00       239.32
 1247.58        3336.00           6653          62.00       269.84
 1247.61        3336.25           6657         148.00       644.74
 1247.64        3336.50           6661        1076.00      4690.66
 1247.66        3336.75           6664        2062.00      8990.41
 1247.69        3337.00           6668        3538.00     15428.83
 1247.72        3337.25           6672        4972.00     21686.19
 1247.75        3337.50           6676        6501.00     28360.42
 1247.78        3337.75           6679        7825.00     34141.75
 1247.81        3338.00           6683        9727.00     42450.11
 1247.84        3338.25           6687       11405.00     49783.09
 1247.86        3338.50           6690       12530.00     54701.05
 1247.89        3338.75           6694       14197.00     61990.77
 1247.92        3339.00           6698       15883.00     69366.51
 1247.95        3339.25           6702       17459.00     76263.68
 1247.98        3339.50           6705       18723.00     81797.28
 1248.00        3339.75           6709       20277.00     88602.74
 1248.03        3340.00           6713       21865.00     95559.66
 1248.06        3340.25           6717       23366.00    102137.90
 1248.09        3340.50           6720       24988.00    109249.00
 1248.12        3340.75           6724       26534.00    116029.50
 1248.15        3341.00           6728       27925.00    122132.30
 1248.17        3341.25           6732       29034.00    126999.30
 1248.20        3341.50           6735       28923.00    126512.10
 1248.23        3341.75           6739       28976.00    126744.70
 1248.26        3342.00           6743       28670.00    125401.70
 1248.29        3342.25           6747       27381.00    119745.30
 1248.32        3342.50           6750       26391.00    115402.20
 1248.35        3342.75           6754       24430.00    106802.30
 1248.37        3343.00           6758       22689.00     99170.59
 1248.40        3343.25           6761       21668.00     94696.48
 1248.43        3343.50           6765       19915.00     87017.19
 1248.46        3343.75           6769       18519.00     80904.09
 1248.49        3344.00           6773       16828.00     73501.87
 1248.52        3344.25           6776       15667.00     68421.41
 1248.54        3344.50           6780       13950.00     60910.47
 1248.57        3344.75           6784       12429.00     54259.47
 1248.60        3345.00           6788       10566.00     46116.24
 1248.63        3345.25           6791        9347.00     40789.89
 1248.66        3345.50           6795        7486.00     32661.31
 1248.68        3345.75           6799        5681.00     24780.75
 1248.71        3346.00           6803        4062.00     17715.10
 1248.74        3346.25           6806        2920.00     12732.80
 1248.77        3346.50           6810        1264.00      5510.41
 1248.80        3346.75           6814         277.00      1207.10
 1248.83        3347.00           6818          85.00       370.10
 1248.85        3347.25           6821          68.00       295.99
 1248.88        3347.50           6825          64.00       278.55
 1248.91        3347.75           6829          61.00       265.48
 1248.94        3348.00           6833          54.00       234.96
 1248.97        3348.25           6836          50.00       217.53
 1249.00        3348.50           6840          41.00       178.29
 1249.02        3348.75           6844          50.00       217.53
 1249.05        3349.00           6848          50.00       217.53
 1249.08        3349.25           6851          46.00       200.09
 1249.11        3349.50           6855          43.00       187.01
 1249.14        3349.75           6859          47.00       204.45
 1249.17        3350.00           6863          43.00       187.01
 1249.19        3350.25           6866          47.00       204.45
 1249.22        3350.50           6870          41.00       178.29
 1249.25        3350.75           6874          45.00       195.73
 1249.28        3351.00           6878          43.00       187.01
HL scan finished at 20:50:45
end
