************************************************************
  HL Scan of (1) Internal mercury lamp
************************************************************
Integration time is 0.2294 seconds per sample
dh230518Delft 52.017-4.35 2.911481pr1000
************************************************************
Dead Time -------------------------  2.7E-08 
Number of Cycles Used -------------  4 
Starting Wavelength (Angstroms) ---  3331 
Final Wavelength (Angstoms) -------  3351 
Wavelength Increment (Angstroms) --  .25 
Filter Wheel #1 Position ---------- (1) Ground quartz diffuser (ND=2.32)
Filter Wheel #2 Position ---------- 



************************************************************
HL scan start time = 03:09:22
Dark Count =  .1 


Time (GMT)  Wavelength (Ang)  Step Number  Raw Counts  Counts/Second

  190.14        3331.00           6579          48.00       208.81
  190.54        3331.25           6582          45.00       195.73
  190.57        3331.50           6586          42.00       182.65
  190.60        3331.75           6590          44.00       191.37
  190.63        3332.00           6594          39.00       169.57
  190.66        3332.25           6597          48.00       208.81
  190.69        3332.50           6601          44.00       191.37
  190.72        3332.75           6605          44.00       191.37
  190.74        3333.00           6608          46.00       200.09
  190.77        3333.25           6612          47.00       204.45
  190.80        3333.50           6616          46.00       200.09
  190.83        3333.75           6620          34.00       147.78
  190.86        3334.00           6623          47.00       204.45
  190.89        3334.25           6627          42.00       182.65
  190.91        3334.50           6631          49.00       213.17
  190.94        3334.75           6635          54.00       234.96
  190.97        3335.00           6638          49.00       213.17
  191.00        3335.25           6642          54.00       234.96
  191.03        3335.50           6646          61.00       265.48
  191.06        3335.75           6649          59.00       256.76
  191.08        3336.00           6653          68.00       295.99
  191.12        3336.25           6657         114.00       496.52
  191.14        3336.50           6661         864.00      3766.29
  191.17        3336.75           6664        2220.00      9679.51
  191.20        3337.00           6668        3994.00     17418.39
  191.23        3337.25           6672        5678.00     24767.65
  191.26        3337.50           6676        7356.00     32093.62
  191.29        3337.75           6679        8571.00     37400.00
  191.31        3338.00           6683       10685.00     46636.28
  191.35        3338.25           6687       12958.00     56572.40
  191.37        3338.50           6690       14348.00     62651.23
  191.40        3338.75           6694       16337.00     71353.12
  191.43        3339.00           6698       18006.00     78658.16
  191.46        3339.25           6702       20056.00     87634.75
  191.49        3339.50           6705       21696.00     94819.16
  191.51        3339.75           6709       23246.00    101611.90
  191.54        3340.00           6713       25097.00    109727.00
  191.57        3340.25           6717       27152.00    118740.60
  191.60        3340.50           6720       28320.00    123865.60
  191.63        3340.75           6724       30266.00    132407.60
  191.66        3341.00           6728       32266.00    141190.70
  191.68        3341.25           6732       33502.00    146620.70
  191.71        3341.50           6735       33991.00    148769.40
  191.74        3341.75           6739       33733.00    147635.70
  191.77        3342.00           6743       33407.00    146203.30
  191.80        3342.25           6747       32216.00    140971.00
  191.82        3342.50           6750       30871.00    135064.00
  191.85        3342.75           6754       29113.00    127346.00
  191.88        3343.00           6758       26984.00    118003.50
  191.91        3343.25           6761       25597.00    111919.70
  191.94        3343.50           6765       23721.00    103694.00
  191.97        3343.75           6769       21730.00     94968.13
  191.99        3344.00           6773       19987.00     87332.54
  192.02        3344.25           6776       18581.00     81175.55
  192.05        3344.50           6780       16577.00     72403.40
  192.08        3344.75           6784       14667.00     64046.58
  192.11        3345.00           6788       12817.00     55955.88
  192.14        3345.25           6791       11301.00     49328.52
  192.16        3345.50           6795        9404.00     41038.91
  192.19        3345.75           6799        7228.00     31534.68
  192.22        3346.00           6803        5083.00     22170.64
  192.25        3346.25           6806        3635.00     15852.03
  192.28        3346.50           6810        1928.00      8406.01
  192.31        3346.75           6814         481.00      2096.46
  192.33        3347.00           6818         111.00       483.44
  192.36        3347.25           6821          77.00       335.23
  192.39        3347.50           6825          64.00       278.55
  192.42        3347.75           6829          64.00       278.55
  192.44        3348.00           6833          51.00       221.88
  192.47        3348.25           6836          55.00       239.32
  192.50        3348.50           6840          44.00       191.37
  192.53        3348.75           6844          55.00       239.32
  192.56        3349.00           6848          54.00       234.96
  192.59        3349.25           6851          45.00       195.73
  192.61        3349.50           6855          48.00       208.81
  192.64        3349.75           6859          45.00       195.73
  192.67        3350.00           6863          40.00       173.93
  192.70        3350.25           6866          49.00       213.17
  192.73        3350.50           6870          50.00       217.53
  192.76        3350.75           6874          46.00       200.09
  192.78        3351.00           6878          51.00       221.88
HL scan finished at 03:14:16
end
************************************************************
  HL Scan of (1) Internal mercury lamp
************************************************************
Integration time is 0.2294 seconds per sample
dh230518Delft 52.017-4.35 3.126073pr1000
************************************************************
Dead Time -------------------------  2.7E-08 
Number of Cycles Used -------------  4 
Starting Wavelength (Angstroms) ---  3331 
Final Wavelength (Angstoms) -------  3351 
Wavelength Increment (Angstroms) --  .25 
Filter Wheel #1 Position ---------- (1) Ground quartz diffuser (ND=2.32)
Filter Wheel #2 Position ---------- 



************************************************************
HL scan start time = 20:51:57
Dark Count =  .1 


Time (GMT)  Wavelength (Ang)  Step Number  Raw Counts  Counts/Second

 1252.72        3331.00           6579          44.00       191.37
 1253.13        3331.25           6582          51.00       221.88
 1253.16        3331.50           6586          44.00       191.37
 1253.18        3331.75           6590          45.00       195.73
 1253.21        3332.00           6594          45.00       195.73
 1253.24        3332.25           6597          51.00       221.88
 1253.27        3332.50           6601          41.00       178.29
 1253.30        3332.75           6605          40.00       173.93
 1253.33        3333.00           6608          47.00       204.45
 1253.35        3333.25           6612          49.00       213.17
 1253.38        3333.50           6616          48.00       208.81
 1253.41        3333.75           6620          46.00       200.09
 1253.44        3334.00           6623          45.00       195.73
 1253.47        3334.25           6627          40.00       173.93
 1253.49        3334.50           6631          49.00       213.17
 1253.52        3334.75           6635          49.00       213.17
 1253.55        3335.00           6638          52.00       226.24
 1253.58        3335.25           6642          61.00       265.48
 1253.61        3335.50           6646          70.00       304.71
 1253.63        3335.75           6649          70.00       304.71
 1253.66        3336.00           6653          72.00       313.43
 1253.69        3336.25           6657          95.00       413.69
 1253.72        3336.50           6661         713.00      3107.93
 1253.75        3336.75           6664        2300.00     10028.43
 1253.78        3337.00           6668        4493.00     19595.80
 1253.80        3337.25           6672        6584.00     28722.79
 1253.83        3337.50           6676        8719.00     38046.48
 1253.86        3337.75           6679       10301.00     44958.21
 1253.89        3338.00           6683       12563.00     54845.33
 1253.92        3338.25           6687       14804.00     64645.87
 1253.95        3338.50           6690       16269.00     71055.55
 1253.97        3338.75           6694       18211.00     79555.63
 1254.00        3339.00           6698       20430.00     89272.91
 1254.03        3339.25           6702       22778.00     99560.65
 1254.06        3339.50           6705       24542.00    107293.40
 1254.09        3339.75           6709       26508.00    115915.40
 1254.12        3340.00           6713       28555.00    124896.90
 1254.14        3340.25           6717       30821.00    134844.50
 1254.17        3340.50           6720       32513.00    142275.70
 1254.20        3340.75           6724       34531.00    151142.60
 1254.23        3341.00           6728       36242.00    158663.90
 1254.26        3341.25           6732       37831.00    165651.60
 1254.29        3341.50           6735       37944.00    166148.60
 1254.31        3341.75           6739       38167.00    167129.50
 1254.34        3342.00           6743       37632.00    164776.40
 1254.37        3342.25           6747       35726.00    156395.30
 1254.40        3342.50           6750       34277.00    150026.30
 1254.43        3342.75           6754       32088.00    140408.80
 1254.46        3343.00           6758       29892.00    130765.60
 1254.48        3343.25           6761       28440.00    124392.20
 1254.51        3343.50           6765       26503.00    115893.50
 1254.54        3343.75           6769       24525.00    107218.80
 1254.57        3344.00           6773       22320.00     97553.48
 1254.60        3344.25           6776       20515.00     89645.24
 1254.63        3344.50           6780       18268.00     79805.18
 1254.65        3344.75           6784       16124.00     70421.04
 1254.68        3345.00           6788       13778.00     60158.23
 1254.71        3345.25           6791       12332.00     53835.39
 1254.74        3345.50           6795       10181.00     44433.84
 1254.77        3345.75           6799        8001.00     34910.40
 1254.80        3346.00           6803        5939.00     25906.96
 1254.82        3346.25           6806        4456.00     19434.35
 1254.85        3346.50           6810        2467.00     10756.83
 1254.88        3346.75           6814         656.00      2859.42
 1254.91        3347.00           6818         139.00       605.50
 1254.94        3347.25           6821          76.00       330.87
 1254.97        3347.50           6825          71.00       309.07
 1254.99        3347.75           6829          63.00       274.20
 1255.02        3348.00           6833          60.00       261.12
 1255.05        3348.25           6836          59.00       256.76
 1255.08        3348.50           6840          59.00       256.76
 1255.11        3348.75           6844          44.00       191.37
 1255.13        3349.00           6848          48.00       208.81
 1255.16        3349.25           6851          50.00       217.53
 1255.19        3349.50           6855          47.00       204.45
 1255.22        3349.75           6859          53.00       230.60
 1255.25        3350.00           6863          47.00       204.45
 1255.27        3350.25           6866          50.00       217.53
 1255.30        3350.50           6870          57.00       248.04
 1255.33        3350.75           6874          37.00       160.86
 1255.36        3351.00           6878          42.00       182.65
HL scan finished at 20:56:50
end
