************************************************************
  HL Scan of (1) Internal mercury lamp
************************************************************
Integration time is 0.2294 seconds per sample
dh210518Delft 52.017-4.35 2.804185pr1000
************************************************************
Dead Time -------------------------  2.7E-08 
Number of Cycles Used -------------  4 
Starting Wavelength (Angstroms) ---  3331 
Final Wavelength (Angstoms) -------  3351 
Wavelength Increment (Angstroms) --  .25 
Filter Wheel #1 Position ---------- (1) Ground quartz diffuser (ND=2.32)
Filter Wheel #2 Position ---------- 



************************************************************
HL scan start time = 01:51:40
Dark Count =  .1 


Time (GMT)  Wavelength (Ang)  Step Number  Raw Counts  Counts/Second

  112.43        3331.00           6579          43.00       187.01
  112.84        3331.25           6582          37.00       160.86
  112.87        3331.50           6586          49.00       213.17
  112.90        3331.75           6590          48.00       208.81
  112.92        3332.00           6594          41.00       178.29
  112.95        3332.25           6597          43.00       187.01
  112.98        3332.50           6601          46.00       200.09
  113.01        3332.75           6605          37.00       160.86
  113.04        3333.00           6608          43.00       187.01
  113.06        3333.25           6612          41.00       178.29
  113.09        3333.50           6616          46.00       200.09
  113.12        3333.75           6620          45.00       195.73
  113.15        3334.00           6623          43.00       187.01
  113.18        3334.25           6627          42.00       182.65
  113.20        3334.50           6631          45.00       195.73
  113.23        3334.75           6635          46.00       200.09
  113.26        3335.00           6638          49.00       213.17
  113.29        3335.25           6642          50.00       217.53
  113.32        3335.50           6646          54.00       234.96
  113.34        3335.75           6649          56.00       243.68
  113.37        3336.00           6653          63.00       274.20
  113.40        3336.25           6657         160.00       697.05
  113.43        3336.50           6661        1228.00      5353.43
  113.46        3336.75           6664        2429.00     10591.08
  113.49        3337.00           6668        3991.00     17405.30
  113.52        3337.25           6672        5487.00     23933.95
  113.54        3337.50           6676        7271.00     31722.45
  113.57        3337.75           6679        8438.00     36819.06
  113.60        3338.00           6683       10658.00     46518.29
  113.63        3338.25           6687       12505.00     54591.75
  113.66        3338.50           6690       13742.00     60000.79
  113.68        3338.75           6694       15496.00     67673.23
  113.71        3339.00           6698       17293.00     75537.08
  113.74        3339.25           6702       19051.00     83233.50
  113.77        3339.50           6705       20512.00     89632.09
  113.80        3339.75           6709       22123.00     96690.19
  113.83        3340.00           6713       23829.00    104167.50
  113.86        3340.25           6717       25480.00    111406.50
  113.88        3340.50           6720       26765.00    117042.80
  113.91        3340.75           6724       28631.00    125230.50
  113.94        3341.00           6728       30382.00    132916.90
  113.97        3341.25           6732       31350.00    137167.50
  114.00        3341.50           6735       31337.00    137110.40
  114.03        3341.75           6739       31372.00    137264.10
  114.05        3342.00           6743       31060.00    135893.90
  114.08        3342.25           6747       29774.00    130247.60
  114.11        3342.50           6750       28426.00    124330.80
  114.14        3342.75           6754       26577.00    116218.10
  114.17        3343.00           6758       24661.00    107815.20
  114.20        3343.25           6761       23330.00    101980.10
  114.22        3343.50           6765       21469.00     93824.56
  114.25        3343.75           6769       19890.00     86907.71
  114.28        3344.00           6773       18181.00     79424.28
  114.31        3344.25           6776       16985.00     74189.01
  114.34        3344.50           6780       14851.00     64851.47
  114.37        3344.75           6784       13311.00     58115.97
  114.40        3345.00           6788       11521.00     50290.13
  114.42        3345.25           6791       10098.00     44071.16
  114.45        3345.50           6795        8173.00     35661.61
  114.48        3345.75           6799        6160.00     26871.71
  114.51        3346.00           6803        4298.00     18744.88
  114.54        3346.25           6806        2977.00     12981.45
  114.57        3346.50           6810        1400.00      6103.45
  114.59        3346.75           6814         271.00      1180.94
  114.62        3347.00           6818          82.00       357.02
  114.65        3347.25           6821          68.00       295.99
  114.68        3347.50           6825          63.00       274.20
  114.71        3347.75           6829          63.00       274.20
  114.73        3348.00           6833          59.00       256.76
  114.76        3348.25           6836          52.00       226.24
  114.79        3348.50           6840          43.00       187.01
  114.82        3348.75           6844          54.00       234.96
  114.85        3349.00           6848          46.00       200.09
  114.88        3349.25           6851          42.00       182.65
  114.90        3349.50           6855          49.00       213.17
  114.93        3349.75           6859          49.00       213.17
  114.96        3350.00           6863          47.00       204.45
  114.99        3350.25           6866          51.00       221.88
  115.02        3350.50           6870          46.00       200.09
  115.05        3350.75           6874          34.00       147.78
  115.07        3351.00           6878          39.00       169.57
HL scan finished at 01:56:33
end
************************************************************
  HL Scan of (1) Internal mercury lamp
************************************************************
Integration time is 0.2294 seconds per sample
dh210518Delft 52.017-4.35 3.233369pr1000
************************************************************
Dead Time -------------------------  2.7E-08 
Number of Cycles Used -------------  4 
Starting Wavelength (Angstroms) ---  3331 
Final Wavelength (Angstoms) -------  3351 
Wavelength Increment (Angstroms) --  .25 
Filter Wheel #1 Position ---------- (1) Ground quartz diffuser (ND=2.32)
Filter Wheel #2 Position ---------- 



************************************************************
HL scan start time = 20:46:46
Dark Count =  .1 


Time (GMT)  Wavelength (Ang)  Step Number  Raw Counts  Counts/Second

 1247.53        3331.00           6579          45.00       195.73
 1247.94        3331.25           6582          49.00       213.17
 1247.97        3331.50           6586          46.00       200.09
 1247.99        3331.75           6590          38.00       165.21
 1248.02        3332.00           6594          51.00       221.88
 1248.05        3332.25           6597          52.00       226.24
 1248.08        3332.50           6601          39.00       169.57
 1248.11        3332.75           6605          43.00       187.01
 1248.13        3333.00           6608          50.00       217.53
 1248.16        3333.25           6612          46.00       200.09
 1248.19        3333.50           6616          44.00       191.37
 1248.22        3333.75           6620          42.00       182.65
 1248.25        3334.00           6623          51.00       221.88
 1248.28        3334.25           6627          49.00       213.17
 1248.30        3334.50           6631          48.00       208.81
 1248.33        3334.75           6635          53.00       230.60
 1248.36        3335.00           6638          60.00       261.12
 1248.39        3335.25           6642          58.00       252.40
 1248.42        3335.50           6646          66.00       287.27
 1248.44        3335.75           6649          63.00       274.20
 1248.47        3336.00           6653          80.00       348.30
 1248.50        3336.25           6657          88.00       383.18
 1248.53        3336.50           6661         677.00      2950.98
 1248.56        3336.75           6664        2199.00      9587.92
 1248.59        3337.00           6668        4215.00     18382.71
 1248.61        3337.25           6672        6118.00     26688.36
 1248.64        3337.50           6676        8295.00     36194.47
 1248.67        3337.75           6679       10270.00     44822.74
 1248.70        3338.00           6683       12406.00     54158.92
 1248.73        3338.25           6687       14577.00     63652.90
 1248.75        3338.50           6690       16450.00     71847.62
 1248.78        3338.75           6694       18703.00     81709.71
 1248.81        3339.00           6698       21209.00     92685.46
 1248.84        3339.25           6702       23615.00    103229.30
 1248.87        3339.50           6705       25223.00    110279.50
 1248.90        3339.75           6709       27424.00    119934.00
 1248.92        3340.00           6713       30046.00    131441.70
 1248.95        3340.25           6717       32167.00    140755.80
 1248.98        3340.50           6720       33486.00    146550.40
 1249.01        3340.75           6724       35283.00    154447.90
 1249.04        3341.00           6728       37544.00    164389.30
 1249.07        3341.25           6732       39534.00    173143.60
 1249.09        3341.50           6735       39904.00    174771.80
 1249.12        3341.75           6739       40164.00    175916.00
 1249.15        3342.00           6743       39918.00    174833.40
 1249.18        3342.25           6747       38499.00    168590.00
 1249.21        3342.50           6750       36995.00    161974.90
 1249.24        3342.75           6754       34473.00    150887.70
 1249.26        3343.00           6758       32273.00    141221.40
 1249.29        3343.25           6761       30802.00    134761.00
 1249.32        3343.50           6765       28830.00    126103.90
 1249.35        3343.75           6769       26446.00    115643.40
 1249.38        3344.00           6773       24048.00    105127.50
 1249.41        3344.25           6776       22372.00     97781.36
 1249.43        3344.50           6780       19859.00     86771.94
 1249.46        3344.75           6784       17539.00     76613.85
 1249.49        3345.00           6788       15172.00     66255.75
 1249.52        3345.25           6791       13332.00     58207.81
 1249.55        3345.50           6795       11138.00     48616.08
 1249.57        3345.75           6799        9023.00     39374.45
 1249.60        3346.00           6803        6902.00     30111.22
 1249.63        3346.25           6806        5142.00     22428.14
 1249.66        3346.50           6810        2907.00     12676.09
 1249.69        3346.75           6814         920.00      4010.46
 1249.72        3347.00           6818         183.00       797.31
 1249.74        3347.25           6821          86.00       374.46
 1249.77        3347.50           6825          77.00       335.23
 1249.80        3347.75           6829          70.00       304.71
 1249.83        3348.00           6833          62.00       269.84
 1249.86        3348.25           6836          60.00       261.12
 1249.88        3348.50           6840          67.00       291.63
 1249.91        3348.75           6844          56.00       243.68
 1249.94        3349.00           6848          50.00       217.53
 1249.97        3349.25           6851          45.00       195.73
 1250.00        3349.50           6855          44.00       191.37
 1250.03        3349.75           6859          48.00       208.81
 1250.05        3350.00           6863          49.00       213.17
 1250.08        3350.25           6866          44.00       191.37
 1250.11        3350.50           6870          49.00       213.17
 1250.14        3350.75           6874          52.00       226.24
 1250.17        3351.00           6878          55.00       239.32
HL scan finished at 20:51:38
end
