************************************************************
  HL Scan of (1) Internal mercury lamp
************************************************************
Integration time is 0.2294 seconds per sample
dh290517Delft 51.997-4.386 3.126073pr1000
************************************************************
Dead Time -------------------------  3E-08 
Number of Cycles Used -------------  4 
Starting Wavelength (Angstroms) ---  3331 
Final Wavelength (Angstoms) -------  3351 
Wavelength Increment (Angstroms) --  .25 
Filter Wheel #1 Position ---------- (1) Ground quartz diffuser (ND=2.32)
Filter Wheel #2 Position ---------- 



************************************************************
HL scan start time = 21:01:10
Dark Count =  .2 


Time (GMT)  Wavelength (Ang)  Step Number  Raw Counts  Counts/Second

 1261.92        3331.00           6581          47.00       204.01
 1262.33        3331.25           6584          49.00       212.73
 1262.36        3331.50           6588          50.00       217.09
 1262.39        3331.75           6592          47.00       204.01
 1262.42        3332.00           6595          45.00       195.29
 1262.45        3332.25           6599          46.00       199.65
 1262.48        3332.50           6603          53.00       230.17
 1262.51        3332.75           6607          46.00       199.65
 1262.54        3333.00           6610          44.00       190.93
 1262.57        3333.25           6614          49.00       212.73
 1262.60        3333.50           6618          47.00       204.01
 1262.63        3333.75           6622          52.00       225.81
 1262.66        3334.00           6625          53.00       230.17
 1262.68        3334.25           6629          49.00       212.73
 1262.71        3334.50           6633          50.00       217.09
 1262.74        3334.75           6636          53.00       230.17
 1262.77        3335.00           6640          58.00       251.96
 1262.80        3335.25           6644          63.00       273.76
 1262.83        3335.50           6648          68.00       295.56
 1262.86        3335.75           6651          73.00       317.35
 1262.89        3336.00           6655          91.00       395.82
 1262.92        3336.25           6659         213.00       927.66
 1262.95        3336.50           6663        1559.00      6796.50
 1262.98        3336.75           6666        3240.00     14128.92
 1263.01        3337.00           6670        5811.00     25349.70
 1263.04        3337.25           6674        7922.00     34568.53
 1263.07        3337.50           6677        9453.00     41257.66
 1263.10        3337.75           6681       11409.00     49807.59
 1263.13        3338.00           6685       13595.00     59368.07
 1263.16        3338.25           6689       16234.00     70917.07
 1263.19        3338.50           6692       17843.00     77962.44
 1263.22        3338.75           6696       19875.00     86864.27
 1263.25        3339.00           6700       22231.00     97191.44
 1263.28        3339.25           6704       24314.00    106327.30
 1263.30        3339.50           6707       26464.00    115762.30
 1263.33        3339.75           6711       28625.00    125250.90
 1263.36        3340.00           6715       30834.00    134955.90
 1263.39        3340.25           6719       33008.00    144512.70
 1263.42        3340.50           6722       34866.00    152684.70
 1263.45        3340.75           6726       36931.00    161771.90
 1263.48        3341.00           6730       38718.00    169639.70
 1263.50        3341.25           6733       39408.00    172678.60
 1263.53        3341.50           6737       39569.00    173387.80
 1263.56        3341.75           6741       39685.00    173898.80
 1263.59        3342.00           6745       38460.00    168503.60
 1263.62        3342.25           6748       36892.00    161600.20
 1263.65        3342.50           6752       34977.00    153173.10
 1263.68        3342.75           6756       32909.00    144077.40
 1263.71        3343.00           6760       30566.00    133778.20
 1263.74        3343.25           6763       28740.00    125756.00
 1263.77        3343.50           6767       26792.00    117202.10
 1263.80        3343.75           6771       24753.00    108253.40
 1263.83        3344.00           6775       22507.00     98401.66
 1263.85        3344.25           6778       20676.00     90374.59
 1263.89        3344.50           6782       18344.00     80156.78
 1263.92        3344.75           6786       15764.00     68859.63
 1263.95        3345.00           6790       13575.00     59280.58
 1263.97        3345.25           6793       12047.00     52597.32
 1264.01        3345.50           6797        9388.00     40973.61
 1264.04        3345.75           6801        7165.00     31262.09
 1264.07        3346.00           6805        5125.00     22355.01
 1264.10        3346.25           6808        3538.00     15429.11
 1264.13        3346.50           6812        1441.00      6281.92
 1264.16        3346.75           6816         310.00      1350.53
 1264.19        3347.00           6819         120.00       522.24
 1264.22        3347.25           6823          74.00       321.71
 1264.25        3347.50           6827          70.00       304.27
 1264.27        3347.75           6831          59.00       256.32
 1264.30        3348.00           6834          57.00       247.60
 1264.33        3348.25           6838          58.00       251.96
 1264.36        3348.50           6842          58.00       251.96
 1264.39        3348.75           6846          56.00       243.25
 1264.42        3349.00           6849          54.00       234.53
 1264.46        3349.25           6853          55.00       238.89
 1264.48        3349.50           6857          53.00       230.17
 1264.51        3349.75           6861          48.00       208.37
 1264.54        3350.00           6864          44.00       190.93
 1264.58        3350.25           6868          50.00       217.09
 1264.61        3350.50           6872          51.00       221.45
 1264.64        3350.75           6876          48.00       208.37
 1264.66        3351.00           6879          55.00       238.89
HL scan finished at 21:06:09
end
