************************************************************
  HL Scan of (1) Internal mercury lamp
************************************************************
Integration time is 0.2294 seconds per sample
dh290518Delft 52.017-4.35 3.126073pr1000
************************************************************
Dead Time -------------------------  2.7E-08 
Number of Cycles Used -------------  4 
Starting Wavelength (Angstroms) ---  3331 
Final Wavelength (Angstoms) -------  3351 
Wavelength Increment (Angstroms) --  .25 
Filter Wheel #1 Position ---------- (1) Ground quartz diffuser (ND=2.32)
Filter Wheel #2 Position ---------- 



************************************************************
HL scan start time = 01:50:14
Dark Count =  .2 


Time (GMT)  Wavelength (Ang)  Step Number  Raw Counts  Counts/Second

  110.99        3331.00           6579          45.00       195.29
  111.40        3331.25           6582          48.00       208.37
  111.42        3331.50           6586          43.00       186.57
  111.45        3331.75           6590          45.00       195.29
  111.48        3332.00           6594          48.00       208.37
  111.51        3332.25           6597          53.00       230.17
  111.54        3332.50           6601          50.00       217.09
  111.57        3332.75           6605          44.00       190.93
  111.59        3333.00           6608          48.00       208.37
  111.62        3333.25           6612          41.00       177.86
  111.65        3333.50           6616          50.00       217.09
  111.68        3333.75           6620          52.00       225.81
  111.70        3334.00           6623          48.00       208.37
  111.73        3334.25           6627          45.00       195.29
  111.76        3334.50           6631          46.00       199.65
  111.79        3334.75           6635          47.00       204.01
  111.82        3335.00           6638          56.00       243.24
  111.85        3335.25           6642          58.00       251.96
  111.87        3335.50           6646          57.00       247.60
  111.90        3335.75           6649          59.00       256.32
  111.93        3336.00           6653          78.00       339.15
  111.96        3336.25           6657         153.00       666.10
  111.99        3336.50           6661        1171.00      5104.45
  112.02        3336.75           6664        2789.00     12160.92
  112.04        3337.00           6668        4780.00     20847.82
  112.07        3337.25           6672        6738.00     29394.72
  112.10        3337.50           6676        8609.00     37565.55
  112.13        3337.75           6679       10106.00     44105.68
  112.16        3338.00           6683       12432.00     54272.15
  112.18        3338.25           6687       15110.00     65984.06
  112.21        3338.50           6690       16910.00     73860.31
  112.24        3338.75           6694       19064.00     83289.98
  112.27        3339.00           6698       20896.00     91313.78
  112.30        3339.25           6702       23171.00    101282.70
  112.33        3339.50           6705       24953.00    109095.10
  112.35        3339.75           6709       27189.00    118902.50
  112.38        3340.00           6713       28873.00    126292.20
  112.41        3340.25           6717       31276.00    136842.10
  112.44        3340.50           6720       32683.00    143022.00
  112.47        3340.75           6724       34846.00    152526.60
  112.50        3341.00           6728       37125.00    162546.20
  112.52        3341.25           6732       38582.00    168954.70
  112.55        3341.50           6735       38916.00    170424.10
  112.58        3341.75           6739       38915.00    170419.70
  112.61        3342.00           6743       38171.00    167146.70
  112.64        3342.25           6747       36582.00    160158.40
  112.67        3342.50           6750       35291.00    154482.60
  112.69        3342.75           6754       33127.00    144972.60
  112.72        3343.00           6758       30786.00    134690.40
  112.75        3343.25           6761       29299.00    128162.00
  112.78        3343.50           6765       26674.00    116643.20
  112.81        3343.75           6769       24684.00    107915.60
  112.83        3344.00           6773       22616.00     98850.24
  112.86        3344.25           6776       21095.00     92185.58
  112.89        3344.50           6780       18812.00     82186.54
  112.92        3344.75           6784       16629.00     72630.53
  112.95        3345.00           6788       14391.00     62838.88
  112.98        3345.25           6791       12900.00     56318.35
  113.00        3345.50           6795       10469.00     45691.90
  113.03        3345.75           6799        8169.00     35643.70
  113.06        3346.00           6803        5637.00     24588.25
  113.09        3346.25           6806        3922.00     17103.80
  113.12        3346.50           6810        1976.00      8614.91
  113.15        3346.75           6814         468.00      2039.35
  113.17        3347.00           6818         108.00       469.93
  113.20        3347.25           6821          67.00       291.20
  113.23        3347.50           6825          65.00       282.48
  113.26        3347.75           6829          61.00       265.04
  113.28        3348.00           6833          58.00       251.96
  113.31        3348.25           6836          56.00       243.24
  113.34        3348.50           6840          53.00       230.17
  113.37        3348.75           6844          49.00       212.73
  113.40        3349.00           6848          53.00       230.17
  113.43        3349.25           6851          46.00       199.65
  113.45        3349.50           6855          48.00       208.37
  113.48        3349.75           6859          47.00       204.01
  113.51        3350.00           6863          45.00       195.29
  113.54        3350.25           6866          47.00       204.01
  113.57        3350.50           6870          56.00       243.24
  113.60        3350.75           6874          52.00       225.81
  113.62        3351.00           6878          42.00       182.22
HL scan finished at 01:55:06
end
************************************************************
  HL Scan of (1) Internal mercury lamp
************************************************************
Integration time is 0.2294 seconds per sample
dh290518Delft 52.017-4.35 3.018777pr1000
************************************************************
Dead Time -------------------------  2.7E-08 
Number of Cycles Used -------------  4 
Starting Wavelength (Angstroms) ---  3331 
Final Wavelength (Angstoms) -------  3351 
Wavelength Increment (Angstroms) --  .25 
Filter Wheel #1 Position ---------- (1) Ground quartz diffuser (ND=2.32)
Filter Wheel #2 Position ---------- 



************************************************************
HL scan start time = 21:07:26
Dark Count =  0 


Time (GMT)  Wavelength (Ang)  Step Number  Raw Counts  Counts/Second

 1268.20        3331.00           6579          45.00       196.16
 1268.61        3331.25           6582          45.00       196.16
 1268.64        3331.50           6586          50.00       217.96
 1268.66        3331.75           6590          47.00       204.88
 1268.69        3332.00           6594          43.00       187.45
 1268.72        3332.25           6597          48.00       209.24
 1268.75        3332.50           6601          51.00       222.32
 1268.78        3332.75           6605          44.00       191.81
 1268.80        3333.00           6608          44.00       191.81
 1268.83        3333.25           6612          46.00       200.52
 1268.86        3333.50           6616          53.00       231.04
 1268.89        3333.75           6620          36.00       156.93
 1268.92        3334.00           6623          48.00       209.24
 1268.95        3334.25           6627          41.00       178.73
 1268.97        3334.50           6631          51.00       222.32
 1269.00        3334.75           6635          48.00       209.24
 1269.03        3335.00           6638          48.00       209.24
 1269.06        3335.25           6642          57.00       248.48
 1269.09        3335.50           6646          50.00       217.96
 1269.11        3335.75           6649          64.00       278.99
 1269.14        3336.00           6653          78.00       340.02
 1269.17        3336.25           6657         112.00       488.24
 1269.20        3336.50           6661        1077.00      4695.45
 1269.23        3336.75           6664        2541.00     11080.04
 1269.26        3337.00           6668        4456.00     19434.78
 1269.28        3337.25           6672        6531.00     28491.83
 1269.31        3337.50           6676        8338.00     36382.71
 1269.34        3337.75           6679        9924.00     43311.30
 1269.37        3338.00           6683       11793.00     51479.53
 1269.40        3338.25           6687       13652.00     59607.63
 1269.43        3338.50           6690       15338.00     66982.41
 1269.46        3338.75           6694       17615.00     76946.97
 1269.48        3339.00           6698       19746.00     86277.48
 1269.51        3339.25           6702       21636.00     94556.71
 1269.54        3339.50           6705       23129.00    101099.50
 1269.57        3339.75           6709       24950.00    109082.80
 1269.60        3340.00           6713       27134.00    118662.10
 1269.63        3340.25           6717       29098.00    127280.60
 1269.65        3340.50           6720       30618.00    133953.50
 1269.68        3340.75           6724       32410.00    141823.70
 1269.71        3341.00           6728       34335.00    150281.60
 1269.74        3341.25           6732       35858.00    156976.00
 1269.77        3341.50           6735       36223.00    158580.80
 1269.80        3341.75           6739       35982.00    157521.20
 1269.82        3342.00           6743       35884.00    157090.40
 1269.85        3342.25           6747       33918.00    148449.10
 1269.88        3342.50           6750       32416.00    141850.00
 1269.91        3342.75           6754       30650.00    134094.00
 1269.94        3343.00           6758       28782.00    125893.60
 1269.97        3343.25           6761       27234.00    119100.80
 1270.00        3343.50           6765       25308.00    110652.70
 1270.02        3343.75           6769       23030.00    100665.60
 1270.05        3344.00           6773       21076.00     92103.22
 1270.08        3344.25           6776       19561.00     85467.28
 1270.11        3344.50           6780       17464.00     76286.00
 1270.14        3344.75           6784       15483.00     67616.80
 1270.17        3345.00           6788       13480.00     58855.44
 1270.20        3345.25           6791       11626.00     50749.53
 1270.23        3345.50           6795        9725.00     42441.81
 1270.26        3345.75           6799        7796.00     34015.54
 1270.28        3346.00           6803        5517.00     24065.33
 1270.31        3346.25           6806        3907.00     17039.22
 1270.34        3346.50           6810        1858.00      8101.16
 1270.37        3346.75           6814         403.00      1756.84
 1270.40        3347.00           6818         113.00       492.60
 1270.43        3347.25           6821          74.00       322.58
 1270.46        3347.50           6825          69.00       300.79
 1270.49        3347.75           6829          63.00       274.63
 1270.51        3348.00           6833          50.00       217.96
 1270.54        3348.25           6836          56.00       244.12
 1270.57        3348.50           6840          45.00       196.16
 1270.60        3348.75           6844          50.00       217.96
 1270.63        3349.00           6848          47.00       204.88
 1270.66        3349.25           6851          54.00       235.40
 1270.69        3349.50           6855          46.00       200.52
 1270.72        3349.75           6859          50.00       217.96
 1270.75        3350.00           6863          42.00       183.09
 1270.78        3350.25           6866          46.00       200.52
 1270.80        3350.50           6870          51.00       222.32
 1270.83        3350.75           6874          50.00       217.96
 1270.86        3351.00           6878          45.00       196.16
HL scan finished at 21:12:21
end
