************************************************************
  HL Scan of (1) Internal mercury lamp
************************************************************
Integration time is 0.2294 seconds per sample
dh280518Delft 52.017-4.35 3.340665pr1000
************************************************************
Dead Time -------------------------  2.7E-08 
Number of Cycles Used -------------  4 
Starting Wavelength (Angstroms) ---  3331 
Final Wavelength (Angstoms) -------  3351 
Wavelength Increment (Angstroms) --  .25 
Filter Wheel #1 Position ---------- (1) Ground quartz diffuser (ND=2.32)
Filter Wheel #2 Position ---------- 



************************************************************
HL scan start time = 20:58:30
Dark Count =  .3 


Time (GMT)  Wavelength (Ang)  Step Number  Raw Counts  Counts/Second

 1259.27        3331.00           6579          45.00       194.86
 1259.68        3331.25           6582          47.00       203.58
 1259.70        3331.50           6586          51.00       221.01
 1259.73        3331.75           6590          46.00       199.22
 1259.76        3332.00           6594          41.00       177.42
 1259.79        3332.25           6597          45.00       194.86
 1259.82        3332.50           6601          43.00       186.14
 1259.85        3332.75           6605          50.00       216.65
 1259.87        3333.00           6608          41.00       177.42
 1259.90        3333.25           6612          48.00       207.93
 1259.93        3333.50           6616          51.00       221.01
 1259.96        3333.75           6620          48.00       207.93
 1259.99        3334.00           6623          48.00       207.93
 1260.02        3334.25           6627          55.00       238.45
 1260.04        3334.50           6631          49.00       212.29
 1260.07        3334.75           6635          46.00       199.22
 1260.10        3335.00           6638          63.00       273.32
 1260.13        3335.25           6642          63.00       273.32
 1260.16        3335.50           6646          57.00       247.17
 1260.19        3335.75           6649          66.00       286.40
 1260.21        3336.00           6653          80.00       347.43
 1260.24        3336.25           6657         108.00       469.49
 1260.27        3336.50           6661         838.00      3652.06
 1260.30        3336.75           6664        2149.00      9368.98
 1260.33        3337.00           6668        4240.00     18490.92
 1260.36        3337.25           6672        6673.00     29110.49
 1260.38        3337.50           6676        8690.00     37918.93
 1260.41        3337.75           6679       10406.00     45416.17
 1260.44        3338.00           6683       12839.00     56051.21
 1260.47        3338.25           6687       15228.00     66499.85
 1260.50        3338.50           6690       17183.00     75054.74
 1260.53        3338.75           6694       19911.00     86998.80
 1260.56        3339.00           6698       22279.00     97372.92
 1260.59        3339.25           6702       24567.00    107402.10
 1260.61        3339.50           6705       26312.00    115054.80
 1260.64        3339.75           6709       28582.00    125014.60
 1260.67        3340.00           6713       30890.00    135146.60
 1260.70        3340.25           6717       32629.00    142784.40
 1260.73        3340.50           6720       34271.00    149999.00
 1260.76        3340.75           6724       36438.00    159524.80
 1260.78        3341.00           6728       39014.00    170854.80
 1260.81        3341.25           6732       40540.00    177569.90
 1260.84        3341.50           6735       40824.00    178819.90
 1260.87        3341.75           6739       41020.00    179682.60
 1260.90        3342.00           6743       40663.00    178111.30
 1260.93        3342.25           6747       38977.00    170692.00
 1260.96        3342.50           6750       37152.00    162664.50
 1260.98        3342.75           6754       35204.00    154099.70
 1261.01        3343.00           6758       32909.00    144014.40
 1261.04        3343.25           6761       31138.00    136235.60
 1261.07        3343.50           6765       28883.00    126335.60
 1261.10        3343.75           6769       26343.00    115190.70
 1261.13        3344.00           6773       24056.00    105161.70
 1261.15        3344.25           6776       22381.00     97819.91
 1261.18        3344.50           6780       19908.00     86985.66
 1261.21        3344.75           6784       17459.00     76262.81
 1261.24        3345.00           6788       15231.00     66512.98
 1261.27        3345.25           6791       13682.00     59737.52
 1261.30        3345.50           6795       11273.00     49205.26
 1261.32        3345.75           6799        9082.00     39631.31
 1261.35        3346.00           6803        6666.00     29079.93
 1261.38        3346.25           6806        4689.00     20450.26
 1261.41        3346.50           6810        2434.00     10612.02
 1261.44        3346.75           6814         757.00      3298.90
 1261.47        3347.00           6818         181.00       787.72
 1261.50        3347.25           6821          88.00       382.31
 1261.52        3347.50           6825          64.00       277.68
 1261.55        3347.75           6829          75.00       325.63
 1261.58        3348.00           6833          58.00       251.53
 1261.61        3348.25           6836          61.00       264.61
 1261.64        3348.50           6840          53.00       229.73
 1261.67        3348.75           6844          57.00       247.17
 1261.69        3349.00           6848          50.00       216.65
 1261.72        3349.25           6851          47.00       203.58
 1261.75        3349.50           6855          44.00       190.50
 1261.78        3349.75           6859          53.00       229.73
 1261.81        3350.00           6863          47.00       203.58
 1261.83        3350.25           6866          51.00       221.01
 1261.86        3350.50           6870          53.00       229.73
 1261.89        3350.75           6874          53.00       229.73
 1261.92        3351.00           6878          50.00       216.65
HL scan finished at 21:03:24
end
