************************************************************
  HL Scan of (1) Internal mercury lamp
************************************************************
Integration time is 0.2294 seconds per sample
dh220518Delft 52.017-4.35 3.072425pr1000
************************************************************
Dead Time -------------------------  2.7E-08 
Number of Cycles Used -------------  4 
Starting Wavelength (Angstroms) ---  3331 
Final Wavelength (Angstoms) -------  3351 
Wavelength Increment (Angstroms) --  .25 
Filter Wheel #1 Position ---------- (1) Ground quartz diffuser (ND=2.32)
Filter Wheel #2 Position ---------- 



************************************************************
HL scan start time = 01:50:10
Dark Count =  .1 


Time (GMT)  Wavelength (Ang)  Step Number  Raw Counts  Counts/Second

  110.92        3331.00           6579          44.00       191.37
  111.33        3331.25           6582          50.00       217.53
  111.36        3331.50           6586          47.00       204.45
  111.38        3331.75           6590          47.00       204.45
  111.41        3332.00           6594          44.00       191.37
  111.44        3332.25           6597          42.00       182.65
  111.47        3332.50           6601          51.00       221.88
  111.50        3332.75           6605          41.00       178.29
  111.53        3333.00           6608          44.00       191.37
  111.55        3333.25           6612          41.00       178.29
  111.58        3333.50           6616          45.00       195.73
  111.61        3333.75           6620          50.00       217.53
  111.64        3334.00           6623          43.00       187.01
  111.67        3334.25           6627          53.00       230.60
  111.69        3334.50           6631          55.00       239.32
  111.72        3334.75           6635          49.00       213.17
  111.75        3335.00           6638          48.00       208.81
  111.78        3335.25           6642          58.00       252.40
  111.81        3335.50           6646          66.00       287.27
  111.84        3335.75           6649          59.00       256.76
  111.86        3336.00           6653          77.00       335.23
  111.89        3336.25           6657         123.00       535.75
  111.92        3336.50           6661         899.00      3918.90
  111.95        3336.75           6664        2291.00      9989.18
  111.98        3337.00           6668        4321.00     18845.24
  112.01        3337.25           6672        6341.00     27661.89
  112.03        3337.50           6676        8251.00     36002.29
  112.06        3337.75           6679        9560.00     41720.47
  112.09        3338.00           6683       11652.00     50862.74
  112.12        3338.25           6687       13634.00     59528.48
  112.15        3338.50           6690       15406.00     67279.47
  112.18        3338.75           6694       17720.00     77406.16
  112.20        3339.00           6698       19842.00     86697.48
  112.23        3339.25           6702       21695.00     94814.78
  112.26        3339.50           6705       23120.00    101059.60
  112.29        3339.75           6709       25197.00    110165.50
  112.32        3340.00           6713       27091.00    118473.00
  112.35        3340.25           6717       29090.00    127245.10
  112.37        3340.50           6720       30665.00    134159.50
  112.40        3340.75           6724       32541.00    142398.70
  112.43        3341.00           6728       34511.00    151054.70
  112.46        3341.25           6732       36129.00    158167.00
  112.49        3341.50           6735       36551.00    160022.50
  112.52        3341.75           6739       36515.00    159864.20
  112.54        3342.00           6743       35983.00    157525.10
  112.57        3342.25           6747       34507.00    151037.10
  112.60        3342.50           6750       32767.00    143391.50
  112.63        3342.75           6754       31299.00    136943.50
  112.66        3343.00           6758       29033.00    126994.90
  112.69        3343.25           6761       27688.00    121092.30
  112.71        3343.50           6765       25386.00    110994.30
  112.74        3343.75           6769       23287.00    101791.60
  112.77        3344.00           6773       21240.00     92821.27
  112.80        3344.25           6776       19636.00     85795.30
  112.83        3344.50           6780       17825.00     77865.81
  112.86        3344.75           6784       15618.00     68207.02
  112.89        3345.00           6788       13503.00     58955.59
  112.91        3345.25           6791       12033.00     52528.25
  112.94        3345.50           6795       10141.00     44259.05
  112.97        3345.75           6799        7995.00     34884.20
  113.00        3346.00           6803        5578.00     24331.15
  113.03        3346.25           6806        3879.00     16916.62
  113.05        3346.50           6810        1780.00      7760.56
  113.08        3346.75           6814         512.00      2231.61
  113.11        3347.00           6818         135.00       588.07
  113.14        3347.25           6821          71.00       309.07
  113.17        3347.50           6825          72.00       313.43
  113.20        3347.75           6829          57.00       248.04
  113.22        3348.00           6833          60.00       261.12
  113.25        3348.25           6836          53.00       230.60
  113.28        3348.50           6840          55.00       239.32
  113.31        3348.75           6844          45.00       195.73
  113.34        3349.00           6848          52.00       226.24
  113.37        3349.25           6851          43.00       187.01
  113.39        3349.50           6855          46.00       200.09
  113.42        3349.75           6859          48.00       208.81
  113.45        3350.00           6863          46.00       200.09
  113.48        3350.25           6866          41.00       178.29
  113.51        3350.50           6870          40.00       173.93
  113.54        3350.75           6874          46.00       200.09
  113.56        3351.00           6878          48.00       208.81
HL scan finished at 01:55:02
end
************************************************************
  HL Scan of (1) Internal mercury lamp
************************************************************
Integration time is 0.2294 seconds per sample
dh220518Delft 52.017-4.35 3.179721pr1000
************************************************************
Dead Time -------------------------  2.7E-08 
Number of Cycles Used -------------  4 
Starting Wavelength (Angstroms) ---  3331 
Final Wavelength (Angstoms) -------  3351 
Wavelength Increment (Angstroms) --  .25 
Filter Wheel #1 Position ---------- (1) Ground quartz diffuser (ND=2.32)
Filter Wheel #2 Position ---------- 



************************************************************
HL scan start time = 20:48:13
Dark Count =  .2 


Time (GMT)  Wavelength (Ang)  Step Number  Raw Counts  Counts/Second

 1248.99        3331.00           6579          43.00       186.57
 1249.39        3331.25           6582          47.00       204.01
 1249.42        3331.50           6586          46.00       199.65
 1249.45        3331.75           6590          45.00       195.29
 1249.48        3332.00           6594          52.00       225.81
 1249.51        3332.25           6597          42.00       182.22
 1249.53        3332.50           6601          47.00       204.01
 1249.56        3332.75           6605          49.00       212.73
 1249.59        3333.00           6608          43.00       186.57
 1249.62        3333.25           6612          44.00       190.93
 1249.65        3333.50           6616          48.00       208.37
 1249.68        3333.75           6620          47.00       204.01
 1249.70        3334.00           6623          42.00       182.22
 1249.73        3334.25           6627          49.00       212.73
 1249.76        3334.50           6631          43.00       186.57
 1249.79        3334.75           6635          48.00       208.37
 1249.82        3335.00           6638          54.00       234.53
 1249.85        3335.25           6642          65.00       282.48
 1249.87        3335.50           6646          69.00       299.92
 1249.90        3335.75           6649          66.00       286.84
 1249.93        3336.00           6653          80.00       347.87
 1249.96        3336.25           6657          99.00       430.69
 1249.99        3336.50           6661         872.00      3800.74
 1250.01        3336.75           6664        2159.00      9413.03
 1250.04        3337.00           6668        4028.00     17566.31
 1250.07        3337.25           6672        6186.00     26984.78
 1250.10        3337.50           6676        8465.00     36936.56
 1250.13        3337.75           6679       10092.00     44044.50
 1250.16        3338.00           6683       12720.00     55531.33
 1250.19        3338.25           6687       14890.00     65021.64
 1250.21        3338.50           6690       16513.00     72122.88
 1250.24        3338.75           6694       18780.00     82046.41
 1250.27        3339.00           6698       20995.00     91747.49
 1250.30        3339.25           6702       23024.00    100638.40
 1250.33        3339.50           6705       24380.00    106582.70
 1250.36        3339.75           6709       26502.00    115888.60
 1250.38        3340.00           6713       28516.00    124725.40
 1250.41        3340.25           6717       31048.00    135840.80
 1250.44        3340.50           6720       32708.00    143131.90
 1250.47        3340.75           6724       34840.00    152500.20
 1250.50        3341.00           6728       36586.00    160176.00
 1250.53        3341.25           6732       37993.00    166363.80
 1250.55        3341.50           6735       38216.00    167344.70
 1250.58        3341.75           6739       38176.00    167168.70
 1250.61        3342.00           6743       37940.00    166130.60
 1250.64        3342.25           6747       36399.00    159353.70
 1250.67        3342.50           6750       34605.00    151467.40
 1250.70        3342.75           6754       32522.00    142314.80
 1250.72        3343.00           6758       30298.00    132547.60
 1250.75        3343.25           6761       28585.00    125028.20
 1250.78        3343.50           6765       26342.00    115186.80
 1250.81        3343.75           6769       24236.00    105951.30
 1250.84        3344.00           6773       22120.00     96676.62
 1250.87        3344.25           6776       20525.00     89688.59
 1250.89        3344.50           6780       18662.00     81529.76
 1250.92        3344.75           6784       16315.00     71256.41
 1250.95        3345.00           6788       14158.00     61819.75
 1250.98        3345.25           6791       12319.00     53778.12
 1251.01        3345.50           6795       10078.00     43983.33
 1251.04        3345.75           6799        7875.00     34359.68
 1251.06        3346.00           6803        5847.00     25504.92
 1251.09        3346.25           6806        4201.00     18321.18
 1251.12        3346.50           6810        2240.00      9766.31
 1251.15        3346.75           6814         614.00      2675.87
 1251.18        3347.00           6818         164.00       714.05
 1251.21        3347.25           6821          82.00       356.59
 1251.23        3347.50           6825          74.00       321.71
 1251.26        3347.75           6829          60.00       260.68
 1251.29        3348.00           6833          56.00       243.24
 1251.32        3348.25           6836          53.00       230.17
 1251.35        3348.50           6840          52.00       225.81
 1251.38        3348.75           6844          53.00       230.17
 1251.40        3349.00           6848          54.00       234.53
 1251.43        3349.25           6851          51.00       221.45
 1251.46        3349.50           6855          48.00       208.37
 1251.49        3349.75           6859          47.00       204.01
 1251.52        3350.00           6863          46.00       199.65
 1251.55        3350.25           6866          45.00       195.29
 1251.57        3350.50           6870          44.00       190.93
 1251.60        3350.75           6874          48.00       208.37
 1251.63        3351.00           6878          51.00       221.45
HL scan finished at 20:53:06
end
