************************************************************
  HL Scan of (1) Internal mercury lamp
************************************************************
Integration time is 0.2294 seconds per sample
dh240518Delft 52.017-4.35 2.911481pr1000
************************************************************
Dead Time -------------------------  2.7E-08 
Number of Cycles Used -------------  4 
Starting Wavelength (Angstroms) ---  3331 
Final Wavelength (Angstoms) -------  3351 
Wavelength Increment (Angstroms) --  .25 
Filter Wheel #1 Position ---------- (1) Ground quartz diffuser (ND=2.32)
Filter Wheel #2 Position ---------- 



************************************************************
HL scan start time = 02:20:29
Dark Count =  .1 


Time (GMT)  Wavelength (Ang)  Step Number  Raw Counts  Counts/Second

  141.25        3331.00           6579          43.00       187.01
  141.65        3331.25           6582          44.00       191.37
  141.68        3331.50           6586          49.00       213.17
  141.71        3331.75           6590          44.00       191.37
  141.74        3332.00           6594          40.00       173.93
  141.77        3332.25           6597          49.00       213.17
  141.79        3332.50           6601          49.00       213.17
  141.82        3332.75           6605          45.00       195.73
  141.85        3333.00           6608          43.00       187.01
  141.88        3333.25           6612          41.00       178.29
  141.91        3333.50           6616          49.00       213.17
  141.93        3333.75           6620          42.00       182.65
  141.96        3334.00           6623          48.00       208.81
  141.99        3334.25           6627          48.00       208.81
  142.02        3334.50           6631          46.00       200.09
  142.05        3334.75           6635          47.00       204.45
  142.07        3335.00           6638          47.00       204.45
  142.10        3335.25           6642          55.00       239.32
  142.13        3335.50           6646          63.00       274.20
  142.16        3335.75           6649          62.00       269.84
  142.19        3336.00           6653          69.00       300.35
  142.22        3336.25           6657          94.00       409.33
  142.24        3336.50           6661         638.00      2780.94
  142.27        3336.75           6664        1899.00      8279.53
  142.30        3337.00           6668        3888.00     16955.89
  142.33        3337.25           6672        5785.00     25234.71
  142.36        3337.50           6676        7638.00     33325.09
  142.38        3337.75           6679        8916.00     38907.03
  142.41        3338.00           6683       10806.00     47165.08
  142.44        3338.25           6687       13114.00     57254.53
  142.47        3338.50           6690       14503.00     63329.21
  142.50        3338.75           6694       16221.00     70845.50
  142.53        3339.00           6698       18290.00     79901.50
  142.56        3339.25           6702       20200.00     88265.47
  142.58        3339.50           6705       21804.00     95292.38
  142.61        3339.75           6709       23871.00    104351.60
  142.64        3340.00           6713       25852.00    113038.00
  142.67        3340.25           6717       27626.00    120820.30
  142.70        3340.50           6720       29287.00    128109.80
  142.73        3340.75           6724       31086.00    136008.10
  142.75        3341.00           6728       32632.00    142798.40
  142.78        3341.25           6732       33835.00    148083.90
  142.81        3341.50           6735       34308.00    150162.50
  142.84        3341.75           6739       34391.00    150527.30
  142.87        3342.00           6743       33775.00    147820.30
  142.90        3342.25           6747       32172.00    140777.80
  142.93        3342.50           6750       30914.00    135252.80
  142.95        3342.75           6754       28839.00    126143.40
  142.98        3343.00           6758       27149.00    118727.40
  143.01        3343.25           6761       25849.00    113024.90
  143.04        3343.50           6765       24053.00    105149.50
  143.07        3343.75           6769       22318.00     97544.71
  143.10        3344.00           6773       20464.00     89421.84
  143.12        3344.25           6776       19000.00     83010.16
  143.15        3344.50           6780       16688.00     72889.16
  143.18        3344.75           6784       14598.00     63744.76
  143.21        3345.00           6788       12714.00     55505.53
  143.24        3345.25           6791       11129.00     48576.75
  143.27        3345.50           6795        9109.00     39750.14
  143.29        3345.75           6799        7145.00     31172.26
  143.32        3346.00           6803        5126.00     22358.31
  143.35        3346.25           6806        3776.00     16467.22
  143.38        3346.50           6810        2099.00      9151.78
  143.41        3346.75           6814         683.00      2977.14
  143.43        3347.00           6818         130.00       566.27
  143.46        3347.25           6821          66.00       287.27
  143.49        3347.50           6825          68.00       295.99
  143.52        3347.75           6829          65.00       282.91
  143.55        3348.00           6833          53.00       230.60
  143.58        3348.25           6836          51.00       221.88
  143.60        3348.50           6840          48.00       208.81
  143.63        3348.75           6844          50.00       217.53
  143.66        3349.00           6848          39.00       169.57
  143.69        3349.25           6851          44.00       191.37
  143.72        3349.50           6855          45.00       195.73
  143.74        3349.75           6859          49.00       213.17
  143.77        3350.00           6863          52.00       226.24
  143.80        3350.25           6866          48.00       208.81
  143.83        3350.50           6870          48.00       208.81
  143.86        3350.75           6874          43.00       187.01
  143.89        3351.00           6878          47.00       204.45
HL scan finished at 02:25:22
end
