************************************************************
  HL Scan of (1) Internal mercury lamp
************************************************************
Integration time is 0.2294 seconds per sample
dh300517Delft 51.997-4.386 3.018777pr1000
************************************************************
Dead Time -------------------------  3E-08 
Number of Cycles Used -------------  4 
Starting Wavelength (Angstroms) ---  3331 
Final Wavelength (Angstoms) -------  3351 
Wavelength Increment (Angstroms) --  .25 
Filter Wheel #1 Position ---------- (1) Ground quartz diffuser (ND=2.32)
Filter Wheel #2 Position ---------- 



************************************************************
HL scan start time = 02:44:48
Dark Count =  0 


Time (GMT)  Wavelength (Ang)  Step Number  Raw Counts  Counts/Second

  165.56        3331.00           6581          50.00       217.96
  165.97        3331.25           6584          49.00       213.60
  166.00        3331.50           6588          47.00       204.88
  166.03        3331.75           6592          48.00       209.24
  166.06        3332.00           6595          46.00       200.52
  166.09        3332.25           6599          47.00       204.88
  166.12        3332.50           6603          47.00       204.88
  166.15        3332.75           6607          49.00       213.60
  166.18        3333.00           6610          45.00       196.17
  166.21        3333.25           6614          48.00       209.24
  166.24        3333.50           6618          45.00       196.17
  166.27        3333.75           6622          46.00       200.52
  166.30        3334.00           6625          53.00       231.04
  166.33        3334.25           6629          55.00       239.76
  166.36        3334.50           6633          53.00       231.04
  166.39        3334.75           6636          55.00       239.76
  166.42        3335.00           6640          56.00       244.12
  166.45        3335.25           6644          62.00       270.27
  166.48        3335.50           6648          57.00       248.48
  166.51        3335.75           6651          84.00       366.18
  166.53        3336.00           6655          83.00       361.82
  166.57        3336.25           6659         251.00      1094.19
  166.60        3336.50           6663        1819.00      7931.27
  166.64        3336.75           6666        3492.00     15229.28
  166.67        3337.00           6670        5569.00     24294.07
  166.70        3337.25           6674        7632.00     33302.65
  166.73        3337.50           6677        9281.00     40506.92
  166.76        3337.75           6681       11344.00     49524.27
  166.79        3338.00           6685       13764.00     60108.29
  166.82        3338.25           6689       16446.00     71846.06
  166.85        3338.50           6692       18254.00     79763.43
  166.89        3338.75           6696       20339.00     88898.50
  166.91        3339.00           6700       22624.00     98915.59
  166.94        3339.25           6704       24837.00    108622.80
  166.97        3339.50           6707       26311.00    115091.60
  167.00        3339.75           6711       28396.00    124246.00
  167.03        3340.00           6715       30391.00    133010.10
  167.06        3340.25           6719       32651.00    142943.90
  167.09        3340.50           6722       34597.00    151502.20
  167.11        3340.75           6726       36478.00    159778.90
  167.14        3341.00           6730       38334.00    167949.60
  167.17        3341.25           6733       38913.00    170499.30
  167.20        3341.50           6737       39007.00    170913.30
  167.23        3341.75           6741       39043.00    171071.90
  167.26        3342.00           6745       37616.00    164788.20
  167.29        3342.25           6748       36571.00    160188.20
  167.32        3342.50           6752       34580.00    151427.40
  167.35        3342.75           6756       32252.00    141189.60
  167.38        3343.00           6760       29929.00    130980.10
  167.41        3343.25           6763       28157.00    123196.40
  167.44        3343.50           6767       25756.00    112655.60
  167.47        3343.75           6771       23705.00    103656.60
  167.50        3344.00           6775       21481.00     93904.09
  167.53        3344.25           6778       19599.00     85655.75
  167.55        3344.50           6782       17520.00     76548.74
  167.58        3344.75           6786       15471.00     67578.03
  167.61        3345.00           6790       13265.00     57925.34
  167.64        3345.25           6793       11690.00     51037.11
  167.67        3345.50           6797        9300.00     40589.94
  167.70        3345.75           6801        6962.00     30376.41
  167.72        3346.00           6805        4792.00     20902.38
  167.75        3346.25           6808        3122.00     13614.98
  167.78        3346.50           6812        1207.00      5262.38
  167.81        3346.75           6816         220.00       959.05
  167.84        3347.00           6819          96.00       418.49
  167.87        3347.25           6823          71.00       309.51
  167.90        3347.50           6827          60.00       261.55
  167.93        3347.75           6831          55.00       239.76
  167.97        3348.00           6834          60.00       261.55
  168.00        3348.25           6838          53.00       231.04
  168.02        3348.50           6842          50.00       217.96
  168.05        3348.75           6846          51.00       222.32
  168.08        3349.00           6849          46.00       200.52
  168.11        3349.25           6853          46.00       200.52
  168.14        3349.50           6857          53.00       231.04
  168.17        3349.75           6861          50.00       217.96
  168.21        3350.00           6864          59.00       257.19
  168.23        3350.25           6868          47.00       204.88
  168.27        3350.50           6872          52.00       226.68
  168.30        3350.75           6876          49.00       213.60
  168.33        3351.00           6879          47.00       204.88
HL scan finished at 02:49:48
end
************************************************************
  HL Scan of (1) Internal mercury lamp
************************************************************
Integration time is 0.2294 seconds per sample
dh300517Delft 51.997-4.386 2.965129pr1000
************************************************************
Dead Time -------------------------  3E-08 
Number of Cycles Used -------------  4 
Starting Wavelength (Angstroms) ---  3331 
Final Wavelength (Angstoms) -------  3351 
Wavelength Increment (Angstroms) --  .25 
Filter Wheel #1 Position ---------- (1) Ground quartz diffuser (ND=2.32)
Filter Wheel #2 Position ---------- 



************************************************************
HL scan start time = 03:11:39
Dark Count =  .1 


Time (GMT)  Wavelength (Ang)  Step Number  Raw Counts  Counts/Second

  192.40        3331.00           6581          41.00       178.29
  192.81        3331.25           6584          54.00       234.96
  192.84        3331.50           6588          45.00       195.73
  192.87        3331.75           6592          45.00       195.73
  192.90        3332.00           6595          52.00       226.24
  192.93        3332.25           6599          44.00       191.37
  192.96        3332.50           6603          46.00       200.09
  192.98        3332.75           6607          46.00       200.09
  193.01        3333.00           6610          49.00       213.17
  193.04        3333.25           6614          44.00       191.37
  193.07        3333.50           6618          40.00       173.93
  193.10        3333.75           6622          48.00       208.81
  193.13        3334.00           6625          49.00       213.17
  193.15        3334.25           6629          51.00       221.88
  193.18        3334.50           6633          40.00       173.93
  193.21        3334.75           6636          51.00       221.88
  193.24        3335.00           6640          57.00       248.04
  193.27        3335.25           6644          55.00       239.32
  193.30        3335.50           6648          62.00       269.84
  193.32        3335.75           6651          68.00       295.99
  193.35        3336.00           6655          73.00       317.79
  193.38        3336.25           6659         171.00       745.00
  193.42        3336.50           6663        1333.00      5811.39
  193.45        3336.75           6666        2774.00     12096.37
  193.48        3337.00           6670        4746.00     20701.17
  193.51        3337.25           6674        6977.00     30441.48
  193.54        3337.50           6677        8662.00     37801.79
  193.57        3337.75           6681       10463.00     45672.40
  193.60        3338.00           6685       12444.00     54333.92
  193.62        3338.25           6689       14711.00     64251.46
  193.66        3338.50           6692       16330.00     71337.78
  193.69        3338.75           6696       18114.00     79149.79
  193.72        3339.00           6700       19926.00     87088.18
  193.74        3339.25           6704       21808.00     95337.24
  193.77        3339.50           6707       23338.00    102046.50
  193.80        3339.75           6711       25734.00    112558.60
  193.83        3340.00           6715       27560.00    120574.40
  193.86        3340.25           6719       29498.00    129086.10
  193.89        3340.50           6722       30887.00    135189.30
  193.92        3340.75           6726       32487.00    142222.40
  193.94        3341.00           6730       34514.00    151136.60
  193.97        3341.25           6733       34971.00    153147.10
  194.00        3341.50           6737       35166.00    154005.00
  194.03        3341.75           6741       34978.00    153177.90
  194.07        3342.00           6745       34157.00    149566.30
  194.10        3342.25           6748       32779.00    143506.20
  194.14        3342.50           6752       30691.00    134328.00
  194.17        3342.75           6756       28596.00    125124.00
  194.19        3343.00           6760       26944.00    117869.90
  194.23        3343.25           6763       25253.00    110447.70
  194.26        3343.50           6767       23197.00    101428.00
  194.29        3343.75           6771       21368.00     93408.30
  194.31        3344.00           6775       19490.00     85177.71
  194.34        3344.25           6778       17987.00     78593.55
  194.37        3344.50           6782       16091.00     70291.50
  194.40        3344.75           6786       13883.00     60628.49
  194.43        3345.00           6790       11834.00     51666.34
  194.47        3345.25           6793       10287.00     44903.09
  194.49        3345.50           6797        8296.00     36202.77
  194.52        3345.75           6801        6486.00     28297.34
  194.55        3346.00           6805        4503.00     19640.60
  194.58        3346.25           6808        2917.00     12720.20
  194.61        3346.50           6812        1215.00      5296.83
  194.64        3346.75           6816         280.00      1220.18
  194.67        3347.00           6819         100.00       435.49
  194.69        3347.25           6823          64.00       278.56
  194.72        3347.50           6827          61.00       265.48
  194.75        3347.75           6831          56.00       243.68
  194.78        3348.00           6834          55.00       239.32
  194.81        3348.25           6838          55.00       239.32
  194.84        3348.50           6842          52.00       226.24
  194.87        3348.75           6846          50.00       217.53
  194.90        3349.00           6849          49.00       213.17
  194.93        3349.25           6853          53.00       230.60
  194.96        3349.50           6857          45.00       195.73
  194.99        3349.75           6861          45.00       195.73
  195.01        3350.00           6864          48.00       208.81
  195.04        3350.25           6868          45.00       195.73
  195.07        3350.50           6872          47.00       204.45
  195.10        3350.75           6876          49.00       213.17
  195.13        3351.00           6879          54.00       234.96
HL scan finished at 03:16:37
end
************************************************************
  HL Scan of (1) Internal mercury lamp
************************************************************
Integration time is 0.2294 seconds per sample
dh300517Delft 51.997-4.386 2.911481pr1000
************************************************************
Dead Time -------------------------  3E-08 
Number of Cycles Used -------------  4 
Starting Wavelength (Angstroms) ---  3331 
Final Wavelength (Angstoms) -------  3351 
Wavelength Increment (Angstroms) --  .25 
Filter Wheel #1 Position ---------- (1) Ground quartz diffuser (ND=2.32)
Filter Wheel #2 Position ---------- 



************************************************************
HL scan start time = 20:59:49
Dark Count =  .1 


Time (GMT)  Wavelength (Ang)  Step Number  Raw Counts  Counts/Second

 1260.58        3331.00           6581          41.00       178.29
 1260.99        3331.25           6584          51.00       221.88
 1261.02        3331.50           6588          49.00       213.17
 1261.05        3331.75           6592          47.00       204.45
 1261.07        3332.00           6595          50.00       217.53
 1261.10        3332.25           6599          48.00       208.81
 1261.13        3332.50           6603          50.00       217.53
 1261.16        3332.75           6607          49.00       213.17
 1261.18        3333.00           6610          41.00       178.29
 1261.21        3333.25           6614          51.00       221.88
 1261.24        3333.50           6618          44.00       191.37
 1261.27        3333.75           6622          43.00       187.01
 1261.30        3334.00           6625          43.00       187.01
 1261.33        3334.25           6629          50.00       217.53
 1261.35        3334.50           6633          56.00       243.68
 1261.39        3334.75           6636          51.00       221.88
 1261.42        3335.00           6640          55.00       239.32
 1261.44        3335.25           6644          61.00       265.48
 1261.47        3335.50           6648          61.00       265.48
 1261.50        3335.75           6651          70.00       304.71
 1261.53        3336.00           6655          85.00       370.10
 1261.55        3336.25           6659         282.00      1228.90
 1261.58        3336.50           6663        1843.00      8035.50
 1261.61        3336.75           6666        3104.00     13536.01
 1261.64        3337.00           6670        4882.00     21294.77
 1261.67        3337.25           6674        6679.00     29140.11
 1261.69        3337.50           6677        8066.00     35198.01
 1261.72        3337.75           6681       10155.00     44326.13
 1261.75        3338.00           6685       12455.00     54382.03
 1261.78        3338.25           6689       14426.00     63004.33
 1261.81        3338.50           6692       15739.00     68750.65
 1261.84        3338.75           6696       17645.00     77095.72
 1261.87        3339.00           6700       19879.00     86882.22
 1261.89        3339.25           6704       21782.00     95223.25
 1261.92        3339.50           6707       23274.00    101765.80
 1261.95        3339.75           6711       25279.00    110561.90
 1261.98        3340.00           6715       27173.00    118875.20
 1262.01        3340.25           6719       29115.00    127403.70
 1262.03        3340.50           6722       30946.00    135448.60
 1262.06        3340.75           6726       32773.00    143479.80
 1262.09        3341.00           6730       34593.00    151484.20
 1262.12        3341.25           6733       35312.00    154647.40
 1262.14        3341.50           6737       35343.00    154783.80
 1262.17        3341.75           6741       35385.00    154968.60
 1262.20        3342.00           6745       34443.00    150824.30
 1262.23        3342.25           6748       33329.00    145924.70
 1262.26        3342.50           6752       31636.00    138481.30
 1262.29        3342.75           6756       29267.00    128071.30
 1262.31        3343.00           6760       27167.00    118848.90
 1262.34        3343.25           6763       25615.00    112036.40
 1262.37        3343.50           6767       23756.00    103879.90
 1262.40        3343.75           6771       21963.00     96016.81
 1262.43        3344.00           6775       19990.00     87368.64
 1262.45        3344.25           6778       18370.00     80271.10
 1262.48        3344.50           6782       16533.00     72226.52
 1262.51        3344.75           6786       14545.00     63525.05
 1262.54        3345.00           6790       12294.00     53677.92
 1262.56        3345.25           6793       10685.00     46642.82
 1262.59        3345.50           6797        8503.00     37107.12
 1262.63        3345.75           6801        6444.00     28113.94
 1262.66        3346.00           6805        4549.00     19841.36
 1262.69        3346.25           6808        2956.00     12890.34
 1262.71        3346.50           6812        1032.00      4498.86
 1262.74        3346.75           6816         205.00       893.22
 1262.77        3347.00           6819         105.00       457.29
 1262.80        3347.25           6823          65.00       282.91
 1262.83        3347.50           6827          70.00       304.71
 1262.86        3347.75           6831          59.00       256.76
 1262.89        3348.00           6834          53.00       230.60
 1262.92        3348.25           6838          53.00       230.60
 1262.95        3348.50           6842          55.00       239.32
 1262.97        3348.75           6846          50.00       217.53
 1263.00        3349.00           6849          43.00       187.01
 1263.03        3349.25           6853          46.00       200.09
 1263.06        3349.50           6857          42.00       182.65
 1263.08        3349.75           6861          46.00       200.09
 1263.11        3350.00           6864          49.00       213.17
 1263.14        3350.25           6868          39.00       169.57
 1263.17        3350.50           6872          50.00       217.53
 1263.19        3350.75           6876          49.00       213.17
 1263.22        3351.00           6879          48.00       208.81
HL scan finished at 21:04:42
end
