************************************************************
  HL Scan of (1) Internal mercury lamp
************************************************************
Integration time is 0.2294 seconds per sample
dh310517Delft 51.997-4.386 2.857833pr1000
************************************************************
Dead Time -------------------------  3E-08 
Number of Cycles Used -------------  4 
Starting Wavelength (Angstroms) ---  3331 
Final Wavelength (Angstoms) -------  3351 
Wavelength Increment (Angstroms) --  .25 
Filter Wheel #1 Position ---------- (1) Ground quartz diffuser (ND=2.32)
Filter Wheel #2 Position ---------- 



************************************************************
HL scan start time = 01:54:18
Dark Count =  0 


Time (GMT)  Wavelength (Ang)  Step Number  Raw Counts  Counts/Second

  115.06        3331.00           6581          43.00       187.45
  115.47        3331.25           6584          48.00       209.24
  115.49        3331.50           6588          42.00       183.09
  115.52        3331.75           6592          46.00       200.52
  115.55        3332.00           6595          52.00       226.68
  115.59        3332.25           6599          55.00       239.76
  115.62        3332.50           6603          49.00       213.60
  115.64        3332.75           6607          45.00       196.17
  115.67        3333.00           6610          46.00       200.52
  115.70        3333.25           6614          47.00       204.88
  115.73        3333.50           6618          44.00       191.81
  115.75        3333.75           6622          52.00       226.68
  115.78        3334.00           6625          47.00       204.88
  115.81        3334.25           6629          48.00       209.24
  115.84        3334.50           6633          47.00       204.88
  115.86        3334.75           6636          55.00       239.76
  115.89        3335.00           6640          60.00       261.55
  115.92        3335.25           6644          61.00       265.91
  115.95        3335.50           6648          70.00       305.15
  115.97        3335.75           6651          64.00       278.99
  116.00        3336.00           6655          86.00       374.90
  116.03        3336.25           6659         326.00      1421.16
  116.06        3336.50           6663        1759.00      7669.59
  116.08        3336.75           6666        3020.00     13169.98
  116.11        3337.00           6670        5071.00     22120.17
  116.14        3337.25           6674        7142.00     31162.51
  116.17        3337.50           6677        8536.00     37251.72
  116.20        3337.75           6681       10359.00     45218.23
  116.22        3338.00           6685       12556.00     54824.19
  116.25        3338.25           6689       14715.00     64269.40
  116.28        3338.50           6692       16355.00     71447.68
  116.31        3338.75           6696       18599.00     81274.65
  116.34        3339.00           6700       20544.00     89796.96
  116.36        3339.25           6704       22482.00     98292.91
  116.39        3339.50           6707       24155.00    105630.60
  116.42        3339.75           6711       26230.00    114736.00
  116.45        3340.00           6715       27968.00    122366.40
  116.47        3340.25           6719       29712.00    130026.70
  116.50        3340.50           6722       31271.00    136877.40
  116.53        3340.75           6726       33019.00    144561.90
  116.56        3341.00           6730       35092.00    153679.90
  116.58        3341.25           6733       35644.00    156108.60
  116.61        3341.50           6737       35636.00    156073.40
  116.64        3341.75           6741       35768.00    156654.30
  116.67        3342.00           6745       34458.00    150890.80
  116.70        3342.25           6748       33117.00    144992.90
  116.72        3342.50           6752       31307.00    137035.60
  116.75        3342.75           6756       29582.00    129455.60
  116.78        3343.00           6760       27600.00    120750.50
  116.81        3343.25           6763       26150.00    114384.90
  116.83        3343.50           6767       23901.00    104516.40
  116.86        3343.75           6771       21679.00     94772.12
  116.89        3344.00           6775       19625.00     85769.66
  116.92        3344.25           6778       18126.00     79202.79
  116.95        3344.50           6782       16157.00     70580.85
  116.97        3344.75           6786       13869.00     60567.67
  117.00        3345.00           6790       11839.00     51688.64
  117.03        3345.25           6793       10544.00     46026.89
  117.06        3345.50           6797        8497.00     37081.33
  117.08        3345.75           6801        6701.00     29236.62
  117.11        3346.00           6805        4576.00     19959.64
  117.14        3346.25           6808        2835.00     12362.91
  117.17        3346.50           6812         954.00      4159.19
  117.19        3346.75           6816         199.00       867.50
  117.22        3347.00           6819          93.00       405.41
  117.25        3347.25           6823          71.00       309.51
  117.28        3347.50           6827          65.00       283.35
  117.30        3347.75           6831          62.00       270.27
  117.33        3348.00           6834          57.00       248.48
  117.36        3348.25           6838          51.00       222.32
  117.39        3348.50           6842          48.00       209.24
  117.42        3348.75           6846          54.00       235.40
  117.44        3349.00           6849          55.00       239.76
  117.47        3349.25           6853          46.00       200.52
  117.50        3349.50           6857          44.00       191.81
  117.53        3349.75           6861          49.00       213.60
  117.55        3350.00           6864          46.00       200.52
  117.58        3350.25           6868          47.00       204.88
  117.61        3350.50           6872          46.00       200.52
  117.64        3350.75           6876          52.00       226.68
  117.66        3351.00           6879          46.00       200.52
HL scan finished at 01:59:09
end
************************************************************
  HL Scan of (1) Internal mercury lamp
************************************************************
Integration time is 0.2294 seconds per sample
dh310517Delft 51.997-4.386 2.857833pr1000
************************************************************
Dead Time -------------------------  3E-08 
Number of Cycles Used -------------  4 
Starting Wavelength (Angstroms) ---  3331 
Final Wavelength (Angstoms) -------  3351 
Wavelength Increment (Angstroms) --  .25 
Filter Wheel #1 Position ---------- (1) Ground quartz diffuser (ND=2.32)
Filter Wheel #2 Position ---------- 



************************************************************
HL scan start time = 02:20:39
Dark Count =  .1 


Time (GMT)  Wavelength (Ang)  Step Number  Raw Counts  Counts/Second

  141.41        3331.00           6581          54.00       234.96
  141.82        3331.25           6584          47.00       204.45
  141.84        3331.50           6588          47.00       204.45
  141.87        3331.75           6592          45.00       195.73
  141.90        3332.00           6595          44.00       191.37
  141.93        3332.25           6599          45.00       195.73
  141.95        3332.50           6603          48.00       208.81
  141.98        3332.75           6607          47.00       204.45
  142.01        3333.00           6610          40.00       173.93
  142.04        3333.25           6614          46.00       200.09
  142.06        3333.50           6618          42.00       182.65
  142.09        3333.75           6622          43.00       187.01
  142.12        3334.00           6625          35.00       152.14
  142.15        3334.25           6629          46.00       200.09
  142.17        3334.50           6633          46.00       200.09
  142.20        3334.75           6636          47.00       204.45
  142.23        3335.00           6640          48.00       208.81
  142.26        3335.25           6644          58.00       252.40
  142.28        3335.50           6648          54.00       234.96
  142.31        3335.75           6651          64.00       278.56
  142.34        3336.00           6655          85.00       370.10
  142.37        3336.25           6659         182.00       792.96
  142.40        3336.50           6663        1474.00      6426.26
  142.42        3336.75           6666        2638.00     11503.10
  142.45        3337.00           6670        4309.00     18793.94
  142.48        3337.25           6674        6069.00     26476.56
  142.51        3337.50           6677        7461.00     32555.32
  142.53        3337.75           6681        9173.00     40034.54
  142.56        3338.00           6685       11249.00     49108.48
  142.59        3338.25           6689       13188.00     57588.08
  142.62        3338.50           6692       14510.00     63371.89
  142.65        3338.75           6696       16326.00     71320.28
  142.67        3339.00           6700       18027.00     78768.75
  142.70        3339.25           6704       19694.00     86071.58
  142.73        3339.50           6707       20938.00     91523.40
  142.76        3339.75           6711       22811.00     99735.21
  142.78        3340.00           6715       24458.00    106959.50
  142.81        3340.25           6719       26400.00    115481.80
  142.84        3340.50           6722       27868.00    121926.90
  142.87        3340.75           6726       29539.00    129266.20
  142.90        3341.00           6730       30986.00    135624.40
  142.93        3341.25           6733       31171.00    136437.40
  142.96        3341.50           6737       31283.00    136929.70
  142.98        3341.75           6741       31450.00    137663.70
  143.01        3342.00           6745       30547.00    133695.10
  143.04        3342.25           6748       29225.00    127886.90
  143.07        3342.50           6752       27607.00    120780.80
  143.10        3342.75           6756       25837.00    113010.70
  143.12        3343.00           6760       23967.00    104805.50
  143.15        3343.25           6763       22529.00     98498.57
  143.18        3343.50           6767       20726.00     90594.19
  143.21        3343.75           6771       19110.00     83512.81
  143.24        3344.00           6775       17400.00     76022.80
  143.27        3344.25           6778       15946.00     69656.75
  143.30        3344.50           6782       14404.00     62908.07
  143.32        3344.75           6786       12544.00     54771.27
  143.35        3345.00           6790       10737.00     46870.14
  143.38        3345.25           6793        9267.00     40445.30
  143.42        3345.50           6797        7340.00     32026.84
  143.45        3345.75           6801        5664.00     24708.37
  143.47        3346.00           6805        3914.00     17070.21
  143.50        3346.25           6808        2651.00     11559.81
  143.53        3346.50           6812        1013.00      4416.02
  143.56        3346.75           6816         213.00       928.10
  143.59        3347.00           6819          89.00       387.54
  143.62        3347.25           6823          61.00       265.48
  143.65        3347.50           6827          64.00       278.56
  143.67        3347.75           6831          50.00       217.53
  143.70        3348.00           6834          61.00       265.48
  143.73        3348.25           6838          54.00       234.96
  143.76        3348.50           6842          51.00       221.88
  143.78        3348.75           6846          43.00       187.01
  143.81        3349.00           6849          47.00       204.45
  143.84        3349.25           6853          46.00       200.09
  143.87        3349.50           6857          44.00       191.37
  143.89        3349.75           6861          42.00       182.65
  143.92        3350.00           6864          47.00       204.45
  143.95        3350.25           6868          41.00       178.29
  143.98        3350.50           6872          44.00       191.37
  144.00        3350.75           6876          47.00       204.45
  144.03        3351.00           6879          45.00       195.73
HL scan finished at 02:25:31
end
************************************************************
  HL Scan of (1) Internal mercury lamp
************************************************************
Integration time is 0.2294 seconds per sample
dh310517Delft 51.997-4.386 2.911481pr1000
************************************************************
Dead Time -------------------------  3E-08 
Number of Cycles Used -------------  4 
Starting Wavelength (Angstroms) ---  3331 
Final Wavelength (Angstoms) -------  3351 
Wavelength Increment (Angstroms) --  .25 
Filter Wheel #1 Position ---------- (1) Ground quartz diffuser (ND=2.32)
Filter Wheel #2 Position ---------- 



************************************************************
HL scan start time = 21:01:15
Dark Count =  0 


Time (GMT)  Wavelength (Ang)  Step Number  Raw Counts  Counts/Second

 1262.01        3331.00           6581          47.00       204.88
 1262.42        3331.25           6584          48.00       209.24
 1262.45        3331.50           6588          46.00       200.52
 1262.48        3331.75           6592          51.00       222.32
 1262.50        3332.00           6595          42.00       183.09
 1262.53        3332.25           6599          47.00       204.88
 1262.56        3332.50           6603          43.00       187.45
 1262.59        3332.75           6607          45.00       196.17
 1262.61        3333.00           6610          51.00       222.32
 1262.64        3333.25           6614          42.00       183.09
 1262.67        3333.50           6618          49.00       213.60
 1262.70        3333.75           6622          42.00       183.09
 1262.72        3334.00           6625          45.00       196.17
 1262.75        3334.25           6629          49.00       213.60
 1262.78        3334.50           6633          51.00       222.32
 1262.81        3334.75           6636          50.00       217.96
 1262.84        3335.00           6640          51.00       222.32
 1262.87        3335.25           6644          62.00       270.27
 1262.90        3335.50           6648          63.00       274.63
 1262.92        3335.75           6651          64.00       278.99
 1262.95        3336.00           6655          70.00       305.15
 1262.98        3336.25           6659         169.00       736.72
 1263.01        3336.50           6663        1386.00      6042.94
 1263.04        3336.75           6666        3000.00     13082.73
 1263.06        3337.00           6670        5118.00     22325.32
 1263.09        3337.25           6674        6923.00     30206.09
 1263.12        3337.50           6677        8351.00     36443.49
 1263.15        3337.75           6681       10224.00     44628.15
 1263.17        3338.00           6685       12293.00     53673.98
 1263.20        3338.25           6689       14303.00     62466.57
 1263.23        3338.50           6692       15528.00     67827.50
 1263.26        3338.75           6696       17415.00     76088.91
 1263.29        3339.00           6700       19465.00     85068.62
 1263.32        3339.25           6704       21693.00     94833.51
 1263.35        3339.50           6707       23077.00    100902.20
 1263.37        3339.75           6711       25214.00    110277.10
 1263.40        3340.00           6715       26773.00    117119.60
 1263.43        3340.25           6719       28840.00    126196.10
 1263.46        3340.50           6722       30189.00    132122.50
 1263.49        3340.75           6726       31864.00    139483.90
 1263.52        3341.00           6730       33431.00    146373.70
 1263.55        3341.25           6733       34312.00    150248.50
 1263.58        3341.50           6737       34297.00    150182.60
 1263.61        3341.75           6741       34454.00    150873.20
 1263.63        3342.00           6745       33388.00    146184.60
 1263.66        3342.25           6748       31987.00    140024.60
 1263.69        3342.50           6752       30181.00    132087.30
 1263.72        3342.75           6756       28018.00    122586.00
 1263.75        3343.00           6760       26099.00    114161.00
 1263.77        3343.25           6763       24860.00    108723.70
 1263.80        3343.50           6767       23338.00    102046.90
 1263.83        3343.75           6771       21201.00     92676.66
 1263.86        3344.00           6775       19181.00     83824.31
 1263.88        3344.25           6778       17663.00     77174.99
 1263.91        3344.50           6782       15514.00     67766.23
 1263.95        3344.75           6786       13521.00     59045.21
 1263.98        3345.00           6790       11576.00     50538.65
 1264.01        3345.25           6793       10242.00     44706.83
 1264.03        3345.50           6797        8262.00     36054.67
 1264.06        3345.75           6801        6381.00     27839.29
 1264.09        3346.00           6805        4612.00     20116.76
 1264.12        3346.25           6808        3207.00     13985.82
 1264.15        3346.50           6812        1249.00      5445.53
 1264.18        3346.75           6816         223.00       972.13
 1264.20        3347.00           6819          94.00       409.77
 1264.23        3347.25           6823          68.00       296.43
 1264.26        3347.50           6827          53.00       231.04
 1264.29        3347.75           6831          59.00       257.19
 1264.31        3348.00           6834          56.00       244.12
 1264.34        3348.25           6838          43.00       187.45
 1264.37        3348.50           6842          50.00       217.96
 1264.40        3348.75           6846          49.00       213.60
 1264.43        3349.00           6849          49.00       213.60
 1264.46        3349.25           6853          47.00       204.88
 1264.49        3349.50           6857          53.00       231.04
 1264.51        3349.75           6861          46.00       200.52
 1264.54        3350.00           6864          47.00       204.88
 1264.57        3350.25           6868          46.00       200.52
 1264.60        3350.50           6872          51.00       222.32
 1264.62        3350.75           6876          45.00       196.17
 1264.65        3351.00           6879          47.00       204.88
HL scan finished at 21:06:08
end
