************************************************************
  HL Scan of (1) Internal mercury lamp
************************************************************
Integration time is 0.2294 seconds per sample
dh300518Delft 52.017-4.35 3.072425pr1000
************************************************************
Dead Time -------------------------  2.7E-08 
Number of Cycles Used -------------  4 
Starting Wavelength (Angstroms) ---  3331 
Final Wavelength (Angstoms) -------  3351 
Wavelength Increment (Angstroms) --  .25 
Filter Wheel #1 Position ---------- (1) Ground quartz diffuser (ND=2.32)
Filter Wheel #2 Position ---------- 



************************************************************
HL scan start time = 03:09:25
Dark Count =  0 


Time (GMT)  Wavelength (Ang)  Step Number  Raw Counts  Counts/Second

  190.18        3331.00           6579          47.00       204.88
  190.58        3331.25           6582          42.00       183.09
  190.61        3331.50           6586          46.00       200.52
  190.64        3331.75           6590          43.00       187.45
  190.67        3332.00           6594          51.00       222.32
  190.70        3332.25           6597          45.00       196.16
  190.73        3332.50           6601          43.00       187.45
  190.76        3332.75           6605          43.00       187.45
  190.79        3333.00           6608          51.00       222.32
  190.81        3333.25           6612          45.00       196.16
  190.84        3333.50           6616          46.00       200.52
  190.87        3333.75           6620          44.00       191.81
  190.90        3334.00           6623          47.00       204.88
  190.93        3334.25           6627          46.00       200.52
  190.96        3334.50           6631          44.00       191.81
  190.99        3334.75           6635          46.00       200.52
  191.02        3335.00           6638          50.00       217.96
  191.05        3335.25           6642          59.00       257.19
  191.07        3335.50           6646          62.00       270.27
  191.10        3335.75           6649          69.00       300.79
  191.13        3336.00           6653          68.00       296.43
  191.16        3336.25           6657         100.00       435.92
  191.19        3336.50           6661         510.00      2223.32
  191.22        3336.75           6664        1874.00      8170.94
  191.25        3337.00           6668        4158.00     18134.42
  191.28        3337.25           6672        6201.00     27051.14
  191.30        3337.50           6676        8239.00     35950.31
  191.33        3337.75           6679        9723.00     42433.07
  191.36        3338.00           6683       11666.00     50924.38
  191.39        3338.25           6687       14122.00     61663.17
  191.42        3338.50           6690       15828.00     69126.28
  191.45        3338.75           6694       17704.00     77336.56
  191.48        3339.00           6698       19892.00     86916.90
  191.51        3339.25           6702       22175.00     96918.50
  191.53        3339.50           6705       23709.00    103641.80
  191.56        3339.75           6709       26164.00    114406.90
  191.59        3340.00           6713       28411.00    124265.40
  191.62        3340.25           6717       30225.00    132228.00
  191.65        3340.50           6720       31778.00    139047.60
  191.68        3340.75           6724       34104.00    149266.50
  191.70        3341.00           6728       35992.00    157565.10
  191.73        3341.25           6732       37312.00    163369.40
  191.76        3341.50           6735       37582.00    164556.90
  191.79        3341.75           6739       37823.00    165616.90
  191.82        3342.00           6743       37552.00    164425.00
  191.85        3342.25           6747       35851.00    156945.30
  191.87        3342.50           6750       34523.00    151107.90
  191.90        3342.75           6754       32599.00    142653.90
  191.93        3343.00           6758       30406.00    133022.70
  191.96        3343.25           6761       28830.00    126104.30
  191.99        3343.50           6765       26744.00    116951.10
  192.02        3343.75           6769       24955.00    109104.70
  192.05        3344.00           6773       22785.00     99591.77
  192.07        3344.25           6776       21173.00     92528.16
  192.10        3344.50           6780       18791.00     82095.46
  192.13        3344.75           6784       16356.00     71436.69
  192.16        3345.00           6788       14178.00     61908.10
  192.19        3345.25           6791       12599.00     55003.16
  192.22        3345.50           6795       10331.00     45089.74
  192.25        3345.75           6799        8020.00     34993.82
  192.27        3346.00           6803        5870.00     25606.19
  192.30        3346.25           6806        4528.00     19748.98
  192.33        3346.50           6810        2546.00     11101.85
  192.36        3346.75           6814         846.00      3688.25
  192.39        3347.00           6818         168.00       732.36
  192.42        3347.25           6821          75.00       326.94
  192.44        3347.50           6825          71.00       309.51
  192.47        3347.75           6829          66.00       287.71
  192.50        3348.00           6833          55.00       239.76
  192.53        3348.25           6836          59.00       257.19
  192.56        3348.50           6840          55.00       239.76
  192.58        3348.75           6844          50.00       217.96
  192.61        3349.00           6848          48.00       209.24
  192.64        3349.25           6851          51.00       222.32
  192.67        3349.50           6855          47.00       204.88
  192.70        3349.75           6859          53.00       231.04
  192.73        3350.00           6863          47.00       204.88
  192.76        3350.25           6866          51.00       222.32
  192.78        3350.50           6870          47.00       204.88
  192.81        3350.75           6874          53.00       231.04
  192.84        3351.00           6878          50.00       217.96
HL scan finished at 03:14:19
end
************************************************************
  HL Scan of (1) Internal mercury lamp
************************************************************
Integration time is 0.2294 seconds per sample
dh300518Delft 52.017-4.35 3.072425pr1000
************************************************************
Dead Time -------------------------  2.7E-08 
Number of Cycles Used -------------  4 
Starting Wavelength (Angstroms) ---  3331 
Final Wavelength (Angstoms) -------  3351 
Wavelength Increment (Angstroms) --  .25 
Filter Wheel #1 Position ---------- (1) Ground quartz diffuser (ND=2.32)
Filter Wheel #2 Position ---------- 



************************************************************
HL scan start time = 21:02:13
Dark Count =  .2 


Time (GMT)  Wavelength (Ang)  Step Number  Raw Counts  Counts/Second

 1262.97        3331.00           6579          45.00       195.29
 1263.38        3331.25           6582          41.00       177.86
 1263.41        3331.50           6586          48.00       208.37
 1263.44        3331.75           6590          47.00       204.01
 1263.47        3332.00           6594          48.00       208.37
 1263.50        3332.25           6597          43.00       186.57
 1263.52        3332.50           6601          38.00       164.78
 1263.55        3332.75           6605          41.00       177.86
 1263.58        3333.00           6608          41.00       177.86
 1263.61        3333.25           6612          44.00       190.93
 1263.64        3333.50           6616          53.00       230.17
 1263.67        3333.75           6620          47.00       204.01
 1263.69        3334.00           6623          45.00       195.29
 1263.72        3334.25           6627          51.00       221.45
 1263.75        3334.50           6631          48.00       208.37
 1263.78        3334.75           6635          50.00       217.09
 1263.81        3335.00           6638          43.00       186.57
 1263.84        3335.25           6642          52.00       225.81
 1263.86        3335.50           6646          61.00       265.04
 1263.89        3335.75           6649          68.00       295.56
 1263.92        3336.00           6653          64.00       278.12
 1263.95        3336.25           6657         121.00       526.60
 1263.98        3336.50           6661        1128.00      4916.96
 1264.01        3336.75           6664        2626.00     11449.92
 1264.03        3337.00           6668        4461.00     19455.73
 1264.06        3337.25           6672        6562.00     28626.30
 1264.09        3337.50           6676        8587.00     37469.45
 1264.12        3337.75           6679       10012.00     43694.94
 1264.15        3338.00           6683       12096.00     52803.22
 1264.18        3338.25           6687       14154.00     61802.26
 1264.21        3338.50           6690       15610.00     68171.58
 1264.24        3338.75           6694       17892.00     78158.68
 1264.26        3339.00           6698       20058.00     87643.07
 1264.29        3339.25           6702       22228.00     97149.88
 1264.32        3339.50           6705       23722.00    103698.00
 1264.35        3339.75           6709       25683.00    112296.40
 1264.38        3340.00           6713       27697.00    121131.40
 1264.41        3340.25           6717       29859.00    130620.30
 1264.44        3340.50           6720       31375.00    137276.90
 1264.46        3340.75           6724       33170.00    145161.60
 1264.49        3341.00           6728       35032.00    153344.10
 1264.52        3341.25           6732       36387.00    159301.00
 1264.55        3341.50           6735       36782.00    161037.80
 1264.58        3341.75           6739       36708.00    160712.40
 1264.61        3342.00           6743       36399.00    159353.70
 1264.63        3342.25           6747       34478.00    150909.20
 1264.66        3342.50           6750       33061.00    144682.70
 1264.69        3342.75           6754       30787.00    134694.70
 1264.72        3343.00           6758       28919.00    126494.10
 1264.75        3343.25           6761       27616.00    120775.90
 1264.78        3343.50           6765       25651.00    112156.00
 1264.80        3343.75           6769       23587.00    103106.20
 1264.83        3344.00           6773       21138.00     92373.96
 1264.86        3344.25           6776       19724.00     86180.25
 1264.89        3344.50           6780       17728.00     77440.75
 1264.92        3344.75           6784       15566.00     67979.06
 1264.95        3345.00           6788       13566.00     59230.66
 1264.98        3345.25           6791       11801.00     51513.63
 1265.01        3345.50           6795        9750.00     42550.17
 1265.03        3345.75           6799        7930.00     34599.88
 1265.06        3346.00           6803        5749.00     25077.13
 1265.09        3346.25           6806        4060.00     17705.93
 1265.12        3346.50           6810        1879.00      8191.87
 1265.15        3346.75           6814         406.00      1769.05
 1265.18        3347.00           6818         110.00       478.65
 1265.20        3347.25           6821          65.00       282.48
 1265.23        3347.50           6825          74.00       321.71
 1265.26        3347.75           6829          68.00       295.56
 1265.29        3348.00           6833          60.00       260.68
 1265.32        3348.25           6836          60.00       260.68
 1265.35        3348.50           6840          53.00       230.17
 1265.37        3348.75           6844          49.00       212.73
 1265.40        3349.00           6848          46.00       199.65
 1265.43        3349.25           6851          52.00       225.81
 1265.46        3349.50           6855          46.00       199.65
 1265.49        3349.75           6859          48.00       208.37
 1265.52        3350.00           6863          44.00       190.93
 1265.55        3350.25           6866          45.00       195.29
 1265.57        3350.50           6870          43.00       186.57
 1265.60        3350.75           6874          53.00       230.17
 1265.63        3351.00           6878          46.00       199.65
HL scan finished at 21:07:07
end
