************************************************************
  HL Scan of (1) Internal mercury lamp
************************************************************
Integration time is 0.2294 seconds per sample
dh020617Delft 51.997-4.386 2.965129pr1000
************************************************************
Dead Time -------------------------  3E-08 
Number of Cycles Used -------------  4 
Starting Wavelength (Angstroms) ---  3331 
Final Wavelength (Angstoms) -------  3351 
Wavelength Increment (Angstroms) --  .25 
Filter Wheel #1 Position ---------- (1) Ground quartz diffuser (ND=2.32)
Filter Wheel #2 Position ---------- 



************************************************************
HL scan start time = 01:25:54
Dark Count =  .1 


Time (GMT)  Wavelength (Ang)  Step Number  Raw Counts  Counts/Second

   86.66        3331.00           6581          55.00       239.32
   87.07        3331.25           6584          47.00       204.45
   87.09        3331.50           6588          50.00       217.53
   87.12        3331.75           6592          48.00       208.81
   87.15        3332.00           6595          48.00       208.81
   87.18        3332.25           6599          46.00       200.09
   87.20        3332.50           6603          48.00       208.81
   87.23        3332.75           6607          43.00       187.01
   87.26        3333.00           6610          46.00       200.09
   87.29        3333.25           6614          45.00       195.73
   87.32        3333.50           6618          41.00       178.29
   87.34        3333.75           6622          48.00       208.81
   87.37        3334.00           6625          47.00       204.45
   87.40        3334.25           6629          47.00       204.45
   87.43        3334.50           6633          51.00       221.88
   87.45        3334.75           6636          52.00       226.24
   87.48        3335.00           6640          54.00       234.96
   87.51        3335.25           6644          59.00       256.76
   87.54        3335.50           6648          65.00       282.91
   87.56        3335.75           6651          68.00       295.99
   87.59        3336.00           6655          77.00       335.23
   87.62        3336.25           6659         172.00       749.36
   87.65        3336.50           6663        1490.00      6496.04
   87.68        3336.75           6666        2829.00     12336.30
   87.71        3337.00           6670        5236.00     22839.97
   87.74        3337.25           6674        7592.00     33127.50
   87.76        3337.50           6677        9142.00     39899.09
   87.79        3337.75           6681       11043.00     48207.87
   87.82        3338.00           6685       13393.00     58484.83
   87.85        3338.25           6689       15409.00     67306.21
   87.88        3338.50           6692       16896.00     73815.86
   87.90        3338.75           6696       18751.00     81940.06
   87.93        3339.00           6700       20799.00     90914.15
   87.96        3339.25           6704       22792.00     99651.88
   87.99        3339.50           6707       24881.00    108815.40
   88.01        3339.75           6711       27104.00    118572.30
   88.04        3340.00           6715       29065.00    127184.00
   88.07        3340.25           6719       30937.00    135409.00
   88.10        3340.50           6722       32496.00    142261.90
   88.13        3340.75           6726       34424.00    150740.70
   88.15        3341.00           6730       36233.00    158700.10
   88.18        3341.25           6733       36952.00    161864.80
   88.21        3341.50           6737       37058.00    162331.40
   88.24        3341.75           6741       36970.00    161944.00
   88.26        3342.00           6745       36077.00    158013.60
   88.29        3342.25           6748       34364.00    150476.80
   88.32        3342.50           6752       32653.00    142952.20
   88.35        3342.75           6756       30321.00    132702.10
   88.38        3343.00           6760       28198.00    123376.00
   88.40        3343.25           6763       26546.00    116122.70
   88.43        3343.50           6767       24581.00    107499.10
   88.46        3343.75           6771       22792.00     99651.88
   88.49        3344.00           6775       20775.00     90808.96
   88.51        3344.25           6778       19068.00     83328.81
   88.54        3344.50           6782       16844.00     73588.18
   88.57        3344.75           6786       14545.00     63525.05
   88.60        3345.00           6790       12372.00     54019.03
   88.63        3345.25           6793       10894.00     47556.47
   88.66        3345.50           6797        8906.00     38867.88
   88.69        3345.75           6801        6832.00     29808.25
   88.72        3346.00           6805        4784.00     20867.03
   88.75        3346.25           6808        3291.00     14351.86
   88.78        3346.50           6812        1467.00      6395.74
   88.80        3346.75           6816         265.00      1154.79
   88.83        3347.00           6819          90.00       391.90
   88.86        3347.25           6823          72.00       313.43
   88.89        3347.50           6827          72.00       313.43
   88.91        3347.75           6831          58.00       252.40
   88.94        3348.00           6834          66.00       287.27
   88.97        3348.25           6838          57.00       248.04
   89.00        3348.50           6842          54.00       234.96
   89.02        3348.75           6846          48.00       208.81
   89.05        3349.00           6849          45.00       195.73
   89.08        3349.25           6853          48.00       208.81
   89.11        3349.50           6857          52.00       226.24
   89.13        3349.75           6861          52.00       226.24
   89.16        3350.00           6864          46.00       200.09
   89.19        3350.25           6868          45.00       195.73
   89.22        3350.50           6872          46.00       200.09
   89.24        3350.75           6876          53.00       230.60
   89.27        3351.00           6879          47.00       204.45
HL scan finished at 01:30:45
end
