************************************************************
  HL Scan of (1) Internal mercury lamp
************************************************************
Integration time is 0.2294 seconds per sample
dh310518Delft 52.017-4.35 3.018777pr1000
************************************************************
Dead Time -------------------------  2.7E-08 
Number of Cycles Used -------------  4 
Starting Wavelength (Angstroms) ---  3331 
Final Wavelength (Angstoms) -------  3351 
Wavelength Increment (Angstroms) --  .25 
Filter Wheel #1 Position ---------- (1) Ground quartz diffuser (ND=2.32)
Filter Wheel #2 Position ---------- 



************************************************************
HL scan start time = 02:20:33
Dark Count =  .2 


Time (GMT)  Wavelength (Ang)  Step Number  Raw Counts  Counts/Second

  141.32        3331.00           6579          44.00       190.93
  141.72        3331.25           6582          49.00       212.73
  141.75        3331.50           6586          47.00       204.01
  141.78        3331.75           6590          44.00       190.93
  141.81        3332.00           6594          40.00       173.50
  141.84        3332.25           6597          44.00       190.93
  141.87        3332.50           6601          46.00       199.65
  141.90        3332.75           6605          44.00       190.93
  141.92        3333.00           6608          44.00       190.93
  141.95        3333.25           6612          48.00       208.37
  141.98        3333.50           6616          45.00       195.29
  142.01        3333.75           6620          42.00       182.22
  142.04        3334.00           6623          44.00       190.93
  142.07        3334.25           6627          50.00       217.09
  142.09        3334.50           6631          45.00       195.29
  142.12        3334.75           6635          49.00       212.73
  142.15        3335.00           6638          53.00       230.17
  142.18        3335.25           6642          53.00       230.17
  142.21        3335.50           6646          67.00       291.20
  142.24        3335.75           6649          69.00       299.92
  142.27        3336.00           6653          66.00       286.84
  142.30        3336.25           6657          91.00       395.82
  142.32        3336.50           6661         735.00      3203.42
  142.35        3336.75           6664        2172.00      9469.73
  142.38        3337.00           6668        4007.00     17474.68
  142.41        3337.25           6672        5782.00     25221.18
  142.44        3337.50           6676        7616.00     33228.58
  142.47        3337.75           6679        9421.00     41112.75
  142.50        3338.00           6683       11446.00     49961.86
  142.52        3338.25           6687       13499.00     58937.66
  142.55        3338.50           6690       15064.00     65782.83
  142.58        3338.75           6694       17257.00     75379.07
  142.61        3339.00           6698       19392.00     84726.31
  142.64        3339.25           6702       21681.00     94753.00
  142.66        3339.50           6705       23048.00    100743.60
  142.69        3339.75           6709       25097.00    109726.50
  142.72        3340.00           6713       27404.00    119845.80
  142.75        3340.25           6717       29329.00    128293.70
  142.78        3340.50           6720       30609.00    133913.10
  142.81        3340.75           6724       32403.00    141792.00
  142.84        3341.00           6728       34267.00    149981.90
  142.87        3341.25           6732       35916.00    157230.20
  142.89        3341.50           6735       36585.00    160171.60
  142.92        3341.75           6739       36382.00    159279.00
  142.95        3342.00           6743       36272.00    158795.40
  142.98        3342.25           6747       34516.00    151076.20
  143.01        3342.50           6750       33187.00    145236.30
  143.04        3342.75           6754       31413.00    137443.70
  143.07        3343.00           6758       29298.00    128157.60
  143.10        3343.25           6761       27879.00    121930.00
  143.12        3343.50           6765       26123.00    114226.20
  143.15        3343.75           6769       23882.00    104399.40
  143.18        3344.00           6773       21625.00     94507.64
  143.21        3344.25           6776       20024.00     87494.16
  143.24        3344.50           6780       17875.00     78084.25
  143.27        3344.75           6784       15680.00     68477.85
  143.29        3345.00           6788       13575.00     59270.02
  143.32        3345.25           6791       11963.00     52221.80
  143.35        3345.50           6795        9790.00     42724.93
  143.38        3345.75           6799        7921.00     34560.57
  143.41        3346.00           6803        5953.00     25967.64
  143.44        3346.25           6806        4517.00     19700.10
  143.47        3346.50           6810        2510.00     10943.95
  143.49        3346.75           6814         715.00      3116.22
  143.52        3347.00           6818         160.00       696.61
  143.55        3347.25           6821          77.00       334.79
  143.58        3347.50           6825          67.00       291.20
  143.61        3347.75           6829          63.00       273.76
  143.64        3348.00           6833          61.00       265.04
  143.67        3348.25           6836          55.00       238.89
  143.69        3348.50           6840          56.00       243.24
  143.72        3348.75           6844          48.00       208.37
  143.75        3349.00           6848          47.00       204.01
  143.78        3349.25           6851          46.00       199.65
  143.81        3349.50           6855          46.00       199.65
  143.84        3349.75           6859          50.00       217.09
  143.86        3350.00           6863          48.00       208.37
  143.89        3350.25           6866          44.00       190.93
  143.92        3350.50           6870          45.00       195.29
  143.95        3350.75           6874          45.00       195.29
  143.98        3351.00           6878          41.00       177.86
HL scan finished at 02:25:27
end
