************************************************************
  HL Scan of (1) Internal mercury lamp
************************************************************
Integration time is 0.2294 seconds per sample
dh030617Delft 51.997-4.386 3.126073pr1000
************************************************************
Dead Time -------------------------  3E-08 
Number of Cycles Used -------------  4 
Starting Wavelength (Angstroms) ---  3331 
Final Wavelength (Angstoms) -------  3351 
Wavelength Increment (Angstroms) --  .25 
Filter Wheel #1 Position ---------- (1) Ground quartz diffuser (ND=2.32)
Filter Wheel #2 Position ---------- 



************************************************************
HL scan start time = 01:18:53
Dark Count =  .1 


Time (GMT)  Wavelength (Ang)  Step Number  Raw Counts  Counts/Second

   79.64        3331.00           6581          56.00       243.68
   80.05        3331.25           6584          47.00       204.45
   80.08        3331.50           6588          53.00       230.60
   80.11        3331.75           6592          45.00       195.73
   80.14        3332.00           6595          47.00       204.45
   80.17        3332.25           6599          52.00       226.24
   80.20        3332.50           6603          43.00       187.01
   80.23        3332.75           6607          43.00       187.01
   80.26        3333.00           6610          52.00       226.24
   80.29        3333.25           6614          51.00       221.88
   80.32        3333.50           6618          47.00       204.45
   80.35        3333.75           6622          44.00       191.37
   80.38        3334.00           6625          47.00       204.45
   80.41        3334.25           6629          49.00       213.17
   80.43        3334.50           6633          54.00       234.96
   80.46        3334.75           6636          61.00       265.48
   80.49        3335.00           6640          66.00       287.27
   80.53        3335.25           6644          62.00       269.84
   80.56        3335.50           6648          67.00       291.63
   80.59        3335.75           6651          71.00       309.07
   80.62        3336.00           6655          89.00       387.54
   80.65        3336.25           6659         400.00      1743.33
   80.68        3336.50           6663        2013.00      8776.94
   80.71        3336.75           6666        3538.00     15429.55
   80.74        3337.00           6670        5684.00     24795.68
   80.76        3337.25           6674        8082.00     35267.90
   80.79        3337.50           6677       10091.00     44046.40
   80.82        3337.75           6681       12289.00     53656.05
   80.85        3338.00           6685       14601.00     63770.10
   80.88        3338.25           6689       16991.00     74231.83
   80.91        3338.50           6692       18727.00     81834.93
   80.94        3338.75           6696       21171.00     92544.72
   80.97        3339.00           6700       23226.00    101555.20
   80.99        3339.25           6704       25516.00    111601.90
   81.02        3339.50           6707       27201.00    118998.20
   81.05        3339.75           6711       29633.00    129679.20
   81.08        3340.00           6715       32075.00    140411.10
   81.11        3340.25           6719       34747.00    152161.60
   81.14        3340.50           6722       36441.00    159615.60
   81.17        3340.75           6726       38379.00    168147.30
   81.20        3341.00           6730       40686.00    178309.20
   81.23        3341.25           6733       41082.00    180054.10
   81.26        3341.50           6737       41353.00    181248.30
   81.29        3341.75           6741       41329.00    181142.60
   81.32        3342.00           6745       40537.00    177652.70
   81.35        3342.25           6748       38628.00    169243.80
   81.38        3342.50           6752       36155.00    158356.90
   81.41        3342.75           6756       34105.00    149337.60
   81.44        3343.00           6760       31700.00    138762.60
   81.47        3343.25           6763       29999.00    131287.20
   81.50        3343.50           6767       28015.00    122572.40
   81.53        3343.75           6771       25374.00    110978.70
   81.57        3344.00           6775       23178.00    101344.70
   81.60        3344.25           6778       21574.00     94311.37
   81.63        3344.50           6782       19284.00     84275.14
   81.66        3344.75           6786       16689.00     72909.52
   81.69        3345.00           6790       13971.00     61013.50
   81.72        3345.25           6793       12127.00     52947.60
   81.75        3345.50           6797        9726.00     42451.15
   81.78        3345.75           6801        7512.00     32778.08
   81.81        3346.00           6805        4977.00     21709.43
   81.84        3346.25           6808        3018.00     13160.82
   81.86        3346.50           6812        1084.00      4725.60
   81.89        3346.75           6816         275.00      1198.39
   81.92        3347.00           6819         109.00       474.72
   81.95        3347.25           6823          75.00       326.51
   81.98        3347.50           6827          65.00       282.91
   82.01        3347.75           6831          66.00       287.27
   82.03        3348.00           6834          58.00       252.40
   82.06        3348.25           6838          58.00       252.40
   82.10        3348.50           6842          58.00       252.40
   82.13        3348.75           6846          63.00       274.20
   82.16        3349.00           6849          61.00       265.48
   82.19        3349.25           6853          53.00       230.60
   82.21        3349.50           6857          54.00       234.96
   82.24        3349.75           6861          49.00       213.17
   82.27        3350.00           6864          55.00       239.32
   82.30        3350.25           6868          53.00       230.60
   82.33        3350.50           6872          53.00       230.60
   82.36        3350.75           6876          55.00       239.32
   82.40        3351.00           6879          56.00       243.68
HL scan finished at 01:23:53
end
