************************************************************
  HL Scan of (1) Internal mercury lamp
************************************************************
Integration time is 0.2294 seconds per sample
dh140617Delft 51.997-4.386 2.750537pr1000
************************************************************
Dead Time -------------------------  3E-08 
Number of Cycles Used -------------  4 
Starting Wavelength (Angstroms) ---  3331 
Final Wavelength (Angstoms) -------  3351 
Wavelength Increment (Angstroms) --  .25 
Filter Wheel #1 Position ---------- (1) Ground quartz diffuser (ND=2.32)
Filter Wheel #2 Position ---------- 



************************************************************
HL scan start time = 02:05:30
Dark Count =  0 


Time (GMT)  Wavelength (Ang)  Step Number  Raw Counts  Counts/Second

  126.25        3331.00           6581          34.00       148.21
  126.66        3331.25           6584          42.00       183.09
  126.69        3331.50           6588          43.00       187.45
  126.72        3331.75           6592          43.00       187.45
  126.74        3332.00           6595          46.00       200.52
  126.77        3332.25           6599          44.00       191.81
  126.80        3332.50           6603          46.00       200.52
  126.83        3332.75           6607          45.00       196.17
  126.86        3333.00           6610          44.00       191.81
  126.88        3333.25           6614          47.00       204.88
  126.91        3333.50           6618          45.00       196.17
  126.94        3333.75           6622          43.00       187.45
  126.97        3334.00           6625          47.00       204.88
  126.99        3334.25           6629          48.00       209.24
  127.02        3334.50           6633          49.00       213.60
  127.05        3334.75           6636          50.00       217.96
  127.08        3335.00           6640          51.00       222.32
  127.11        3335.25           6644          50.00       217.96
  127.14        3335.50           6648          55.00       239.76
  127.17        3335.75           6651          65.00       283.35
  127.20        3336.00           6655          82.00       357.46
  127.22        3336.25           6659         462.00      2014.07
  127.25        3336.50           6663        2002.00      8729.40
  127.28        3336.75           6666        3311.00     14439.56
  127.31        3337.00           6670        5042.00     21993.59
  127.33        3337.25           6674        6686.00     29171.11
  127.36        3337.50           6677        7990.00     34866.44
  127.39        3337.75           6681        9673.00     42219.97
  127.42        3338.00           6685       11212.00     48947.15
  127.44        3338.25           6689       13280.00     57990.96
  127.47        3338.50           6692       14761.00     64470.69
  127.50        3338.75           6696       16725.00     73067.58
  127.53        3339.00           6700       18285.00     79899.22
  127.56        3339.25           6704       19929.00     87101.77
  127.58        3339.50           6707       21388.00     93496.40
  127.61        3339.75           6711       23115.00    101068.80
  127.64        3340.00           6715       24532.00    107284.60
  127.67        3340.25           6719       26367.00    115337.40
  127.70        3340.50           6722       27647.00    120956.90
  127.73        3340.75           6726       29332.00    128357.30
  127.76        3341.00           6730       31007.00    135717.10
  127.78        3341.25           6733       31354.00    137242.20
  127.81        3341.50           6737       31618.00    138402.60
  127.84        3341.75           6741       31363.00    137281.80
  127.87        3342.00           6745       30115.00    131797.40
  127.90        3342.25           6748       28859.00    126279.60
  127.92        3342.50           6752       27313.00    119490.40
  127.95        3342.75           6756       25821.00    112940.90
  127.98        3343.00           6760       23836.00    104231.30
  128.01        3343.25           6763       22446.00     98135.06
  128.03        3343.50           6767       20492.00     89569.04
  128.06        3343.75           6771       18960.00     82856.09
  128.09        3344.00           6775       17120.00     74797.12
  128.12        3344.25           6778       15849.00     69232.58
  128.15        3344.50           6782       14056.00     61385.83
  128.18        3344.75           6786       12140.00     53004.89
  128.21        3345.00           6790       10500.00     45834.57
  128.24        3345.25           6793        9238.00     40319.01
  128.27        3345.50           6797        7436.00     32446.56
  128.29        3345.75           6801        5458.00     23809.50
  128.32        3346.00           6805        3472.00     15142.01
  128.35        3346.25           6808        1998.00      8711.96
  128.38        3346.50           6812         587.00      2559.05
  128.40        3346.75           6816         132.00       575.42
  128.43        3347.00           6819          65.00       283.35
  128.46        3347.25           6823          70.00       305.15
  128.49        3347.50           6827          55.00       239.76
  128.51        3347.75           6831          48.00       209.24
  128.54        3348.00           6834          51.00       222.32
  128.57        3348.25           6838          48.00       209.24
  128.60        3348.50           6842          50.00       217.96
  128.63        3348.75           6846          45.00       196.17
  128.66        3349.00           6849          45.00       196.17
  128.69        3349.25           6853          39.00       170.01
  128.71        3349.50           6857          49.00       213.60
  128.74        3349.75           6861          49.00       213.60
  128.77        3350.00           6864          51.00       222.32
  128.80        3350.25           6868          42.00       183.09
  128.82        3350.50           6872          39.00       170.01
  128.85        3350.75           6876          50.00       217.96
  128.88        3351.00           6879          45.00       196.17
HL scan finished at 02:10:22
end
