************************************************************
  HL Scan of (1) Internal mercury lamp
************************************************************
Integration time is 0.2294 seconds per sample
dh110617Delft 51.997-4.386 2.911481pr1000
************************************************************
Dead Time -------------------------  3E-08 
Number of Cycles Used -------------  4 
Starting Wavelength (Angstroms) ---  3331 
Final Wavelength (Angstoms) -------  3351 
Wavelength Increment (Angstroms) --  .25 
Filter Wheel #1 Position ---------- (1) Ground quartz diffuser (ND=2.32)
Filter Wheel #2 Position ---------- 



************************************************************
HL scan start time = 01:34:30
Dark Count =  .2 


Time (GMT)  Wavelength (Ang)  Step Number  Raw Counts  Counts/Second

   95.25        3331.00           6581          44.00       190.93
   95.66        3331.25           6584          47.00       204.01
   95.69        3331.50           6588          43.00       186.57
   95.72        3331.75           6592          42.00       182.22
   95.75        3332.00           6595          43.00       186.57
   95.77        3332.25           6599          52.00       225.81
   95.80        3332.50           6603          45.00       195.29
   95.83        3332.75           6607          50.00       217.09
   95.86        3333.00           6610          49.00       212.73
   95.88        3333.25           6614          40.00       173.50
   95.91        3333.50           6618          45.00       195.29
   95.94        3333.75           6622          50.00       217.09
   95.97        3334.00           6625          50.00       217.09
   96.00        3334.25           6629          49.00       212.73
   96.03        3334.50           6633          49.00       212.73
   96.06        3334.75           6636          50.00       217.09
   96.08        3335.00           6640          58.00       251.96
   96.11        3335.25           6644          62.00       269.40
   96.14        3335.50           6648          57.00       247.60
   96.17        3335.75           6651          65.00       282.48
   96.19        3336.00           6655          73.00       317.35
   96.22        3336.25           6659         247.00      1075.88
   96.25        3336.50           6663        1718.00      7489.91
   96.28        3336.75           6666        3058.00     13334.89
   96.30        3337.00           6670        5239.00     22852.63
   96.33        3337.25           6674        7161.00     31244.62
   96.36        3337.50           6677        8534.00     37242.11
   96.39        3337.75           6681       10305.00     44981.33
   96.42        3338.00           6685       12147.00     53034.62
   96.45        3338.25           6689       14199.00     62010.64
   96.48        3338.50           6692       15984.00     69822.65
   96.50        3338.75           6696       18173.00     79407.78
   96.53        3339.00           6700       20149.00     88064.97
   96.56        3339.25           6704       21840.00     95477.10
   96.59        3339.50           6707       23454.00    102554.80
   96.61        3339.75           6711       25505.00    111553.20
   96.64        3340.00           6715       27490.00    120266.60
   96.67        3340.25           6719       29383.00    128580.50
   96.70        3340.50           6722       30606.00    133954.00
   96.73        3340.75           6726       32691.00    143118.90
   96.75        3341.00           6730       34394.00    150608.40
   96.78        3341.25           6733       35387.00    154976.90
   96.81        3341.50           6737       35464.00    155315.80
   96.84        3341.75           6741       35510.00    155518.10
   96.86        3342.00           6745       34311.00    150243.20
   96.90        3342.25           6748       32846.00    143800.40
   96.93        3342.50           6752       30934.00    135395.40
   96.95        3342.75           6756       29381.00    128571.70
   96.98        3343.00           6760       27536.00    120468.60
   97.01        3343.25           6763       25943.00    113475.50
   97.04        3343.50           6767       23754.00    103870.70
   97.06        3343.75           6771       21615.00     94490.68
   97.09        3344.00           6775       19701.00     86101.81
   97.12        3344.25           6778       18178.00     79429.68
   97.15        3344.50           6782       16302.00     71214.76
   97.18        3344.75           6786       14352.00     62680.09
   97.21        3345.00           6790       12257.00     53515.67
   97.24        3345.25           6793       10755.00     46948.38
   97.26        3345.50           6797        8903.00     38854.33
   97.30        3345.75           6801        6857.00     29916.99
   97.33        3346.00           6805        4604.00     20080.97
   97.36        3346.25           6808        2916.00     12715.40
   97.38        3346.50           6812         996.00      4341.45
   97.41        3346.75           6816         230.00      1001.77
   97.44        3347.00           6819          93.00       404.54
   97.47        3347.25           6823          67.00       291.20
   97.49        3347.50           6827          61.00       265.04
   97.52        3347.75           6831          61.00       265.04
   97.55        3348.00           6834          58.00       251.96
   97.58        3348.25           6838          54.00       234.53
   97.61        3348.50           6842          52.00       225.81
   97.64        3348.75           6846          51.00       221.45
   97.67        3349.00           6849          47.00       204.01
   97.69        3349.25           6853          50.00       217.09
   97.72        3349.50           6857          46.00       199.65
   97.75        3349.75           6861          43.00       186.57
   97.78        3350.00           6864          40.00       173.50
   97.80        3350.25           6868          49.00       212.73
   97.83        3350.50           6872          43.00       186.57
   97.86        3350.75           6876          50.00       217.09
   97.89        3351.00           6879          51.00       221.45
HL scan finished at 01:39:22
end
