************************************************************
  HL Scan of (1) Internal mercury lamp
************************************************************
Integration time is 0.2294 seconds per sample
dh120617Delft 51.997-4.386 2.857833pr1000
************************************************************
Dead Time -------------------------  3E-08 
Number of Cycles Used -------------  4 
Starting Wavelength (Angstroms) ---  3331 
Final Wavelength (Angstoms) -------  3351 
Wavelength Increment (Angstroms) --  .25 
Filter Wheel #1 Position ---------- (1) Ground quartz diffuser (ND=2.32)
Filter Wheel #2 Position ---------- 



************************************************************
HL scan start time = 01:34:34
Dark Count =  .1 


Time (GMT)  Wavelength (Ang)  Step Number  Raw Counts  Counts/Second

   95.33        3331.00           6581          44.00       191.37
   95.73        3331.25           6584          43.00       187.01
   95.76        3331.50           6588          45.00       195.73
   95.79        3331.75           6592          53.00       230.60
   95.82        3332.00           6595          47.00       204.45
   95.84        3332.25           6599          45.00       195.73
   95.87        3332.50           6603          41.00       178.29
   95.90        3332.75           6607          47.00       204.45
   95.93        3333.00           6610          56.00       243.68
   95.95        3333.25           6614          39.00       169.57
   95.98        3333.50           6618          42.00       182.65
   96.01        3333.75           6622          39.00       169.57
   96.04        3334.00           6625          38.00       165.21
   96.07        3334.25           6629          49.00       213.17
   96.09        3334.50           6633          48.00       208.81
   96.12        3334.75           6636          46.00       200.09
   96.15        3335.00           6640          59.00       256.76
   96.18        3335.25           6644          57.00       248.04
   96.20        3335.50           6648          63.00       274.20
   96.23        3335.75           6651          72.00       313.43
   96.26        3336.00           6655          84.00       365.74
   96.29        3336.25           6659         146.00       636.02
   96.31        3336.50           6663        1175.00      5122.41
   96.34        3336.75           6666        2551.00     11123.59
   96.37        3337.00           6670        4575.00     19954.84
   96.40        3337.25           6674        6726.00     29345.35
   96.42        3337.50           6677        8255.00     36023.66
   96.45        3337.75           6681        9875.00     43102.35
   96.48        3338.00           6685       12033.00     52536.54
   96.51        3338.25           6689       14192.00     61980.44
   96.54        3338.50           6692       15507.00     67735.15
   96.56        3338.75           6696       17139.00     74879.88
   96.59        3339.00           6700       18894.00     82566.51
   96.62        3339.25           6704       20826.00     91032.49
   96.65        3339.50           6707       22622.00     98906.39
   96.67        3339.75           6711       24491.00    107104.30
   96.70        3340.00           6715       26337.00    115205.30
   96.73        3340.25           6719       28100.00    122945.70
   96.76        3340.50           6722       29517.00    129169.60
   96.78        3340.75           6726       31152.00    136353.90
   96.81        3341.00           6730       33018.00    144557.10
   96.84        3341.25           6733       33445.00    146434.80
   96.87        3341.50           6737       33703.00    147569.50
   96.90        3341.75           6741       33647.00    147323.20
   96.92        3342.00           6745       32640.00    142895.10
   96.95        3342.25           6748       31396.00    137426.40
   96.98        3342.50           6752       29454.00    128892.80
   97.01        3342.75           6756       27522.00    120407.60
   97.03        3343.00           6760       25458.00    111347.40
   97.06        3343.25           6763       24145.00    105586.30
   97.09        3343.50           6767       22186.00     96994.56
   97.12        3343.75           6771       20726.00     90594.19
   97.15        3344.00           6775       18865.00     82439.47
   97.17        3344.25           6778       17289.00     75536.72
   97.20        3344.50           6782       15422.00     67363.12
   97.23        3344.75           6786       13156.00     57448.10
   97.26        3345.00           6790       11203.00     48907.37
   97.28        3345.25           6793        9919.00     43294.65
   97.31        3345.50           6797        8091.00     35307.22
   97.34        3345.75           6801        6313.00     27541.93
   97.37        3346.00           6805        4452.00     19418.02
   97.40        3346.25           6808        2900.00     12646.04
   97.42        3346.50           6812        1288.00      5615.16
   97.45        3346.75           6816         264.00      1150.43
   97.48        3347.00           6819          93.00       404.97
   97.51        3347.25           6823          60.00       261.12
   97.53        3347.50           6827          61.00       265.48
   97.56        3347.75           6831          62.00       269.84
   97.59        3348.00           6834          53.00       230.60
   97.62        3348.25           6838          48.00       208.81
   97.65        3348.50           6842          47.00       204.45
   97.68        3348.75           6846          48.00       208.81
   97.70        3349.00           6849          47.00       204.45
   97.74        3349.25           6853          43.00       187.01
   97.77        3349.50           6857          42.00       182.65
   97.79        3349.75           6861          44.00       191.37
   97.82        3350.00           6864          55.00       239.32
   97.85        3350.25           6868          49.00       213.17
   97.88        3350.50           6872          42.00       182.65
   97.91        3350.75           6876          44.00       191.37
   97.94        3351.00           6879          51.00       221.88
HL scan finished at 01:39:25
end
