************************************************************
  HL Scan of (1) Internal mercury lamp
************************************************************
Integration time is 0.2294 seconds per sample
dh150617Delft 51.997-4.386 2.857833pr1000
************************************************************
Dead Time -------------------------  3E-08 
Number of Cycles Used -------------  4 
Starting Wavelength (Angstroms) ---  3331 
Final Wavelength (Angstoms) -------  3351 
Wavelength Increment (Angstroms) --  .25 
Filter Wheel #1 Position ---------- (1) Ground quartz diffuser (ND=2.32)
Filter Wheel #2 Position ---------- 



************************************************************
HL scan start time = 00:25:12
Dark Count =  .1 


Time (GMT)  Wavelength (Ang)  Step Number  Raw Counts  Counts/Second

   25.95        3331.00           6581          45.00       195.73
   26.36        3331.25           6584          51.00       221.88
   26.39        3331.50           6588          52.00       226.24
   26.41        3331.75           6592          48.00       208.81
   26.44        3332.00           6595          42.00       182.65
   26.47        3332.25           6599          53.00       230.60
   26.50        3332.50           6603          50.00       217.53
   26.52        3332.75           6607          53.00       230.60
   26.55        3333.00           6610          47.00       204.45
   26.58        3333.25           6614          50.00       217.53
   26.61        3333.50           6618          51.00       221.88
   26.63        3333.75           6622          45.00       195.73
   26.66        3334.00           6625          42.00       182.65
   26.69        3334.25           6629          51.00       221.88
   26.72        3334.50           6633          41.00       178.29
   26.74        3334.75           6636          52.00       226.24
   26.77        3335.00           6640          52.00       226.24
   26.80        3335.25           6644          61.00       265.48
   26.83        3335.50           6648          71.00       309.07
   26.86        3335.75           6651          77.00       335.23
   26.88        3336.00           6655          83.00       361.38
   26.91        3336.25           6659         199.00       867.07
   26.94        3336.50           6663        1953.00      8515.25
   26.97        3336.75           6666        3645.00     15896.42
   26.99        3337.00           6670        5934.00     25887.14
   27.02        3337.25           6674        7970.00     34778.64
   27.05        3337.50           6677        9558.00     41716.96
   27.08        3337.75           6681       11884.00     51884.97
   27.10        3338.00           6685       14326.00     62566.76
   27.13        3338.25           6689       16723.00     73058.40
   27.16        3338.50           6692       18311.00     80012.68
   27.19        3338.75           6696       20589.00     89993.72
   27.21        3339.00           6700       22992.00    100529.00
   27.24        3339.25           6704       25677.00    112308.50
   27.27        3339.50           6707       27488.00    120258.30
   27.30        3339.75           6711       29751.00    130197.60
   27.33        3340.00           6715       31842.00    139386.80
   27.35        3340.25           6719       34358.00    150450.40
   27.38        3340.50           6722       35976.00    157569.10
   27.41        3340.75           6726       37812.00    165650.70
   27.44        3341.00           6730       39617.00    173599.70
   27.46        3341.25           6733       40825.00    178921.60
   27.49        3341.50           6737       40926.00    179366.70
   27.52        3341.75           6741       40782.00    178732.20
   27.55        3342.00           6745       39863.00    174683.30
   27.58        3342.25           6748       38163.00    167196.20
   27.60        3342.50           6752       36133.00    158260.10
   27.63        3342.75           6756       33768.00    147855.40
   27.66        3343.00           6760       31447.00    137650.50
   27.69        3343.25           6763       29958.00    131107.10
   27.71        3343.50           6767       27830.00    121760.00
   27.74        3343.75           6771       25533.00    111676.50
   27.77        3344.00           6775       23061.00    100831.60
   27.80        3344.25           6778       20978.00     91698.74
   27.83        3344.50           6782       18633.00     81423.15
   27.85        3344.75           6786       16348.00     71416.58
   27.88        3345.00           6790       13824.00     60370.36
   27.91        3345.25           6793       11988.00     52339.75
   27.94        3345.50           6797        9706.00     42363.75
   27.97        3345.75           6801        7581.00     33079.46
   28.00        3346.00           6805        5577.00     24328.56
   28.03        3346.25           6808        3875.00     16900.02
   28.05        3346.50           6812        1557.00      6788.22
   28.08        3346.75           6816         261.00      1137.35
   28.11        3347.00           6819         110.00       479.08
   28.14        3347.25           6823          73.00       317.79
   28.16        3347.50           6827          72.00       313.43
   28.19        3347.75           6831          59.00       256.76
   28.22        3348.00           6834          68.00       295.99
   28.25        3348.25           6838          58.00       252.40
   28.28        3348.50           6842          47.00       204.45
   28.31        3348.75           6846          56.00       243.68
   28.34        3349.00           6849          55.00       239.32
   28.37        3349.25           6853          50.00       217.53
   28.40        3349.50           6857          45.00       195.73
   28.43        3349.75           6861          48.00       208.81
   28.46        3350.00           6864          47.00       204.45
   28.49        3350.25           6868          49.00       213.17
   28.52        3350.50           6872          54.00       234.96
   28.55        3350.75           6876          57.00       248.04
   28.58        3351.00           6879          50.00       217.53
HL scan finished at 00:30:04
end
************************************************************
  HL Scan of (1) Internal mercury lamp
************************************************************
Integration time is 0.2294 seconds per sample
dh150617Delft 51.997-4.386 2.965129pr1000
************************************************************
Dead Time -------------------------  3E-08 
Number of Cycles Used -------------  4 
Starting Wavelength (Angstroms) ---  3331 
Final Wavelength (Angstoms) -------  3351 
Wavelength Increment (Angstroms) --  .25 
Filter Wheel #1 Position ---------- (1) Ground quartz diffuser (ND=2.32)
Filter Wheel #2 Position ---------- 



************************************************************
HL scan start time = 01:31:49
Dark Count =  .1 


Time (GMT)  Wavelength (Ang)  Step Number  Raw Counts  Counts/Second

   92.58        3331.00           6581          46.00       200.09
   92.99        3331.25           6584          47.00       204.45
   93.02        3331.50           6588          46.00       200.09
   93.05        3331.75           6592          46.00       200.09
   93.07        3332.00           6595          48.00       208.81
   93.10        3332.25           6599          52.00       226.24
   93.13        3332.50           6603          49.00       213.17
   93.15        3332.75           6607          49.00       213.17
   93.18        3333.00           6610          47.00       204.45
   93.21        3333.25           6614          45.00       195.73
   93.24        3333.50           6618          51.00       221.88
   93.27        3333.75           6622          40.00       173.93
   93.29        3334.00           6625          46.00       200.09
   93.32        3334.25           6629          50.00       217.53
   93.35        3334.50           6633          50.00       217.53
   93.38        3334.75           6636          45.00       195.73
   93.40        3335.00           6640          48.00       208.81
   93.43        3335.25           6644          49.00       213.17
   93.46        3335.50           6648          65.00       282.91
   93.49        3335.75           6651          67.00       291.63
   93.51        3336.00           6655          76.00       330.87
   93.54        3336.25           6659         200.00       871.43
   93.57        3336.50           6663        1638.00      7141.46
   93.60        3336.75           6666        2901.00     12650.40
   93.63        3337.00           6670        4831.00     21072.17
   93.65        3337.25           6674        6890.00     30061.54
   93.68        3337.50           6677        8409.00     36696.44
   93.71        3337.75           6681       10489.00     45786.04
   93.74        3338.00           6685       12793.00     55860.32
   93.77        3338.25           6689       14942.00     65262.36
   93.80        3338.50           6692       16713.00     73014.60
   93.84        3338.75           6696       18630.00     81410.01
   93.86        3339.00           6700       20646.00     90243.56
   93.89        3339.25           6704       22634.00     98959.01
   93.92        3339.50           6707       23772.00    103950.10
   93.95        3339.75           6711       25922.00    113383.70
   93.98        3340.00           6715       27914.00    122128.90
   94.01        3340.25           6719       30220.00    132258.30
   94.04        3340.50           6722       31848.00    139413.20
   94.07        3340.75           6726       33578.00    147019.70
   94.10        3341.00           6730       35124.00    153820.20
   94.12        3341.25           6733       35802.00    156803.50
   94.15        3341.50           6737       36065.00    157960.80
   94.18        3341.75           6741       35922.00    157331.50
   94.21        3342.00           6745       35087.00    153657.40
   94.24        3342.25           6748       33748.00    147767.40
   94.27        3342.50           6752       31885.00    139575.80
   94.29        3342.75           6756       29694.00    129947.20
   94.33        3343.00           6760       27576.00    120644.70
   94.36        3343.25           6763       25890.00    113243.30
   94.38        3343.50           6767       23947.00    104717.70
   94.41        3343.75           6771       22025.00     96288.64
   94.44        3344.00           6775       19911.00     87022.46
   94.47        3344.25           6778       18361.00     80231.68
   94.50        3344.50           6782       16428.00     71766.81
   94.53        3344.75           6786       14396.00     62873.06
   94.55        3345.00           6790       12410.00     54185.23
   94.58        3345.25           6793       10712.00     46760.85
   94.61        3345.50           6797        8468.00     36954.20
   94.64        3345.75           6801        6493.00     28327.90
   94.67        3346.00           6805        4570.00     19933.01
   94.69        3346.25           6808        3087.00     13461.84
   94.72        3346.50           6812        1183.00      5157.29
   94.75        3346.75           6816         244.00      1063.24
   94.78        3347.00           6819         102.00       444.21
   94.81        3347.25           6823          67.00       291.63
   94.84        3347.50           6827          63.00       274.20
   94.86        3347.75           6831          55.00       239.32
   94.90        3348.00           6834          56.00       243.68
   94.93        3348.25           6838          51.00       221.88
   94.95        3348.50           6842          56.00       243.68
   94.98        3348.75           6846          51.00       221.88
   95.01        3349.00           6849          46.00       200.09
   95.04        3349.25           6853          44.00       191.37
   95.06        3349.50           6857          53.00       230.60
   95.09        3349.75           6861          43.00       187.01
   95.12        3350.00           6864          53.00       230.60
   95.15        3350.25           6868          47.00       204.45
   95.17        3350.50           6872          53.00       230.60
   95.20        3350.75           6876          54.00       234.96
   95.23        3351.00           6879          46.00       200.09
HL scan finished at 01:36:43
end
