************************************************************
  HL Scan of (1) Internal mercury lamp
************************************************************
Integration time is 0.2294 seconds per sample
dh130617Delft 51.997-4.386 2.857833pr1000
************************************************************
Dead Time -------------------------  3E-08 
Number of Cycles Used -------------  4 
Starting Wavelength (Angstroms) ---  3331 
Final Wavelength (Angstoms) -------  3351 
Wavelength Increment (Angstroms) --  .25 
Filter Wheel #1 Position ---------- (1) Ground quartz diffuser (ND=2.32)
Filter Wheel #2 Position ---------- 



************************************************************
HL scan start time = 01:21:17
Dark Count =  .1 


Time (GMT)  Wavelength (Ang)  Step Number  Raw Counts  Counts/Second

   82.03        3331.00           6581          44.00       191.37
   82.44        3331.25           6584          50.00       217.53
   82.47        3331.50           6588          42.00       182.65
   82.50        3331.75           6592          50.00       217.53
   82.53        3332.00           6595          49.00       213.17
   82.55        3332.25           6599          46.00       200.09
   82.59        3332.50           6603          46.00       200.09
   82.62        3332.75           6607          44.00       191.37
   82.64        3333.00           6610          50.00       217.53
   82.67        3333.25           6614          42.00       182.65
   82.70        3333.50           6618          37.00       160.86
   82.73        3333.75           6622          44.00       191.37
   82.75        3334.00           6625          46.00       200.09
   82.78        3334.25           6629          45.00       195.73
   82.81        3334.50           6633          47.00       204.45
   82.84        3334.75           6636          54.00       234.96
   82.87        3335.00           6640          58.00       252.40
   82.89        3335.25           6644          55.00       239.32
   82.92        3335.50           6648          64.00       278.56
   82.95        3335.75           6651          64.00       278.56
   82.98        3336.00           6655          90.00       391.90
   83.00        3336.25           6659         227.00       989.13
   83.03        3336.50           6663        1380.00      6016.34
   83.06        3336.75           6666        2783.00     12135.63
   83.09        3337.00           6670        4843.00     21124.54
   83.11        3337.25           6674        6569.00     28659.77
   83.14        3337.50           6677        7855.00     34276.29
   83.17        3337.75           6681        9809.00     42813.89
   83.20        3338.00           6685       11867.00     51810.64
   83.23        3338.25           6689       14080.00     61490.40
   83.26        3338.50           6692       15675.00     68470.50
   83.29        3338.75           6696       17782.00     77695.72
   83.31        3339.00           6700       19744.00     86290.66
   83.34        3339.25           6704       21535.00     94140.40
   83.37        3339.50           6707       23208.00    101476.30
   83.40        3339.75           6711       24811.00    108508.30
   83.43        3340.00           6715       26500.00    115920.70
   83.45        3340.25           6719       28503.00    124715.50
   83.48        3340.50           6722       30182.00    132091.30
   83.51        3340.75           6726       31937.00    139804.40
   83.54        3341.00           6730       33535.00    146830.60
   83.56        3341.25           6733       34205.00    149777.40
   83.59        3341.50           6737       34272.00    150072.10
   83.62        3341.75           6741       34259.00    150015.00
   83.65        3342.00           6745       33301.00    145801.60
   83.68        3342.25           6748       32088.00    140468.20
   83.70        3342.50           6752       30456.00    133295.30
   83.73        3342.75           6756       28402.00    124272.00
   83.76        3343.00           6760       26323.00    115143.80
   83.79        3343.25           6763       25002.00    109346.40
   83.81        3343.50           6767       22830.00     99818.52
   83.84        3343.75           6771       20832.00     91058.80
   83.87        3344.00           6775       19035.00     83184.23
   83.90        3344.25           6778       17582.00     76819.82
   83.93        3344.50           6782       15373.00     67148.65
   83.95        3344.75           6786       13570.00     59259.14
   83.98        3345.00           6790       11763.00     51355.88
   84.01        3345.25           6793       10370.00     45265.88
   84.04        3345.50           6797        8400.00     36657.12
   84.06        3345.75           6801        6385.00     27856.31
   84.09        3346.00           6805        4287.00     18697.93
   84.12        3346.25           6808        2716.00     11843.35
   84.15        3346.50           6812        1039.00      4529.39
   84.18        3346.75           6816         231.00      1006.57
   84.20        3347.00           6819          98.00       426.77
   84.23        3347.25           6823          73.00       317.79
   84.26        3347.50           6827          62.00       269.84
   84.29        3347.75           6831          61.00       265.48
   84.32        3348.00           6834          50.00       217.53
   84.35        3348.25           6838          43.00       187.01
   84.37        3348.50           6842          44.00       191.37
   84.40        3348.75           6846          52.00       226.24
   84.43        3349.00           6849          42.00       182.65
   84.46        3349.25           6853          46.00       200.09
   84.49        3349.50           6857          46.00       200.09
   84.52        3349.75           6861          48.00       208.81
   84.54        3350.00           6864          44.00       191.37
   84.57        3350.25           6868          50.00       217.53
   84.60        3350.50           6872          43.00       187.01
   84.63        3350.75           6876          46.00       200.09
   84.66        3351.00           6879          48.00       208.81
HL scan finished at 01:26:08
end
