************************************************************
  HL Scan of (1) Internal mercury lamp
************************************************************
Integration time is 0.2294 seconds per sample
dh160617Delft 51.997-4.386 2.965129pr1000
************************************************************
Dead Time -------------------------  3E-08 
Number of Cycles Used -------------  4 
Starting Wavelength (Angstroms) ---  3331 
Final Wavelength (Angstoms) -------  3351 
Wavelength Increment (Angstroms) --  .25 
Filter Wheel #1 Position ---------- (1) Ground quartz diffuser (ND=2.32)
Filter Wheel #2 Position ---------- 



************************************************************
HL scan start time = 01:31:45
Dark Count =  .1 


Time (GMT)  Wavelength (Ang)  Step Number  Raw Counts  Counts/Second

   92.50        3331.00           6581          45.00       195.73
   92.91        3331.25           6584          48.00       208.81
   92.94        3331.50           6588          43.00       187.01
   92.97        3331.75           6592          47.00       204.45
   93.00        3332.00           6595          51.00       221.88
   93.02        3332.25           6599          47.00       204.45
   93.05        3332.50           6603          47.00       204.45
   93.08        3332.75           6607          47.00       204.45
   93.11        3333.00           6610          41.00       178.29
   93.13        3333.25           6614          50.00       217.53
   93.16        3333.50           6618          52.00       226.24
   93.19        3333.75           6622          42.00       182.65
   93.22        3334.00           6625          50.00       217.53
   93.24        3334.25           6629          47.00       204.45
   93.27        3334.50           6633          52.00       226.24
   93.30        3334.75           6636          49.00       213.17
   93.33        3335.00           6640          51.00       221.88
   93.36        3335.25           6644          56.00       243.68
   93.40        3335.50           6648          63.00       274.20
   93.43        3335.75           6651          63.00       274.20
   93.45        3336.00           6655          77.00       335.23
   93.48        3336.25           6659         303.00      1320.45
   93.51        3336.50           6663        1806.00      7874.14
   93.54        3336.75           6666        3223.00     14055.19
   93.56        3337.00           6670        5344.00     23311.42
   93.59        3337.25           6674        7291.00     31812.83
   93.62        3337.50           6677        8723.00     38068.31
   93.65        3337.75           6681       10310.00     45003.62
   93.67        3338.00           6685       12432.00     54281.44
   93.70        3338.25           6689       14574.00     63651.96
   93.73        3338.50           6692       16363.00     71482.25
   93.76        3338.75           6696       18417.00     80476.98
   93.79        3339.00           6700       20612.00     90094.54
   93.82        3339.25           6704       22283.00     97419.88
   93.85        3339.50           6707       23744.00    103827.30
   93.87        3339.75           6711       25953.00    113519.80
   93.90        3340.00           6715       27871.00    121940.00
   93.93        3340.25           6719       29612.00    129587.00
   93.96        3340.50           6722       31343.00    137193.40
   93.99        3340.75           6726       33133.00    145062.80
   94.01        3341.00           6730       35129.00    153842.20
   94.04        3341.25           6733       35848.00    157005.90
   94.07        3341.50           6737       35937.00    157397.50
   94.11        3341.75           6741       36067.00    157969.60
   94.14        3342.00           6745       34808.00    152430.00
   94.16        3342.25           6748       33372.00    146113.80
   94.19        3342.50           6752       31730.00    138894.50
   94.22        3342.75           6756       29742.00    130158.10
   94.25        3343.00           6760       27897.00    122054.20
   94.27        3343.25           6763       26260.00    114867.30
   94.30        3343.50           6767       24170.00    105696.00
   94.33        3343.75           6771       22074.00     96503.49
   94.36        3344.00           6775       19978.00     87316.06
   94.39        3344.25           6778       18402.00     80411.28
   94.42        3344.50           6782       16668.00     72817.58
   94.45        3344.75           6786       14492.00     63293.13
   94.47        3345.00           6790       12361.00     53970.93
   94.50        3345.25           6793       11067.00     48312.78
   94.53        3345.50           6797        9048.00     39488.34
   94.56        3345.75           6801        6833.00     29812.62
   94.58        3346.00           6805        4607.00     20094.50
   94.61        3346.25           6808        2845.00     12406.10
   94.64        3346.50           6812         910.00      3966.91
   94.67        3346.75           6816         216.00       941.18
   94.70        3347.00           6819          84.00       365.74
   94.72        3347.25           6823          66.00       287.27
   94.75        3347.50           6827          65.00       282.91
   94.78        3347.75           6831          55.00       239.32
   94.81        3348.00           6834          50.00       217.53
   94.83        3348.25           6838          51.00       221.88
   94.86        3348.50           6842          47.00       204.45
   94.89        3348.75           6846          52.00       226.24
   94.92        3349.00           6849          51.00       221.88
   94.94        3349.25           6853          46.00       200.09
   94.97        3349.50           6857          47.00       204.45
   95.00        3349.75           6861          59.00       256.76
   95.03        3350.00           6864          44.00       191.37
   95.05        3350.25           6868          51.00       221.88
   95.08        3350.50           6872          49.00       213.17
   95.11        3350.75           6876          49.00       213.17
   95.14        3351.00           6879          53.00       230.60
HL scan finished at 01:36:37
end
