************************************************************
  HL Scan of (1) Internal mercury lamp
************************************************************
Integration time is 0.2294 seconds per sample
dh170617Delft 51.997-4.386 2.911481pr1000
************************************************************
Dead Time -------------------------  3E-08 
Number of Cycles Used -------------  4 
Starting Wavelength (Angstroms) ---  3331 
Final Wavelength (Angstoms) -------  3351 
Wavelength Increment (Angstroms) --  .25 
Filter Wheel #1 Position ---------- (1) Ground quartz diffuser (ND=2.32)
Filter Wheel #2 Position ---------- 



************************************************************
HL scan start time = 01:26:16
Dark Count =  .1 


Time (GMT)  Wavelength (Ang)  Step Number  Raw Counts  Counts/Second

   87.03        3331.00           6581          48.00       208.81
   87.44        3331.25           6584          53.00       230.60
   87.47        3331.50           6588          49.00       213.17
   87.49        3331.75           6592          35.00       152.14
   87.52        3332.00           6595          48.00       208.81
   87.55        3332.25           6599          47.00       204.45
   87.58        3332.50           6603          52.00       226.24
   87.61        3332.75           6607          54.00       234.96
   87.64        3333.00           6610          51.00       221.88
   87.67        3333.25           6614          49.00       213.17
   87.70        3333.50           6618          41.00       178.29
   87.73        3333.75           6622          43.00       187.01
   87.75        3334.00           6625          44.00       191.37
   87.78        3334.25           6629          45.00       195.73
   87.81        3334.50           6633          51.00       221.88
   87.84        3334.75           6636          49.00       213.17
   87.87        3335.00           6640          56.00       243.68
   87.90        3335.25           6644          58.00       252.40
   87.93        3335.50           6648          65.00       282.91
   87.96        3335.75           6651          67.00       291.63
   87.99        3336.00           6655          81.00       352.66
   88.01        3336.25           6659         167.00       727.57
   88.04        3336.50           6663        1337.00      5828.83
   88.07        3336.75           6666        2857.00     12458.45
   88.10        3337.00           6670        5097.00     22233.22
   88.12        3337.25           6674        7419.00     32371.88
   88.15        3337.50           6677        8805.00     38426.58
   88.18        3337.75           6681       10739.00     46878.88
   88.21        3338.00           6685       12823.00     55991.54
   88.24        3338.25           6689       15182.00     66312.70
   88.27        3338.50           6692       16694.00     72931.41
   88.30        3338.75           6696       18599.00     81274.21
   88.32        3339.00           6700       20306.00     88753.44
   88.35        3339.25           6704       22421.00     98024.99
   88.38        3339.50           6707       24129.00    105516.10
   88.41        3339.75           6711       26301.00    115047.20
   88.44        3340.00           6715       28287.00    123766.90
   88.46        3340.25           6719       30217.00    132245.10
   88.49        3340.50           6722       31536.00    138041.70
   88.52        3340.75           6726       33341.00    145977.50
   88.55        3341.00           6730       35336.00    154753.00
   88.57        3341.25           6733       36037.00    157837.60
   88.60        3341.50           6737       36216.00    158625.30
   88.63        3341.75           6741       35875.00    157124.70
   88.66        3342.00           6745       35036.00    153433.10
   88.68        3342.25           6748       33438.00    146404.00
   88.71        3342.50           6752       31249.00    136780.30
   88.74        3342.75           6756       29570.00    129402.40
   88.77        3343.00           6760       27259.00    119252.80
   88.80        3343.25           6763       25646.00    112172.40
   88.82        3343.50           6767       23697.00    103621.10
   88.85        3343.75           6771       22124.00     96722.71
   88.88        3344.00           6775       20153.00     88082.94
   88.91        3344.25           6778       18606.00     81304.88
   88.93        3344.50           6782       16433.00     71788.71
   88.96        3344.75           6786       14134.00     61726.67
   88.99        3345.00           6790       11940.00     52129.85
   89.02        3345.25           6793       10580.00     46183.83
   89.05        3345.50           6797        8623.00     37631.39
   89.08        3345.75           6801        6708.00     29266.75
   89.11        3346.00           6805        4592.00     20029.03
   89.14        3346.25           6808        3086.00     13457.48
   89.17        3346.50           6812        1321.00      5759.06
   89.19        3346.75           6816         265.00      1154.79
   89.22        3347.00           6819          89.00       387.54
   89.25        3347.25           6823          57.00       248.04
   89.28        3347.50           6827          69.00       300.35
   89.31        3347.75           6831          65.00       282.91
   89.34        3348.00           6834          54.00       234.96
   89.37        3348.25           6838          56.00       243.68
   89.39        3348.50           6842          46.00       200.09
   89.42        3348.75           6846          45.00       195.73
   89.45        3349.00           6849          46.00       200.09
   89.48        3349.25           6853          50.00       217.53
   89.50        3349.50           6857          45.00       195.73
   89.53        3349.75           6861          55.00       239.32
   89.56        3350.00           6864          55.00       239.32
   89.59        3350.25           6868          47.00       204.45
   89.62        3350.50           6872          45.00       195.73
   89.65        3350.75           6876          52.00       226.24
   89.67        3351.00           6879          49.00       213.17
HL scan finished at 01:31:09
end
