************************************************************
  HL Scan of (1) Internal mercury lamp
************************************************************
Integration time is 0.2294 seconds per sample
dh220619El Arenosillo 37.1 6.73 3.072425pr1000
************************************************************
Dead Time -------------------------  2.8E-08 
Number of Cycles Used -------------  4 
Starting Wavelength (Angstroms) ---  3331 
Final Wavelength (Angstoms) -------  3351 
Wavelength Increment (Angstroms) --  .25 
Filter Wheel #1 Position ---------- (1) Ground quartz diffuser (ND=2.32)
Filter Wheel #2 Position ---------- 



************************************************************
HL scan start time = 01:15:15
Dark Count =  .4 


Time (GMT)  Wavelength (Ang)  Step Number  Raw Counts  Counts/Second

   76.01        3331.00           6582          45.00       194.42
   76.41        3331.25           6586          49.00       211.86
   76.44        3331.50           6589          48.00       207.50
   76.47        3331.75           6593          44.00       190.06
   76.50        3332.00           6597          42.00       181.34
   76.53        3332.25           6601          50.00       216.22
   76.56        3332.50           6604          48.00       207.50
   76.59        3332.75           6608          53.00       229.30
   76.62        3333.00           6612          44.00       190.06
   76.65        3333.25           6616          52.00       224.94
   76.68        3333.50           6619          49.00       211.86
   76.71        3333.75           6623          53.00       229.30
   76.74        3334.00           6627          51.00       220.58
   76.77        3334.25           6631          47.00       203.14
   76.80        3334.50           6634          53.00       229.30
   76.83        3334.75           6638          66.00       285.97
   76.85        3335.00           6642          58.00       251.09
   76.88        3335.25           6645          73.00       316.48
   76.91        3335.50           6649          75.00       325.20
   76.94        3335.75           6653          80.00       347.00
   76.97        3336.00           6657         130.00       564.96
   77.00        3336.25           6660         560.00      2439.57
   77.03        3336.50           6664        2841.00     12387.03
   77.06        3336.75           6668        5683.00     24788.78
   77.09        3337.00           6672        8517.00     37164.20
   77.12        3337.25           6675       10861.00     47406.39
   77.15        3337.50           6679       13726.00     59933.10
   77.18        3337.75           6683       16466.00     71921.50
   77.21        3338.00           6687       19327.00     84447.92
   77.24        3338.25           6690       21768.00     95142.39
   77.27        3338.50           6694       24560.00    107382.50
   77.30        3338.75           6698       26900.00    117647.60
   77.33        3339.00           6702       29569.00    129363.10
   77.36        3339.25           6705       31445.00    137602.40
   77.39        3339.50           6709       34637.00    151630.20
   77.42        3339.75           6713       37611.00    164709.90
   77.44        3340.00           6717       40070.00    175531.90
   77.48        3340.25           6720       41868.00    183449.10
   77.50        3340.50           6724       44241.00    193903.50
   77.53        3340.75           6728       46949.00    205841.20
   77.56        3341.00           6732       48528.00    212805.70
   77.59        3341.25           6735       48692.00    213529.20
   77.62        3341.50           6739       48618.00    213202.70
   77.65        3341.75           6743       48052.00    210705.90
   77.68        3342.00           6747       45584.00    199822.90
   77.71        3342.25           6750       43350.00    189977.40
   77.74        3342.50           6754       40648.00    178076.60
   77.77        3342.75           6758       38058.00    166676.70
   77.80        3343.00           6762       35149.00    153881.30
   77.83        3343.25           6765       32948.00    144206.20
   77.86        3343.50           6769       30262.00    132406.30
   77.89        3343.75           6773       27766.00    121448.00
   77.92        3344.00           6777       25360.00    110891.30
   77.95        3344.25           6780       23152.00    101208.80
   77.98        3344.50           6784       20136.00     87991.59
   78.01        3344.75           6788       17300.00     75572.13
   78.04        3345.00           6792       14385.00     62815.70
   78.07        3345.25           6795       12188.00     53207.37
   78.10        3345.50           6799        9866.00     43057.99
   78.13        3345.75           6803        7136.00     31132.62
   78.15        3346.00           6807        4182.00     18237.74
   78.18        3346.25           6810        2325.00     10136.27
   78.21        3346.50           6814         569.00      2478.81
   78.24        3346.75           6818         137.00       595.48
   78.27        3347.00           6822          95.00       412.38
   78.29        3347.25           6826          74.00       320.84
   78.32        3347.50           6829          68.00       294.68
   78.35        3347.75           6833          71.00       307.76
   78.38        3348.00           6837          54.00       233.65
   78.41        3348.25           6841          59.00       255.45
   78.44        3348.50           6844          56.00       242.37
   78.46        3348.75           6848          54.00       233.65
   78.49        3349.00           6852          53.00       229.30
   78.52        3349.25           6856          51.00       220.58
   78.55        3349.50           6859          57.00       246.73
   78.58        3349.75           6863          50.00       216.22
   78.61        3350.00           6867          50.00       216.22
   78.63        3350.25           6871          50.00       216.22
   78.66        3350.50           6874          52.00       224.94
   78.69        3350.75           6878          54.00       233.65
   78.72        3351.00           6882          48.00       207.50
HL scan finished at 01:20:12
end
************************************************************
  HL Scan of (1) Internal mercury lamp
************************************************************
Integration time is 0.2294 seconds per sample
dh220619El Arenosillo 37.1 6.73 2.965129pr1000
************************************************************
Dead Time -------------------------  2.8E-08 
Number of Cycles Used -------------  4 
Starting Wavelength (Angstroms) ---  3331 
Final Wavelength (Angstoms) -------  3351 
Wavelength Increment (Angstroms) --  .25 
Filter Wheel #1 Position ---------- (1) Ground quartz diffuser (ND=2.32)
Filter Wheel #2 Position ---------- 



************************************************************
HL scan start time = 03:40:56
Dark Count =  .3 


Time (GMT)  Wavelength (Ang)  Step Number  Raw Counts  Counts/Second

  221.69        3331.00           6582          43.00       186.14
  222.10        3331.25           6586          47.00       203.58
  222.13        3331.50           6589          44.00       190.50
  222.16        3331.75           6593          45.00       194.86
  222.19        3332.00           6597          46.00       199.22
  222.22        3332.25           6601          47.00       203.58
  222.24        3332.50           6604          48.00       207.93
  222.27        3332.75           6608          50.00       216.65
  222.30        3333.00           6612          49.00       212.29
  222.33        3333.25           6616          49.00       212.29
  222.36        3333.50           6619          47.00       203.58
  222.39        3333.75           6623          46.00       199.22
  222.41        3334.00           6627          41.00       177.42
  222.44        3334.25           6631          48.00       207.93
  222.47        3334.50           6634          47.00       203.58
  222.50        3334.75           6638          53.00       229.73
  222.53        3335.00           6642          54.00       234.09
  222.56        3335.25           6645          58.00       251.53
  222.59        3335.50           6649          61.00       264.61
  222.61        3335.75           6653          75.00       325.64
  222.64        3336.00           6657         118.00       513.08
  222.67        3336.25           6660         850.00      3704.39
  222.70        3336.50           6664        3088.00     13464.97
  222.73        3336.75           6668        5311.00     23165.42
  222.75        3337.00           6672        7585.00     33093.86
  222.78        3337.25           6675        9351.00     40808.16
  222.81        3337.50           6679       11748.00     51284.14
  222.84        3337.75           6683       13906.00     60720.85
  222.87        3338.00           6687       16283.00     71121.01
  222.90        3338.25           6690       17948.00     78409.53
  222.93        3338.50           6694       20552.00     89814.51
  222.95        3338.75           6698       23172.00    101296.90
  222.98        3339.00           6702       25517.00    111580.40
  223.01        3339.25           6705       27011.00    118135.10
  223.04        3339.50           6709       29313.00    128239.50
  223.07        3339.75           6713       31972.00    139918.10
  223.10        3340.00           6717       34064.00    149111.70
  223.13        3340.25           6720       35917.00    157258.90
  223.15        3340.50           6724       37983.00    166347.10
  223.18        3340.75           6728       40197.00    176091.50
  223.21        3341.00           6732       41851.00    183374.60
  223.24        3341.25           6735       41997.00    184017.60
  223.27        3341.50           6739       42174.00    184797.20
  223.30        3341.75           6743       41534.00    181978.50
  223.33        3342.00           6747       39317.00    172217.70
  223.35        3342.25           6750       37518.00    164301.20
  223.38        3342.50           6754       35357.00    154796.40
  223.41        3342.75           6758       33128.00    144997.70
  223.44        3343.00           6762       30772.00    134646.60
  223.47        3343.25           6765       29092.00    127269.20
  223.49        3343.50           6769       26620.00    116419.40
  223.52        3343.75           6773       24051.00    105150.90
  223.55        3344.00           6777       21834.00     95432.09
  223.58        3344.25           6780       19922.00     87054.57
  223.61        3344.50           6784       17809.00     77800.95
  223.64        3344.75           6788       15117.00     66018.61
  223.67        3345.00           6792       12712.00     55499.00
  223.70        3345.25           6795       10980.00     47926.96
  223.72        3345.50           6799        8820.00     38488.27
  223.75        3345.75           6803        6440.00     28094.02
  223.78        3346.00           6807        3715.00     16200.46
  223.81        3346.25           6810        1895.00      8261.28
  223.84        3346.50           6814         350.00      1524.48
  223.87        3346.75           6818         103.00       447.70
  223.89        3347.00           6822          85.00       369.23
  223.92        3347.25           6826          71.00       308.20
  223.95        3347.50           6829          67.00       290.76
  223.98        3347.75           6833          63.00       273.32
  224.01        3348.00           6837          67.00       290.76
  224.04        3348.25           6841          54.00       234.09
  224.06        3348.50           6844          55.00       238.45
  224.09        3348.75           6848          54.00       234.09
  224.12        3349.00           6852          48.00       207.93
  224.15        3349.25           6856          53.00       229.73
  224.18        3349.50           6859          46.00       199.22
  224.20        3349.75           6863          50.00       216.65
  224.23        3350.00           6867          48.00       207.93
  224.26        3350.25           6871          47.00       203.58
  224.29        3350.50           6874          48.00       207.93
  224.32        3350.75           6878          47.00       203.58
  224.35        3351.00           6882          51.00       221.01
HL scan finished at 03:45:50
end
