************************************************************
  HL Scan of (1) Internal mercury lamp
************************************************************
Integration time is 0.2294 seconds per sample
dh210617Delft 51.997-4.386 2.857833pr1000
************************************************************
Dead Time -------------------------  3E-08 
Number of Cycles Used -------------  4 
Starting Wavelength (Angstroms) ---  3331 
Final Wavelength (Angstoms) -------  3351 
Wavelength Increment (Angstroms) --  .25 
Filter Wheel #1 Position ---------- (1) Ground quartz diffuser (ND=2.32)
Filter Wheel #2 Position ---------- 



************************************************************
HL scan start time = 02:05:36
Dark Count =  .1 


Time (GMT)  Wavelength (Ang)  Step Number  Raw Counts  Counts/Second

  126.37        3331.00           6581          46.00       200.09
  126.78        3331.25           6584          43.00       187.01
  126.81        3331.50           6588          42.00       182.65
  126.84        3331.75           6592          53.00       230.60
  126.87        3332.00           6595          50.00       217.53
  126.89        3332.25           6599          46.00       200.09
  126.92        3332.50           6603          46.00       200.09
  126.95        3332.75           6607          45.00       195.73
  126.98        3333.00           6610          52.00       226.24
  127.00        3333.25           6614          42.00       182.65
  127.03        3333.50           6618          39.00       169.57
  127.06        3333.75           6622          46.00       200.09
  127.09        3334.00           6625          42.00       182.65
  127.12        3334.25           6629          52.00       226.24
  127.14        3334.50           6633          49.00       213.17
  127.17        3334.75           6636          47.00       204.45
  127.20        3335.00           6640          46.00       200.09
  127.23        3335.25           6644          56.00       243.68
  127.25        3335.50           6648          54.00       234.96
  127.28        3335.75           6651          62.00       269.84
  127.31        3336.00           6655          75.00       326.51
  127.34        3336.25           6659         346.00      1507.91
  127.37        3336.50           6663        1897.00      8271.02
  127.40        3336.75           6666        3085.00     13453.12
  127.42        3337.00           6670        4800.00     20936.86
  127.45        3337.25           6674        6497.00     28345.37
  127.48        3337.50           6677        7824.00     34140.88
  127.51        3337.75           6681        9896.00     43194.12
  127.54        3338.00           6685       11834.00     51666.34
  127.56        3338.25           6689       13782.00     60186.61
  127.59        3338.50           6692       15253.00     66623.44
  127.62        3338.75           6696       16902.00     73842.15
  127.65        3339.00           6700       18889.00     82544.62
  127.67        3339.25           6704       20774.00     90804.58
  127.70        3339.50           6707       22038.00     96345.64
  127.73        3339.75           6711       23949.00    104726.50
  127.76        3340.00           6715       25883.00    113212.60
  127.79        3340.25           6719       27659.00    121009.10
  127.81        3340.50           6722       29322.00    128312.90
  127.84        3340.75           6726       31162.00    136397.90
  127.87        3341.00           6730       32678.00    143062.10
  127.90        3341.25           6733       33226.00    145471.70
  127.92        3341.50           6737       33518.00    146755.90
  127.95        3341.75           6741       33336.00    145955.50
  127.98        3342.00           6745       32665.00    143005.00
  128.01        3342.25           6748       31384.00    137373.60
  128.04        3342.50           6752       29594.00    129507.90
  128.06        3342.75           6756       27411.00    119920.20
  128.09        3343.00           6760       25391.00    111053.30
  128.12        3343.25           6763       23997.00    104937.10
  128.15        3343.50           6767       22357.00     97744.35
  128.17        3343.75           6771       20571.00     89914.84
  128.20        3344.00           6775       18635.00     81431.91
  128.23        3344.25           6778       17136.00     74866.75
  128.26        3344.50           6782       15322.00     66925.43
  128.29        3344.75           6786       13429.00     58642.32
  128.31        3345.00           6790       11462.00     50039.76
  128.34        3345.25           6793        9992.00     43613.70
  128.37        3345.50           6797        7866.00     34324.34
  128.40        3345.75           6801        5824.00     25406.89
  128.42        3346.00           6805        4079.00     17790.23
  128.45        3346.25           6808        2661.00     11603.43
  128.48        3346.50           6812         831.00      3622.45
  128.51        3346.75           6816         177.00       771.16
  128.53        3347.00           6819          86.00       374.46
  128.56        3347.25           6823          62.00       269.84
  128.59        3347.50           6827          63.00       274.20
  128.62        3347.75           6831          55.00       239.32
  128.65        3348.00           6834          60.00       261.12
  128.68        3348.25           6838          50.00       217.53
  128.70        3348.50           6842          55.00       239.32
  128.73        3348.75           6846          48.00       208.81
  128.76        3349.00           6849          38.00       165.21
  128.79        3349.25           6853          45.00       195.73
  128.82        3349.50           6857          42.00       182.65
  128.84        3349.75           6861          50.00       217.53
  128.87        3350.00           6864          45.00       195.73
  128.90        3350.25           6868          45.00       195.73
  128.93        3350.50           6872          45.00       195.73
  128.95        3350.75           6876          47.00       204.45
  128.98        3351.00           6879          42.00       182.65
HL scan finished at 02:10:28
end
