************************************************************
  HL Scan of (1) Internal mercury lamp
************************************************************
Integration time is 0.2294 seconds per sample
dh230617Delft 51.997-4.386 2.965129pr1000
************************************************************
Dead Time -------------------------  3E-08 
Number of Cycles Used -------------  4 
Starting Wavelength (Angstroms) ---  3331 
Final Wavelength (Angstoms) -------  3351 
Wavelength Increment (Angstroms) --  .25 
Filter Wheel #1 Position ---------- (1) Ground quartz diffuser (ND=2.32)
Filter Wheel #2 Position ---------- 



************************************************************
HL scan start time = 01:31:29
Dark Count =  .1 


Time (GMT)  Wavelength (Ang)  Step Number  Raw Counts  Counts/Second

   92.23        3331.00           6581          43.00       187.01
   92.64        3331.25           6584          42.00       182.65
   92.67        3331.50           6588          48.00       208.81
   92.70        3331.75           6592          44.00       191.37
   92.72        3332.00           6595          38.00       165.21
   92.75        3332.25           6599          46.00       200.09
   92.78        3332.50           6603          45.00       195.73
   92.81        3332.75           6607          46.00       200.09
   92.84        3333.00           6610          49.00       213.17
   92.87        3333.25           6614          45.00       195.73
   92.89        3333.50           6618          51.00       221.88
   92.92        3333.75           6622          43.00       187.01
   92.95        3334.00           6625          44.00       191.37
   92.98        3334.25           6629          51.00       221.88
   93.00        3334.50           6633          47.00       204.45
   93.03        3334.75           6636          51.00       221.88
   93.06        3335.00           6640          55.00       239.32
   93.09        3335.25           6644          55.00       239.32
   93.12        3335.50           6648          59.00       256.76
   93.14        3335.75           6651          66.00       287.27
   93.17        3336.00           6655          90.00       391.90
   93.20        3336.25           6659         362.00      1577.67
   93.23        3336.50           6663        1750.00      7629.91
   93.25        3336.75           6666        3102.00     13527.28
   93.28        3337.00           6670        5321.00     23211.01
   93.31        3337.25           6674        7388.00     32236.48
   93.34        3337.50           6677        8777.00     38304.24
   93.36        3337.75           6681       10565.00     46118.26
   93.39        3338.00           6685       12837.00     56052.77
   93.42        3338.25           6689       15095.00     65931.94
   93.45        3338.50           6692       16989.00     74223.08
   93.47        3338.75           6696       19307.00     84375.91
   93.50        3339.00           6700       21047.00     92001.19
   93.53        3339.25           6704       23246.00    101642.90
   93.56        3339.50           6707       25010.00    109381.50
   93.59        3339.75           6711       26882.00    117597.70
   93.61        3340.00           6715       28751.00    125804.80
   93.64        3340.25           6719       30695.00    134345.50
   93.67        3340.50           6722       32131.00    140657.20
   93.70        3340.75           6726       34108.00    149350.80
   93.72        3341.00           6730       36165.00    158400.90
   93.75        3341.25           6733       36640.00    160491.40
   93.78        3341.50           6737       36888.00    161583.00
   93.81        3341.75           6741       36621.00    160407.80
   93.84        3342.00           6745       35550.00    155694.60
   93.86        3342.25           6748       33999.00    148871.30
   93.89        3342.50           6752       32155.00    140762.80
   93.92        3342.75           6756       30145.00    131928.70
   93.95        3343.00           6760       28321.00    123916.20
   93.98        3343.25           6763       26763.00    117075.30
   94.00        3343.50           6767       24437.00    106867.40
   94.03        3343.75           6771       22299.00     97490.03
   94.06        3344.00           6775       20304.00     88744.68
   94.09        3344.25           6778       18538.00     81007.00
   94.11        3344.50           6782       16484.00     72012.00
   94.15        3344.75           6786       14349.00     62667.41
   94.18        3345.00           6790       12270.00     53572.96
   94.21        3345.25           6793       10897.00     47569.59
   94.23        3345.50           6797        8832.00     38544.55
   94.26        3345.75           6801        6792.00     29633.57
   94.29        3346.00           6805        4512.00     19679.88
   94.32        3346.25           6808        2827.00     12327.58
   94.35        3346.50           6812        1001.00      4363.69
   94.37        3346.75           6816         218.00       949.90
   94.40        3347.00           6819          85.00       370.10
   94.43        3347.25           6823          68.00       295.99
   94.45        3347.50           6827          62.00       269.84
   94.48        3347.75           6831          50.00       217.53
   94.51        3348.00           6834          51.00       221.88
   94.54        3348.25           6838          52.00       226.24
   94.57        3348.50           6842          43.00       187.01
   94.59        3348.75           6846          51.00       221.88
   94.62        3349.00           6849          42.00       182.65
   94.65        3349.25           6853          51.00       221.88
   94.68        3349.50           6857          50.00       217.53
   94.70        3349.75           6861          51.00       221.88
   94.73        3350.00           6864          47.00       204.45
   94.76        3350.25           6868          50.00       217.53
   94.79        3350.50           6872          49.00       213.17
   94.82        3350.75           6876          48.00       208.81
   94.84        3351.00           6879          50.00       217.53
HL scan finished at 01:36:19
end
