************************************************************
  HL Scan of (1) Internal mercury lamp
************************************************************
Integration time is 0.2294 seconds per sample
dh260617Delft 51.997-4.386 2.911481pr1000
************************************************************
Dead Time -------------------------  3E-08 
Number of Cycles Used -------------  4 
Starting Wavelength (Angstroms) ---  3331 
Final Wavelength (Angstoms) -------  3351 
Wavelength Increment (Angstroms) --  .25 
Filter Wheel #1 Position ---------- (1) Ground quartz diffuser (ND=2.32)
Filter Wheel #2 Position ---------- 



************************************************************
HL scan start time = 01:34:37
Dark Count =  .1 


Time (GMT)  Wavelength (Ang)  Step Number  Raw Counts  Counts/Second

   95.38        3331.00           6581          46.00       200.09
   95.78        3331.25           6584          44.00       191.37
   95.81        3331.50           6588          49.00       213.17
   95.84        3331.75           6592          44.00       191.37
   95.87        3332.00           6595          43.00       187.01
   95.90        3332.25           6599          46.00       200.09
   95.92        3332.50           6603          44.00       191.37
   95.95        3332.75           6607          41.00       178.29
   95.98        3333.00           6610          48.00       208.81
   96.01        3333.25           6614          47.00       204.45
   96.03        3333.50           6618          41.00       178.29
   96.06        3333.75           6622          43.00       187.01
   96.09        3334.00           6625          47.00       204.45
   96.12        3334.25           6629          49.00       213.17
   96.14        3334.50           6633          53.00       230.60
   96.17        3334.75           6636          46.00       200.09
   96.20        3335.00           6640          45.00       195.73
   96.23        3335.25           6644          62.00       269.84
   96.25        3335.50           6648          58.00       252.40
   96.28        3335.75           6651          66.00       287.27
   96.31        3336.00           6655          80.00       348.30
   96.34        3336.25           6659         291.00      1268.14
   96.37        3336.50           6663        1598.00      6967.02
   96.40        3336.75           6666        2861.00     12475.90
   96.42        3337.00           6670        4717.00     20574.60
   96.45        3337.25           6674        6861.00     29934.89
   96.48        3337.50           6677        8489.00     37045.95
   96.51        3337.75           6681       10329.00     45086.67
   96.54        3338.00           6685       12373.00     54023.40
   96.56        3338.25           6689       14298.00     62444.25
   96.59        3338.50           6692       15779.00     68925.73
   96.62        3338.75           6696       17913.00     78269.45
   96.65        3339.00           6700       19788.00     86483.47
   96.68        3339.25           6704       21577.00     94324.52
   96.70        3339.50           6707       23143.00    101191.20
   96.73        3339.75           6711       25225.00    110324.90
   96.76        3340.00           6715       27205.00    119015.70
   96.79        3340.25           6719       29222.00    127873.70
   96.82        3340.50           6722       30814.00    134868.50
   96.84        3340.75           6726       32601.00    142723.60
   96.87        3341.00           6730       34574.00    151400.60
   96.90        3341.25           6733       34898.00    152825.90
   96.93        3341.50           6737       35113.00    153771.80
   96.96        3341.75           6741       35024.00    153380.30
   96.98        3342.00           6745       34547.00    151281.80
   97.01        3342.25           6748       33191.00    145317.90
   97.04        3342.50           6752       31069.00    135989.20
   97.07        3342.75           6756       28919.00    126542.70
   97.09        3343.00           6760       26981.00    118032.30
   97.12        3343.25           6763       25566.00    111821.30
   97.15        3343.50           6767       23846.00    104274.70
   97.18        3343.75           6771       21687.00     94806.76
   97.21        3344.00           6775       19979.00     87320.44
   97.23        3344.25           6778       18475.00     80731.03
   97.26        3344.50           6782       16536.00     72239.65
   97.29        3344.75           6786       14263.00     62291.11
   97.32        3345.00           6790       12043.00     52580.27
   97.34        3345.25           6793       10320.00     45047.33
   97.37        3345.50           6797        8391.00     36617.80
   97.40        3345.75           6801        6529.00     28485.10
   97.43        3346.00           6805        4317.00     18828.85
   97.45        3346.25           6808        2641.00     11516.19
   97.48        3346.50           6812        1009.00      4398.58
   97.51        3346.75           6816         240.00      1045.80
   97.54        3347.00           6819         102.00       444.21
   97.57        3347.25           6823          68.00       295.99
   97.59        3347.50           6827          57.00       248.04
   97.62        3347.75           6831          59.00       256.76
   97.65        3348.00           6834          63.00       274.20
   97.68        3348.25           6838          52.00       226.24
   97.70        3348.50           6842          45.00       195.73
   97.73        3348.75           6846          50.00       217.53
   97.76        3349.00           6849          49.00       213.17
   97.79        3349.25           6853          47.00       204.45
   97.81        3349.50           6857          52.00       226.24
   97.84        3349.75           6861          46.00       200.09
   97.87        3350.00           6864          50.00       217.53
   97.90        3350.25           6868          49.00       213.17
   97.92        3350.50           6872          50.00       217.53
   97.95        3350.75           6876          45.00       195.73
   97.98        3351.00           6879          43.00       187.01
HL scan finished at 01:39:28
end
