************************************************************
  HL Scan of (1) Internal mercury lamp
************************************************************
Integration time is 0.2294 seconds per sample
dh250617Delft 51.997-4.386 2.965129pr1000
************************************************************
Dead Time -------------------------  3E-08 
Number of Cycles Used -------------  4 
Starting Wavelength (Angstroms) ---  3331 
Final Wavelength (Angstoms) -------  3351 
Wavelength Increment (Angstroms) --  .25 
Filter Wheel #1 Position ---------- (1) Ground quartz diffuser (ND=2.32)
Filter Wheel #2 Position ---------- 



************************************************************
HL scan start time = 01:34:35
Dark Count =  .1 


Time (GMT)  Wavelength (Ang)  Step Number  Raw Counts  Counts/Second

   95.34        3331.00           6581          41.00       178.29
   95.75        3331.25           6584          44.00       191.37
   95.77        3331.50           6588          46.00       200.09
   95.80        3331.75           6592          47.00       204.45
   95.83        3332.00           6595          44.00       191.37
   95.86        3332.25           6599          51.00       221.88
   95.88        3332.50           6603          51.00       221.88
   95.91        3332.75           6607          44.00       191.37
   95.94        3333.00           6610          41.00       178.29
   95.97        3333.25           6614          43.00       187.01
   95.99        3333.50           6618          44.00       191.37
   96.02        3333.75           6622          41.00       178.29
   96.05        3334.00           6625          49.00       213.17
   96.08        3334.25           6629          49.00       213.17
   96.10        3334.50           6633          44.00       191.37
   96.13        3334.75           6636          57.00       248.04
   96.16        3335.00           6640          61.00       265.48
   96.19        3335.25           6644          60.00       261.12
   96.23        3335.50           6648          56.00       243.68
   96.26        3335.75           6651          76.00       330.87
   96.29        3336.00           6655          72.00       313.43
   96.31        3336.25           6659         304.00      1324.81
   96.34        3336.50           6663        1719.00      7494.71
   96.37        3336.75           6666        3030.00     13213.17
   96.40        3337.00           6670        4903.00     21386.43
   96.42        3337.25           6674        7013.00     30598.70
   96.45        3337.50           6677        8813.00     38461.54
   96.48        3337.75           6681       10748.00     46918.23
   96.51        3338.00           6685       12844.00     56083.39
   96.54        3338.25           6689       14813.00     64697.83
   96.57        3338.50           6692       16331.00     71342.15
   96.60        3338.75           6696       18585.00     81212.88
   96.62        3339.00           6700       20533.00     89748.29
   96.65        3339.25           6704       22557.00     98621.35
   96.68        3339.50           6707       23986.00    104888.80
   96.71        3339.75           6711       26117.00    114239.60
   96.74        3340.00           6715       28143.00    123134.50
   96.76        3340.25           6719       30401.00    133053.60
   96.79        3340.50           6722       31929.00    139769.30
   96.82        3340.75           6726       33869.00    148299.60
   96.85        3341.00           6730       35782.00    156715.40
   96.87        3341.25           6733       36237.00    158717.80
   96.90        3341.50           6737       36530.00    160007.30
   96.93        3341.75           6741       36409.00    159474.70
   96.96        3342.00           6745       35735.00    156508.60
   96.99        3342.25           6748       34361.00    150463.60
   97.01        3342.50           6752       32144.00    140714.40
   97.04        3342.75           6756       30081.00    131647.50
   97.07        3343.00           6760       28035.00    122660.20
   97.10        3343.25           6763       26497.00    115907.60
   97.12        3343.50           6767       24621.00    107674.60
   97.15        3343.75           6771       22573.00     98691.51
   97.18        3344.00           6775       20637.00     90204.11
   97.21        3344.25           6778       19013.00     83087.85
   97.24        3344.50           6782       17182.00     75068.18
   97.26        3344.75           6786       14675.00     64093.92
   97.29        3345.00           6790       12490.00     54535.10
   97.32        3345.25           6793       10845.00     47342.26
   97.35        3345.50           6797        8776.00     38299.87
   97.37        3345.75           6801        6713.00     29288.58
   97.40        3346.00           6805        4528.00     19749.71
   97.43        3346.25           6808        2711.00     11821.54
   97.46        3346.50           6812        1011.00      4407.30
   97.49        3346.75           6816         263.00      1146.07
   97.53        3347.00           6819         100.00       435.49
   97.56        3347.25           6823          70.00       304.71
   97.59        3347.50           6827          65.00       282.91
   97.62        3347.75           6831          64.00       278.56
   97.64        3348.00           6834          61.00       265.48
   97.67        3348.25           6838          53.00       230.60
   97.70        3348.50           6842          49.00       213.17
   97.73        3348.75           6846          53.00       230.60
   97.75        3349.00           6849          48.00       208.81
   97.78        3349.25           6853          45.00       195.73
   97.81        3349.50           6857          52.00       226.24
   97.84        3349.75           6861          45.00       195.73
   97.86        3350.00           6864          44.00       191.37
   97.89        3350.25           6868          47.00       204.45
   97.92        3350.50           6872          40.00       173.93
   97.95        3350.75           6876          54.00       234.96
   97.97        3351.00           6879          48.00       208.81
HL scan finished at 01:39:27
end
