************************************************************
  HL Scan of (1) Internal mercury lamp
************************************************************
Integration time is 0.2294 seconds per sample
dh220619El Arenosillo 37.1 6.73 3.072425pr1000
************************************************************
Dead Time -------------------------  2.8E-08 
Number of Cycles Used -------------  4 
Starting Wavelength (Angstroms) ---  3331 
Final Wavelength (Angstoms) -------  3351 
Wavelength Increment (Angstroms) --  .25 
Filter Wheel #1 Position ---------- (1) Ground quartz diffuser (ND=2.32)
Filter Wheel #2 Position ---------- 



************************************************************
HL scan start time = 01:15:15
Dark Count =  .4 


Time (GMT)  Wavelength (Ang)  Step Number  Raw Counts  Counts/Second

   76.01        3331.00           6582          45.00       194.42
   76.41        3331.25           6586          49.00       211.86
   76.44        3331.50           6589          48.00       207.50
   76.47        3331.75           6593          44.00       190.06
   76.50        3332.00           6597          42.00       181.34
   76.53        3332.25           6601          50.00       216.22
   76.56        3332.50           6604          48.00       207.50
   76.59        3332.75           6608          53.00       229.30
   76.62        3333.00           6612          44.00       190.06
   76.65        3333.25           6616          52.00       224.94
   76.68        3333.50           6619          49.00       211.86
   76.71        3333.75           6623          53.00       229.30
   76.74        3334.00           6627          51.00       220.58
   76.77        3334.25           6631          47.00       203.14
   76.80        3334.50           6634          53.00       229.30
   76.83        3334.75           6638          66.00       285.97
   76.85        3335.00           6642          58.00       251.09
   76.88        3335.25           6645          73.00       316.48
   76.91        3335.50           6649          75.00       325.20
   76.94        3335.75           6653          80.00       347.00
   76.97        3336.00           6657         130.00       564.96
   77.00        3336.25           6660         560.00      2439.57
   77.03        3336.50           6664        2841.00     12387.03
   77.06        3336.75           6668        5683.00     24788.78
   77.09        3337.00           6672        8517.00     37164.20
   77.12        3337.25           6675       10861.00     47406.39
   77.15        3337.50           6679       13726.00     59933.10
   77.18        3337.75           6683       16466.00     71921.50
   77.21        3338.00           6687       19327.00     84447.92
   77.24        3338.25           6690       21768.00     95142.39
   77.27        3338.50           6694       24560.00    107382.50
   77.30        3338.75           6698       26900.00    117647.60
   77.33        3339.00           6702       29569.00    129363.10
   77.36        3339.25           6705       31445.00    137602.40
   77.39        3339.50           6709       34637.00    151630.20
   77.42        3339.75           6713       37611.00    164709.90
   77.44        3340.00           6717       40070.00    175531.90
   77.48        3340.25           6720       41868.00    183449.10
   77.50        3340.50           6724       44241.00    193903.50
   77.53        3340.75           6728       46949.00    205841.20
   77.56        3341.00           6732       48528.00    212805.70
   77.59        3341.25           6735       48692.00    213529.20
   77.62        3341.50           6739       48618.00    213202.70
   77.65        3341.75           6743       48052.00    210705.90
   77.68        3342.00           6747       45584.00    199822.90
   77.71        3342.25           6750       43350.00    189977.40
   77.74        3342.50           6754       40648.00    178076.60
   77.77        3342.75           6758       38058.00    166676.70
   77.80        3343.00           6762       35149.00    153881.30
   77.83        3343.25           6765       32948.00    144206.20
   77.86        3343.50           6769       30262.00    132406.30
   77.89        3343.75           6773       27766.00    121448.00
   77.92        3344.00           6777       25360.00    110891.30
   77.95        3344.25           6780       23152.00    101208.80
   77.98        3344.50           6784       20136.00     87991.59
   78.01        3344.75           6788       17300.00     75572.13
   78.04        3345.00           6792       14385.00     62815.70
   78.07        3345.25           6795       12188.00     53207.37
   78.10        3345.50           6799        9866.00     43057.99
   78.13        3345.75           6803        7136.00     31132.62
   78.15        3346.00           6807        4182.00     18237.74
   78.18        3346.25           6810        2325.00     10136.27
   78.21        3346.50           6814         569.00      2478.81
   78.24        3346.75           6818         137.00       595.48
   78.27        3347.00           6822          95.00       412.38
   78.29        3347.25           6826          74.00       320.84
   78.32        3347.50           6829          68.00       294.68
   78.35        3347.75           6833          71.00       307.76
   78.38        3348.00           6837          54.00       233.65
   78.41        3348.25           6841          59.00       255.45
   78.44        3348.50           6844          56.00       242.37
   78.46        3348.75           6848          54.00       233.65
   78.49        3349.00           6852          53.00       229.30
   78.52        3349.25           6856          51.00       220.58
   78.55        3349.50           6859          57.00       246.73
   78.58        3349.75           6863          50.00       216.22
   78.61        3350.00           6867          50.00       216.22
   78.63        3350.25           6871          50.00       216.22
   78.66        3350.50           6874          52.00       224.94
   78.69        3350.75           6878          54.00       233.65
   78.72        3351.00           6882          48.00       207.50
HL scan finished at 01:20:12
end
