************************************************************
  HL Scan of (1) Internal mercury lamp
************************************************************
Integration time is 0.2294 seconds per sample
dh270617Delft 51.997-4.386 2.750537pr1000
************************************************************
Dead Time -------------------------  3E-08 
Number of Cycles Used -------------  4 
Starting Wavelength (Angstroms) ---  3331 
Final Wavelength (Angstoms) -------  3351 
Wavelength Increment (Angstroms) --  .25 
Filter Wheel #1 Position ---------- (1) Ground quartz diffuser (ND=2.32)
Filter Wheel #2 Position ---------- 



************************************************************
HL scan start time = 01:25:11
Dark Count =  .1 


Time (GMT)  Wavelength (Ang)  Step Number  Raw Counts  Counts/Second

   85.95        3331.00           6581          47.00       204.45
   86.36        3331.25           6584          42.00       182.65
   86.38        3331.50           6588          42.00       182.65
   86.41        3331.75           6592          45.00       195.73
   86.44        3332.00           6595          44.00       191.37
   86.47        3332.25           6599          46.00       200.09
   86.49        3332.50           6603          42.00       182.65
   86.53        3332.75           6607          45.00       195.73
   86.56        3333.00           6610          40.00       173.93
   86.58        3333.25           6614          43.00       187.01
   86.61        3333.50           6618          47.00       204.45
   86.64        3333.75           6622          39.00       169.57
   86.67        3334.00           6625          45.00       195.73
   86.69        3334.25           6629          45.00       195.73
   86.72        3334.50           6633          49.00       213.17
   86.75        3334.75           6636          48.00       208.81
   86.78        3335.00           6640          53.00       230.60
   86.81        3335.25           6644          54.00       234.96
   86.84        3335.50           6648          55.00       239.32
   86.86        3335.75           6651          60.00       261.12
   86.89        3336.00           6655          70.00       304.71
   86.92        3336.25           6659         181.00       788.60
   86.95        3336.50           6663        1176.00      5126.77
   86.98        3336.75           6666        2347.00     10233.74
   87.01        3337.00           6670        4200.00     18318.26
   87.04        3337.25           6674        5874.00     25625.18
   87.06        3337.50           6677        7347.00     32057.41
   87.09        3337.75           6681        9179.00     40060.76
   87.12        3338.00           6685       10961.00     47849.37
   87.15        3338.25           6689       12979.00     56673.88
   87.17        3338.50           6692       14202.00     62024.20
   87.20        3338.75           6696       15913.00     69512.30
   87.23        3339.00           6700       17484.00     76390.65
   87.26        3339.25           6704       19193.00     83876.46
   87.29        3339.50           6707       20449.00     89380.14
   87.31        3339.75           6711       22337.00     97656.66
   87.34        3340.00           6715       24049.00    105165.20
   87.37        3340.25           6719       25700.00    112409.40
   87.40        3340.50           6722       27051.00    118339.60
   87.42        3340.75           6726       28533.00    124847.30
   87.45        3341.00           6730       30213.00    132227.50
   87.48        3341.25           6733       30613.00    133985.20
   87.51        3341.50           6737       30921.00    135338.70
   87.54        3341.75           6741       30765.00    134653.10
   87.56        3342.00           6745       30051.00    131515.70
   87.59        3342.25           6748       28867.00    126314.30
   87.63        3342.50           6752       27117.00    118629.40
   87.66        3342.75           6756       25086.00    109714.90
   87.69        3343.00           6760       23485.00    102691.20
   87.71        3343.25           6763       22125.00     96727.10
   87.74        3343.50           6767       20411.00     89213.60
   87.77        3343.75           6771       18702.00     81725.41
   87.80        3344.00           6775       17012.00     74323.78
   87.82        3344.25           6778       15885.00     69389.73
   87.85        3344.50           6782       14146.00     61779.18
   87.88        3344.75           6786       12311.00     53752.26
   87.91        3345.00           6790       10467.00     45689.88
   87.94        3345.25           6793        9031.00     39414.06
   87.96        3345.50           6797        7276.00     31747.31
   87.99        3345.75           6801        5625.00     24538.11
   88.02        3346.00           6805        4013.00     17502.21
   88.05        3346.25           6808        2595.00     11315.52
   88.07        3346.50           6812         958.00      4176.20
   88.10        3346.75           6816         246.00      1071.96
   88.13        3347.00           6819         100.00       435.49
   88.16        3347.25           6823          58.00       252.40
   88.18        3347.50           6827          57.00       248.04
   88.21        3347.75           6831          58.00       252.40
   88.24        3348.00           6834          51.00       221.88
   88.27        3348.25           6838          47.00       204.45
   88.29        3348.50           6842          45.00       195.73
   88.32        3348.75           6846          48.00       208.81
   88.35        3349.00           6849          47.00       204.45
   88.38        3349.25           6853          44.00       191.37
   88.41        3349.50           6857          43.00       187.01
   88.44        3349.75           6861          41.00       178.29
   88.47        3350.00           6864          44.00       191.37
   88.49        3350.25           6868          43.00       187.01
   88.52        3350.50           6872          41.00       178.29
   88.55        3350.75           6876          45.00       195.73
   88.58        3351.00           6879          38.00       165.21
HL scan finished at 01:30:03
end
