************************************************************
  HL Scan of (1) Internal mercury lamp
************************************************************
Integration time is 0.2294 seconds per sample
dh240617Delft 51.997-4.386 2.965129pr1000
************************************************************
Dead Time -------------------------  3E-08 
Number of Cycles Used -------------  4 
Starting Wavelength (Angstroms) ---  3331 
Final Wavelength (Angstoms) -------  3351 
Wavelength Increment (Angstroms) --  .25 
Filter Wheel #1 Position ---------- (1) Ground quartz diffuser (ND=2.32)
Filter Wheel #2 Position ---------- 



************************************************************
HL scan start time = 01:23:09
Dark Count =  .1 


Time (GMT)  Wavelength (Ang)  Step Number  Raw Counts  Counts/Second

   83.91        3331.00           6581          48.00       208.81
   84.31        3331.25           6584          46.00       200.09
   84.34        3331.50           6588          46.00       200.09
   84.37        3331.75           6592          52.00       226.24
   84.40        3332.00           6595          46.00       200.09
   84.43        3332.25           6599          41.00       178.29
   84.45        3332.50           6603          43.00       187.01
   84.48        3332.75           6607          49.00       213.17
   84.51        3333.00           6610          41.00       178.29
   84.54        3333.25           6614          50.00       217.53
   84.56        3333.50           6618          46.00       200.09
   84.59        3333.75           6622          48.00       208.81
   84.62        3334.00           6625          44.00       191.37
   84.65        3334.25           6629          51.00       221.88
   84.68        3334.50           6633          41.00       178.29
   84.71        3334.75           6636          46.00       200.09
   84.73        3335.00           6640          50.00       217.53
   84.76        3335.25           6644          63.00       274.20
   84.79        3335.50           6648          63.00       274.20
   84.82        3335.75           6651          68.00       295.99
   84.84        3336.00           6655          78.00       339.59
   84.87        3336.25           6659         313.00      1364.05
   84.90        3336.50           6663        1805.00      7869.77
   84.93        3336.75           6666        3297.00     14378.04
   84.96        3337.00           6670        5461.00     23822.16
   84.98        3337.25           6674        7590.00     33118.77
   85.01        3337.50           6677        8872.00     38719.32
   85.04        3337.75           6681       10695.00     46686.53
   85.07        3338.00           6685       12714.00     55514.79
   85.09        3338.25           6689       14866.00     64929.76
   85.12        3338.50           6692       16669.00     72821.96
   85.15        3338.75           6696       19028.00     83153.56
   85.18        3339.00           6700       20778.00     90822.10
   85.21        3339.25           6704       22728.00     99371.22
   85.23        3339.50           6707       24176.00    105722.30
   85.26        3339.75           6711       26449.00    115696.90
   85.29        3340.00           6715       28277.00    123723.00
   85.32        3340.25           6719       30228.00    132293.40
   85.34        3340.50           6722       31858.00    139457.10
   85.37        3340.75           6726       33601.00    147120.90
   85.40        3341.00           6730       35433.00    155179.80
   85.43        3341.25           6733       36348.00    159206.30
   85.45        3341.50           6737       36607.00    160346.20
   85.48        3341.75           6741       36553.00    160108.50
   85.51        3342.00           6745       35341.00    154775.00
   85.54        3342.25           6748       33876.00    148330.40
   85.57        3342.50           6752       32002.00    140090.10
   85.59        3342.75           6756       30323.00    132710.90
   85.62        3343.00           6760       28426.00    124377.40
   85.65        3343.25           6763       26527.00    116039.30
   85.68        3343.50           6767       24607.00    107613.20
   85.71        3343.75           6771       22311.00     97542.65
   85.74        3344.00           6775       20212.00     88341.49
   85.76        3344.25           6778       18772.00     82032.06
   85.79        3344.50           6782       16825.00     73504.99
   85.82        3344.75           6786       14661.00     64032.66
   85.85        3345.00           6790       12390.00     54097.75
   85.87        3345.25           6793       11111.00     48505.15
   85.90        3345.50           6797        9166.00     40003.95
   85.93        3345.75           6801        7021.00     30633.63
   85.96        3346.00           6805        4622.00     20159.97
   85.98        3346.25           6808        2889.00     12598.05
   86.01        3346.50           6812         923.00      4023.59
   86.04        3346.75           6816         204.00       888.86
   86.07        3347.00           6819          91.00       396.26
   86.10        3347.25           6823          75.00       326.51
   86.12        3347.50           6827          65.00       282.91
   86.15        3347.75           6831          58.00       252.40
   86.18        3348.00           6834          61.00       265.48
   86.21        3348.25           6838          47.00       204.45
   86.23        3348.50           6842          48.00       208.81
   86.26        3348.75           6846          50.00       217.53
   86.29        3349.00           6849          46.00       200.09
   86.32        3349.25           6853          49.00       213.17
   86.34        3349.50           6857          42.00       182.65
   86.37        3349.75           6861          50.00       217.53
   86.40        3350.00           6864          41.00       178.29
   86.43        3350.25           6868          48.00       208.81
   86.45        3350.50           6872          46.00       200.09
   86.48        3350.75           6876          49.00       213.17
   86.51        3351.00           6879          49.00       213.17
HL scan finished at 01:27:59
end
