************************************************************
  HL Scan of (1) Internal mercury lamp
************************************************************
Integration time is 0.2294 seconds per sample
dh280617Delft 51.997-4.386 2.857833pr1000
************************************************************
Dead Time -------------------------  3E-08 
Number of Cycles Used -------------  4 
Starting Wavelength (Angstroms) ---  3331 
Final Wavelength (Angstoms) -------  3351 
Wavelength Increment (Angstroms) --  .25 
Filter Wheel #1 Position ---------- (1) Ground quartz diffuser (ND=2.32)
Filter Wheel #2 Position ---------- 



************************************************************
HL scan start time = 02:09:27
Dark Count =  .2 


Time (GMT)  Wavelength (Ang)  Step Number  Raw Counts  Counts/Second

  130.21        3331.00           6581          44.00       190.93
  130.62        3331.25           6584          47.00       204.01
  130.65        3331.50           6588          42.00       182.22
  130.68        3331.75           6592          47.00       204.01
  130.71        3332.00           6595          46.00       199.65
  130.73        3332.25           6599          44.00       190.93
  130.76        3332.50           6603          38.00       164.78
  130.79        3332.75           6607          41.00       177.86
  130.82        3333.00           6610          41.00       177.86
  130.84        3333.25           6614          44.00       190.93
  130.87        3333.50           6618          48.00       208.37
  130.90        3333.75           6622          42.00       182.22
  130.93        3334.00           6625          43.00       186.57
  130.95        3334.25           6629          42.00       182.22
  130.98        3334.50           6633          45.00       195.29
  131.01        3334.75           6636          56.00       243.25
  131.04        3335.00           6640          52.00       225.81
  131.07        3335.25           6644          57.00       247.60
  131.09        3335.50           6648          64.00       278.12
  131.12        3335.75           6651          66.00       286.84
  131.15        3336.00           6655          78.00       339.15
  131.18        3336.25           6659         191.00       831.76
  131.20        3336.50           6663        1374.00      5989.74
  131.23        3336.75           6666        2719.00     11856.00
  131.26        3337.00           6670        4825.00     21045.54
  131.29        3337.25           6674        6816.00     29737.94
  131.31        3337.50           6677        8168.00     35643.15
  131.34        3337.75           6681        9723.00     42437.61
  131.37        3338.00           6685       11818.00     51595.94
  131.40        3338.25           6689       14172.00     61892.50
  131.42        3338.50           6692       15395.00     67244.50
  131.45        3338.75           6696       17250.00     75365.51
  131.48        3339.00           6700       19426.00     84896.86
  131.51        3339.25           6704       21219.00     92754.69
  131.55        3339.50           6707       22735.00     99401.49
  131.57        3339.75           6711       25200.00    110214.70
  131.60        3340.00           6715       26948.00    117887.00
  131.63        3340.25           6719       28746.00    125782.40
  131.66        3340.50           6722       30292.00    132574.20
  131.68        3340.75           6726       32188.00    140907.40
  131.71        3341.00           6730       33782.00    147916.50
  131.74        3341.25           6733       34477.00    150973.50
  131.77        3341.50           6737       34464.00    150916.30
  131.80        3341.75           6741       34671.00    151826.90
  131.83        3342.00           6745       33529.00    146803.80
  131.86        3342.25           6748       32353.00    141632.80
  131.89        3342.50           6752       30662.00    134200.10
  131.92        3342.75           6756       28880.00    126371.00
  131.94        3343.00           6760       26814.00    117298.70
  131.97        3343.25           6763       25144.00    109969.00
  132.00        3343.50           6767       23298.00    101870.60
  132.03        3343.75           6771       21687.00     94806.33
  132.05        3344.00           6775       19795.00     86513.69
  132.08        3344.25           6778       18165.00     79372.75
  132.11        3344.50           6782       16143.00     70518.69
  132.14        3344.75           6786       13960.00     60964.93
  132.16        3345.00           6790       11902.00     51963.24
  132.19        3345.25           6793       10286.00     44898.28
  132.22        3345.50           6797        8366.00     36508.15
  132.25        3345.75           6801        6260.00     27310.08
  132.28        3346.00           6805        4445.00     19387.03
  132.30        3346.25           6808        3080.00     13430.87
  132.33        3346.50           6812        1300.00      5667.05
  132.36        3346.75           6816         307.00      1337.46
  132.39        3347.00           6819         114.00       496.08
  132.41        3347.25           6823          64.00       278.12
  132.44        3347.50           6827          69.00       299.92
  132.47        3347.75           6831          61.00       265.04
  132.50        3348.00           6834          54.00       234.53
  132.52        3348.25           6838          47.00       204.01
  132.55        3348.50           6842          48.00       208.37
  132.58        3348.75           6846          47.00       204.01
  132.61        3349.00           6849          46.00       199.65
  132.63        3349.25           6853          48.00       208.37
  132.66        3349.50           6857          37.00       160.42
  132.69        3349.75           6861          45.00       195.29
  132.72        3350.00           6864          50.00       217.09
  132.74        3350.25           6868          46.00       199.65
  132.77        3350.50           6872          51.00       221.45
  132.80        3350.75           6876          46.00       199.65
  132.83        3351.00           6879          54.00       234.53
HL scan finished at 02:14:19
end
