************************************************************
  HL Scan of (1) Internal mercury lamp
************************************************************
Integration time is 0.2294 seconds per sample
dh040717Delft 51.997-4.386 3.018777pr1000
************************************************************
Dead Time -------------------------  3E-08 
Number of Cycles Used -------------  4 
Starting Wavelength (Angstroms) ---  3331 
Final Wavelength (Angstoms) -------  3351 
Wavelength Increment (Angstroms) --  .25 
Filter Wheel #1 Position ---------- (1) Ground quartz diffuser (ND=2.32)
Filter Wheel #2 Position ---------- 



************************************************************
HL scan start time = 02:57:54
Dark Count =  .1 


Time (GMT)  Wavelength (Ang)  Step Number  Raw Counts  Counts/Second

  178.66        3331.00           6581          41.00       178.29
  179.07        3331.25           6584          44.00       191.37
  179.10        3331.50           6588          43.00       187.01
  179.13        3331.75           6592          45.00       195.73
  179.16        3332.00           6595          50.00       217.53
  179.19        3332.25           6599          49.00       213.17
  179.22        3332.50           6603          48.00       208.81
  179.24        3332.75           6607          44.00       191.37
  179.27        3333.00           6610          45.00       195.73
  179.30        3333.25           6614          42.00       182.65
  179.33        3333.50           6618          46.00       200.09
  179.35        3333.75           6622          51.00       221.88
  179.38        3334.00           6625          48.00       208.81
  179.41        3334.25           6629          49.00       213.17
  179.44        3334.50           6633          52.00       226.24
  179.46        3334.75           6636          54.00       234.96
  179.49        3335.00           6640          54.00       234.96
  179.52        3335.25           6644          58.00       252.40
  179.55        3335.50           6648          63.00       274.20
  179.57        3335.75           6651          66.00       287.27
  179.60        3336.00           6655          78.00       339.59
  179.63        3336.25           6659         171.00       745.00
  179.66        3336.50           6663        1494.00      6513.48
  179.69        3336.75           6666        2898.00     12637.31
  179.71        3337.00           6670        5316.00     23189.19
  179.74        3337.25           6674        7648.00     33372.11
  179.77        3337.50           6677        9228.00     40274.88
  179.80        3337.75           6681       11222.00     48990.44
  179.82        3338.00           6685       13423.00     58616.07
  179.85        3338.25           6689       15677.00     68479.25
  179.88        3338.50           6692       17286.00     75523.59
  179.91        3338.75           6696       19239.00     84077.99
  179.94        3339.00           6700       21223.00     92772.68
  179.96        3339.25           6704       23420.00    102406.10
  179.99        3339.50           6707       25280.00    110566.20
  180.02        3339.75           6711       27607.00    120780.80
  180.05        3340.00           6715       29443.00    128844.50
  180.08        3340.25           6719       31369.00    137307.70
  180.10        3340.50           6722       33122.00    145014.40
  180.13        3340.75           6726       35095.00    153692.60
  180.16        3341.00           6730       36986.00    162014.40
  180.19        3341.25           6733       37622.00    164814.20
  180.21        3341.50           6737       37760.00    165421.80
  180.24        3341.75           6741       37630.00    164849.40
  180.27        3342.00           6745       36797.00    161182.50
  180.30        3342.25           6748       35067.00    153569.40
  180.33        3342.50           6752       33075.00    144807.70
  180.36        3342.75           6756       31014.00    135747.40
  180.39        3343.00           6760       28413.00    124320.30
  180.42        3343.25           6763       27103.00    118567.90
  180.45        3343.50           6767       25066.00    109627.20
  180.48        3343.75           6771       23278.00    101783.30
  180.51        3344.00           6775       21384.00     93478.44
  180.53        3344.25           6778       19521.00     85313.54
  180.56        3344.50           6782       17171.00     75020.00
  180.59        3344.75           6786       14725.00     64312.72
  180.62        3345.00           6790       12619.00     55099.29
  180.64        3345.25           6793       11067.00     48312.78
  180.67        3345.50           6797        9063.00     39553.88
  180.70        3345.75           6801        7071.00     30852.00
  180.73        3346.00           6805        4867.00     21229.30
  180.76        3346.25           6808        3354.00     14626.73
  180.78        3346.50           6812        1502.00      6548.37
  180.81        3346.75           6816         270.00      1176.59
  180.84        3347.00           6819          94.00       409.33
  180.87        3347.25           6823          70.00       304.71
  180.89        3347.50           6827          61.00       265.48
  180.92        3347.75           6831          65.00       282.91
  180.95        3348.00           6834          50.00       217.53
  180.98        3348.25           6838          48.00       208.81
  181.00        3348.50           6842          58.00       252.40
  181.03        3348.75           6846          47.00       204.45
  181.06        3349.00           6849          48.00       208.81
  181.09        3349.25           6853          47.00       204.45
  181.12        3349.50           6857          47.00       204.45
  181.14        3349.75           6861          41.00       178.29
  181.17        3350.00           6864          47.00       204.45
  181.20        3350.25           6868          44.00       191.37
  181.22        3350.50           6872          39.00       169.57
  181.26        3350.75           6876          49.00       213.17
  181.29        3351.00           6879          48.00       208.81
HL scan finished at 03:02:46
end
