************************************************************
  HL Scan of (1) Internal mercury lamp
************************************************************
Integration time is 0.2294 seconds per sample
dh080717Delft 51.997-4.386 3.018777pr1000
************************************************************
Dead Time -------------------------  3E-08 
Number of Cycles Used -------------  4 
Starting Wavelength (Angstroms) ---  3331 
Final Wavelength (Angstoms) -------  3351 
Wavelength Increment (Angstroms) --  .25 
Filter Wheel #1 Position ---------- (1) Ground quartz diffuser (ND=2.32)
Filter Wheel #2 Position ---------- 



************************************************************
HL scan start time = 01:23:08
Dark Count =  .1 


Time (GMT)  Wavelength (Ang)  Step Number  Raw Counts  Counts/Second

   83.88        3331.00           6581          42.00       182.65
   84.29        3331.25           6584          53.00       230.60
   84.32        3331.50           6588          43.00       187.01
   84.35        3331.75           6592          46.00       200.09
   84.37        3332.00           6595          41.00       178.29
   84.40        3332.25           6599          45.00       195.73
   84.43        3332.50           6603          49.00       213.17
   84.46        3332.75           6607          43.00       187.01
   84.48        3333.00           6610          45.00       195.73
   84.51        3333.25           6614          41.00       178.29
   84.54        3333.50           6618          46.00       200.09
   84.57        3333.75           6622          41.00       178.29
   84.60        3334.00           6625          43.00       187.01
   84.62        3334.25           6629          48.00       208.81
   84.65        3334.50           6633          49.00       213.17
   84.68        3334.75           6636          48.00       208.81
   84.71        3335.00           6640          55.00       239.32
   84.73        3335.25           6644          61.00       265.48
   84.76        3335.50           6648          56.00       243.68
   84.79        3335.75           6651          71.00       309.07
   84.82        3336.00           6655          71.00       309.07
   84.84        3336.25           6659         273.00      1189.67
   84.87        3336.50           6663        1845.00      8044.23
   84.90        3336.75           6666        3331.00     14526.38
   84.93        3337.00           6670        5692.00     24830.61
   84.95        3337.25           6674        7820.00     34123.41
   84.98        3337.50           6677        9314.00     40650.68
   85.02        3337.75           6681       11055.00     48260.32
   85.04        3338.00           6685       13321.00     58169.87
   85.07        3338.25           6689       15522.00     67800.81
   85.10        3338.50           6692       17353.00     75816.98
   85.13        3338.75           6696       19832.00     86676.27
   85.15        3339.00           6700       21878.00     95644.14
   85.18        3339.25           6704       23865.00    104358.00
   85.21        3339.50           6707       25481.00    111448.30
   85.24        3339.75           6711       27741.00    121369.20
   85.26        3340.00           6715       29918.00    130931.40
   85.29        3340.25           6719       31756.00    139008.80
   85.32        3340.50           6722       33415.00    146302.90
   85.35        3340.75           6726       35414.00    155096.20
   85.38        3341.00           6730       37443.00    164026.20
   85.41        3341.25           6733       38341.00    167979.90
   85.44        3341.50           6737       38604.00    169138.10
   85.47        3341.75           6741       38561.00    168948.70
   85.50        3342.00           6745       37440.00    164013.00
   85.53        3342.25           6748       35909.00    157274.30
   85.55        3342.50           6752       33714.00    147617.90
   85.58        3342.75           6756       31793.00    139171.40
   85.61        3343.00           6760       29858.00    130667.70
   85.64        3343.25           6763       28325.00    123933.80
   85.67        3343.50           6767       25866.00    113137.90
   85.70        3343.75           6771       23549.00    102971.90
   85.73        3344.00           6775       21426.00     93662.56
   85.75        3344.25           6778       19827.00     86654.36
   85.78        3344.50           6782       17880.00     78124.91
   85.81        3344.75           6786       15510.00     67748.28
   85.84        3345.00           6790       13089.00     57155.03
   85.87        3345.25           6793       11735.00     51233.44
   85.89        3345.50           6797        9646.00     42101.54
   85.92        3345.75           6801        7406.00     32315.10
   85.95        3346.00           6805        5010.00     21853.47
   85.98        3346.25           6808        3123.00     13618.90
   86.00        3346.50           6812        1039.00      4529.39
   86.03        3346.75           6816         229.00       997.85
   86.06        3347.00           6819         105.00       457.29
   86.09        3347.25           6823          71.00       309.07
   86.12        3347.50           6827          61.00       265.48
   86.15        3347.75           6831          62.00       269.84
   86.17        3348.00           6834          53.00       230.60
   86.20        3348.25           6838          50.00       217.53
   86.23        3348.50           6842          53.00       230.60
   86.26        3348.75           6846          48.00       208.81
   86.28        3349.00           6849          49.00       213.17
   86.31        3349.25           6853          43.00       187.01
   86.34        3349.50           6857          51.00       221.88
   86.37        3349.75           6861          43.00       187.01
   86.40        3350.00           6864          57.00       248.04
   86.42        3350.25           6868          52.00       226.24
   86.45        3350.50           6872          46.00       200.09
   86.48        3350.75           6876          50.00       217.53
   86.51        3351.00           6879          48.00       208.81
HL scan finished at 01:27:59
end
