************************************************************
  HL Scan of (1) Internal mercury lamp
************************************************************
Integration time is 0.2294 seconds per sample
dh070717Delft 51.997-4.386 3.018777pr1000
************************************************************
Dead Time -------------------------  3E-08 
Number of Cycles Used -------------  4 
Starting Wavelength (Angstroms) ---  3331 
Final Wavelength (Angstoms) -------  3351 
Wavelength Increment (Angstroms) --  .25 
Filter Wheel #1 Position ---------- (1) Ground quartz diffuser (ND=2.32)
Filter Wheel #2 Position ---------- 



************************************************************
HL scan start time = 01:37:28
Dark Count =  .1 


Time (GMT)  Wavelength (Ang)  Step Number  Raw Counts  Counts/Second

   98.22        3331.00           6581          43.00       187.01
   98.63        3331.25           6584          42.00       182.65
   98.66        3331.50           6588          49.00       213.17
   98.69        3331.75           6592          45.00       195.73
   98.71        3332.00           6595          52.00       226.24
   98.74        3332.25           6599          49.00       213.17
   98.77        3332.50           6603          51.00       221.88
   98.80        3332.75           6607          46.00       200.09
   98.82        3333.00           6610          43.00       187.01
   98.85        3333.25           6614          43.00       187.01
   98.88        3333.50           6618          46.00       200.09
   98.91        3333.75           6622          43.00       187.01
   98.93        3334.00           6625          45.00       195.73
   98.96        3334.25           6629          48.00       208.81
   98.99        3334.50           6633          52.00       226.24
   99.02        3334.75           6636          47.00       204.45
   99.04        3335.00           6640          52.00       226.24
   99.08        3335.25           6644          53.00       230.60
   99.11        3335.50           6648          49.00       213.17
   99.14        3335.75           6651          78.00       339.59
   99.17        3336.00           6655          81.00       352.66
   99.19        3336.25           6659         195.00       849.63
   99.22        3336.50           6663        1676.00      7307.18
   99.25        3336.75           6666        3020.00     13169.54
   99.28        3337.00           6670        5082.00     22167.75
   99.30        3337.25           6674        7136.00     31135.87
   99.33        3337.50           6677        8731.00     38103.25
   99.36        3337.75           6681       10788.00     47093.08
   99.39        3338.00           6685       13277.00     57977.39
   99.42        3338.25           6689       15465.00     67551.32
   99.45        3338.50           6692       17230.00     75278.36
   99.48        3338.75           6696       19445.00     84980.55
   99.50        3339.00           6700       21555.00     94228.07
   99.53        3339.25           6704       23522.00    102853.50
   99.56        3339.50           6707       24857.00    108710.10
   99.59        3339.75           6711       26948.00    117887.40
   99.62        3340.00           6715       29028.00    127021.50
   99.65        3340.25           6719       31396.00    137426.40
   99.68        3340.50           6722       32928.00    144161.40
   99.70        3340.75           6726       34927.00    152953.50
   99.73        3341.00           6730       36515.00    159941.30
   99.76        3341.25           6733       37442.00    164021.80
   99.79        3341.50           6737       37460.00    164101.00
   99.81        3341.75           6741       37477.00    164175.90
   99.84        3342.00           6745       36610.00    160359.40
   99.87        3342.25           6748       35282.00    154515.40
   99.90        3342.50           6752       32960.00    144302.10
   99.92        3342.75           6756       31089.00    136077.10
   99.95        3343.00           6760       28721.00    125673.00
   99.98        3343.25           6763       27067.00    118409.90
  100.02        3343.50           6767       25064.00    109618.40
  100.05        3343.75           6771       22870.00     99993.94
  100.07        3344.00           6775       20669.00     90344.36
  100.10        3344.25           6778       19153.00     83701.21
  100.13        3344.50           6782       17182.00     75068.18
  100.16        3344.75           6786       15082.00     65875.05
  100.19        3345.00           6790       12920.00     56415.81
  100.22        3345.25           6793       11221.00     48986.07
  100.25        3345.50           6797        8890.00     38797.97
  100.27        3345.75           6801        6789.00     29620.47
  100.30        3346.00           6805        4789.00     20888.85
  100.33        3346.25           6808        3275.00     14282.06
  100.36        3346.50           6812        1288.00      5615.16
  100.39        3346.75           6816         249.00      1085.04
  100.41        3347.00           6819         111.00       483.44
  100.44        3347.25           6823          73.00       317.79
  100.47        3347.50           6827          66.00       287.27
  100.50        3347.75           6831          62.00       269.84
  100.52        3348.00           6834          53.00       230.60
  100.55        3348.25           6838          54.00       234.96
  100.58        3348.50           6842          48.00       208.81
  100.61        3348.75           6846          44.00       191.37
  100.63        3349.00           6849          50.00       217.53
  100.66        3349.25           6853          54.00       234.96
  100.69        3349.50           6857          51.00       221.88
  100.72        3349.75           6861          51.00       221.88
  100.75        3350.00           6864          46.00       200.09
  100.77        3350.25           6868          52.00       226.24
  100.80        3350.50           6872          46.00       200.09
  100.83        3350.75           6876          45.00       195.73
  100.86        3351.00           6879          42.00       182.65
HL scan finished at 01:42:20
end
