************************************************************
  HL Scan of (1) Internal mercury lamp
************************************************************
Integration time is 0.2294 seconds per sample
dh010717Delft 51.997-4.386 2.750537pr1000
************************************************************
Dead Time -------------------------  3E-08 
Number of Cycles Used -------------  4 
Starting Wavelength (Angstroms) ---  3331 
Final Wavelength (Angstoms) -------  3351 
Wavelength Increment (Angstroms) --  .25 
Filter Wheel #1 Position ---------- (1) Ground quartz diffuser (ND=2.32)
Filter Wheel #2 Position ---------- 



************************************************************
HL scan start time = 01:27:02
Dark Count =  .2 


Time (GMT)  Wavelength (Ang)  Step Number  Raw Counts  Counts/Second

   87.79        3331.00           6581          42.00       182.22
   88.20        3331.25           6584          44.00       190.93
   88.23        3331.50           6588          37.00       160.42
   88.26        3331.75           6592          42.00       182.22
   88.29        3332.00           6595          44.00       190.93
   88.32        3332.25           6599          42.00       182.22
   88.34        3332.50           6603          46.00       199.65
   88.37        3332.75           6607          46.00       199.65
   88.40        3333.00           6610          40.00       173.50
   88.43        3333.25           6614          41.00       177.86
   88.46        3333.50           6618          37.00       160.42
   88.49        3333.75           6622          51.00       221.45
   88.52        3334.00           6625          46.00       199.65
   88.55        3334.25           6629          45.00       195.29
   88.58        3334.50           6633          44.00       190.93
   88.60        3334.75           6636          45.00       195.29
   88.63        3335.00           6640          50.00       217.09
   88.66        3335.25           6644          48.00       208.37
   88.69        3335.50           6648          59.00       256.32
   88.71        3335.75           6651          59.00       256.32
   88.75        3336.00           6655          76.00       330.43
   88.78        3336.25           6659         201.00       875.35
   88.81        3336.50           6663        1412.00      6155.45
   88.83        3336.75           6666        2706.00     11799.29
   88.86        3337.00           6670        4478.00     19531.06
   88.89        3337.25           6674        6532.00     28497.76
   88.92        3337.50           6677        7877.00     34371.95
   88.94        3337.75           6681        9611.00     41948.14
   88.97        3338.00           6685       11553.00     50437.21
   89.00        3338.25           6689       13211.00     57688.24
   89.03        3338.50           6692       14635.00     63918.44
   89.06        3338.75           6696       16232.00     70908.31
   89.08        3339.00           6700       17844.00     77966.81
   89.11        3339.25           6704       19511.00     85269.29
   89.14        3339.50           6707       21219.00     92754.69
   89.17        3339.75           6711       23074.00    100888.20
   89.19        3340.00           6715       24760.00    108284.10
   89.22        3340.25           6719       26335.00    115196.00
   89.25        3340.50           6722       27339.00    119603.60
   89.28        3340.75           6726       29209.00    127816.10
   89.31        3341.00           6730       30824.00    134912.00
   89.33        3341.25           6733       31189.00    136516.10
   89.36        3341.50           6737       31346.00    137206.10
   89.39        3341.75           6741       31198.00    136555.70
   89.42        3342.00           6745       30116.00    131800.90
   89.44        3342.25           6748       28805.00    126041.50
   89.47        3342.50           6752       26973.00    117996.70
   89.50        3342.75           6756       25211.00    110263.00
   89.53        3343.00           6760       23540.00    102932.00
   89.56        3343.25           6763       22169.00     96919.59
   89.58        3343.50           6767       20371.00     89037.87
   89.61        3343.75           6771       19016.00     83100.56
   89.64        3344.00           6775       17248.00     75356.75
   89.67        3344.25           6778       15893.00     69424.30
   89.69        3344.50           6782       13924.00     60807.43
   89.72        3344.75           6786       12029.00     52518.60
   89.75        3345.00           6790       10188.00     44469.93
   89.78        3345.25           6793        8923.00     38941.72
   89.80        3345.50           6797        7201.00     31419.32
   89.83        3345.75           6801        5522.00     24088.02
   89.86        3346.00           6805        3755.00     16375.96
   89.89        3346.25           6808        2404.00     10481.94
   89.92        3346.50           6812         898.00      3914.15
   89.94        3346.75           6816         186.00       809.96
   89.98        3347.00           6819          75.00       326.07
   90.01        3347.25           6823          63.00       273.76
   90.04        3347.50           6827          56.00       243.25
   90.06        3347.75           6831          46.00       199.65
   90.09        3348.00           6834          56.00       243.25
   90.12        3348.25           6838          51.00       221.45
   90.15        3348.50           6842          47.00       204.01
   90.17        3348.75           6846          49.00       212.73
   90.20        3349.00           6849          48.00       208.37
   90.23        3349.25           6853          46.00       199.65
   90.26        3349.50           6857          54.00       234.53
   90.28        3349.75           6861          48.00       208.37
   90.32        3350.00           6864          43.00       186.57
   90.35        3350.25           6868          46.00       199.65
   90.38        3350.50           6872          46.00       199.65
   90.40        3350.75           6876          39.00       169.14
   90.43        3351.00           6879          50.00       217.09
HL scan finished at 01:31:55
end
