************************************************************
  HL Scan of (1) Internal mercury lamp
************************************************************
Integration time is 0.2294 seconds per sample
dh060717Delft 51.997-4.386 2.804185pr1000
************************************************************
Dead Time -------------------------  3E-08 
Number of Cycles Used -------------  4 
Starting Wavelength (Angstroms) ---  3331 
Final Wavelength (Angstoms) -------  3351 
Wavelength Increment (Angstroms) --  .25 
Filter Wheel #1 Position ---------- (1) Ground quartz diffuser (ND=2.32)
Filter Wheel #2 Position ---------- 



************************************************************
HL scan start time = 00:29:08
Dark Count =  .1 


Time (GMT)  Wavelength (Ang)  Step Number  Raw Counts  Counts/Second

   29.89        3331.00           6581          50.00       217.53
   30.30        3331.25           6584          53.00       230.60
   30.33        3331.50           6588          47.00       204.45
   30.36        3331.75           6592          45.00       195.73
   30.38        3332.00           6595          43.00       187.01
   30.41        3332.25           6599          51.00       221.88
   30.44        3332.50           6603          43.00       187.01
   30.47        3332.75           6607          48.00       208.81
   30.49        3333.00           6610          49.00       213.17
   30.52        3333.25           6614          53.00       230.60
   30.55        3333.50           6618          43.00       187.01
   30.58        3333.75           6622          51.00       221.88
   30.60        3334.00           6625          48.00       208.81
   30.63        3334.25           6629          50.00       217.53
   30.66        3334.50           6633          49.00       213.17
   30.69        3334.75           6636          51.00       221.88
   30.71        3335.00           6640          49.00       213.17
   30.74        3335.25           6644          63.00       274.20
   30.77        3335.50           6648          61.00       265.48
   30.80        3335.75           6651          73.00       317.79
   30.82        3336.00           6655          82.00       357.02
   30.85        3336.25           6659         184.00       801.68
   30.88        3336.50           6663        1650.00      7193.79
   30.91        3336.75           6666        3132.00     13658.17
   30.94        3337.00           6670        5226.00     22796.32
   30.96        3337.25           6674        7514.00     32786.81
   30.99        3337.50           6677        9129.00     39842.28
   31.02        3337.75           6681       11417.00     49843.01
   31.05        3338.00           6685       14087.00     61521.03
   31.08        3338.25           6689       16425.00     71753.68
   31.11        3338.50           6692       18147.00     79294.34
   31.13        3338.75           6696       20548.00     89814.04
   31.16        3339.00           6700       22695.00     99226.49
   31.19        3339.25           6704       24717.00    108095.80
   31.22        3339.50           6707       26390.00    115437.90
   31.25        3339.75           6711       28363.00    124100.70
   31.27        3340.00           6715       30629.00    134055.50
   31.30        3340.25           6719       33218.00    145436.60
   31.33        3340.50           6722       34943.00    153023.90
   31.36        3340.75           6726       36860.00    161459.80
   31.38        3341.00           6730       38755.00    169803.10
   31.41        3341.25           6733       39331.00    172339.90
   31.44        3341.50           6737       39533.00    173229.70
   31.47        3341.75           6741       39615.00    173590.90
   31.49        3342.00           6745       38627.00    169239.40
   31.52        3342.25           6748       37209.00    162996.10
   31.55        3342.50           6752       34974.00    153160.30
   31.58        3342.75           6756       32810.00    143642.50
   31.61        3343.00           6760       30293.00    132579.00
   31.64        3343.25           6763       28466.00    124553.00
   31.67        3343.50           6767       26343.00    115231.60
   31.69        3343.75           6771       24326.00    106380.40
   31.72        3344.00           6775       21777.00     95201.33
   31.75        3344.25           6778       20064.00     87692.91
   31.78        3344.50           6782       18157.00     79338.13
   31.81        3344.75           6786       15841.00     69197.13
   31.83        3345.00           6790       13599.00     59386.01
   31.86        3345.25           6793       11906.00     51981.18
   31.89        3345.50           6797        9417.00     41100.78
   31.92        3345.75           6801        7238.00     31581.35
   31.94        3346.00           6805        5117.00     22320.52
   31.97        3346.25           6808        3453.00     15058.68
   32.00        3346.50           6812        1434.00      6251.83
   32.03        3346.75           6816         263.00      1146.07
   32.06        3347.00           6819         111.00       483.44
   32.08        3347.25           6823          76.00       330.87
   32.11        3347.50           6827          64.00       278.56
   32.14        3347.75           6831          60.00       261.12
   32.17        3348.00           6834          62.00       269.84
   32.19        3348.25           6838          59.00       256.76
   32.22        3348.50           6842          54.00       234.96
   32.25        3348.75           6846          58.00       252.40
   32.28        3349.00           6849          46.00       200.09
   32.30        3349.25           6853          48.00       208.81
   32.33        3349.50           6857          48.00       208.81
   32.36        3349.75           6861          51.00       221.88
   32.39        3350.00           6864          56.00       243.68
   32.41        3350.25           6868          47.00       204.45
   32.44        3350.50           6872          42.00       182.65
   32.47        3350.75           6876          54.00       234.96
   32.50        3351.00           6879          39.00       169.57
HL scan finished at 00:33:59
end
************************************************************
  HL Scan of (1) Internal mercury lamp
************************************************************
Integration time is 0.2294 seconds per sample
dh060717Delft 51.997-4.386 2.911481pr1000
************************************************************
Dead Time -------------------------  3E-08 
Number of Cycles Used -------------  4 
Starting Wavelength (Angstroms) ---  3331 
Final Wavelength (Angstoms) -------  3351 
Wavelength Increment (Angstroms) --  .25 
Filter Wheel #1 Position ---------- (1) Ground quartz diffuser (ND=2.32)
Filter Wheel #2 Position ---------- 



************************************************************
HL scan start time = 01:35:48
Dark Count =  .1 


Time (GMT)  Wavelength (Ang)  Step Number  Raw Counts  Counts/Second

   96.55        3331.00           6581          41.00       178.29
   96.96        3331.25           6584          48.00       208.81
   96.99        3331.50           6588          48.00       208.81
   97.01        3331.75           6592          47.00       204.45
   97.04        3332.00           6595          48.00       208.81
   97.07        3332.25           6599          49.00       213.17
   97.10        3332.50           6603          46.00       200.09
   97.13        3332.75           6607          43.00       187.01
   97.15        3333.00           6610          44.00       191.37
   97.18        3333.25           6614          42.00       182.65
   97.21        3333.50           6618          50.00       217.53
   97.24        3333.75           6622          47.00       204.45
   97.26        3334.00           6625          49.00       213.17
   97.29        3334.25           6629          46.00       200.09
   97.32        3334.50           6633          53.00       230.60
   97.35        3334.75           6636          47.00       204.45
   97.37        3335.00           6640          49.00       213.17
   97.40        3335.25           6644          56.00       243.68
   97.43        3335.50           6648          60.00       261.12
   97.46        3335.75           6651          67.00       291.63
   97.48        3336.00           6655          61.00       265.48
   97.51        3336.25           6659         202.00       880.15
   97.54        3336.50           6663        1759.00      7669.16
   97.57        3336.75           6666        3079.00     13426.94
   97.59        3337.00           6670        4993.00     21779.27
   97.62        3337.25           6674        6988.00     30489.51
   97.65        3337.50           6677        8300.00     36220.25
   97.68        3337.75           6681       10157.00     44334.87
   97.71        3338.00           6685       11933.00     52099.24
   97.74        3338.25           6689       13908.00     60737.87
   97.77        3338.50           6692       15347.00     67034.86
   97.79        3338.75           6696       17465.00     76307.44
   97.82        3339.00           6700       19601.00     85664.07
   97.85        3339.25           6704       21385.00     93482.82
   97.88        3339.50           6707       22844.00     99879.91
   97.90        3339.75           6711       24724.00    108126.60
   97.93        3340.00           6715       26677.00    116697.70
   97.96        3340.25           6719       28579.00    125049.30
   97.99        3340.50           6722       29856.00    130658.90
   98.02        3340.75           6726       31566.00    138173.60
   98.04        3341.00           6730       33472.00    146553.60
   98.07        3341.25           6733       33992.00    148840.60
   98.10        3341.50           6737       34217.00    149830.20
   98.13        3341.75           6741       34164.00    149597.10
   98.15        3342.00           6745       33308.00    145832.30
   98.18        3342.25           6748       31637.00    138485.70
   98.21        3342.50           6752       29863.00    130689.70
   98.24        3342.75           6756       28069.00    122809.50
   98.27        3343.00           6760       26403.00    115495.00
   98.30        3343.25           6763       25047.00    109543.80
   98.33        3343.50           6767       23114.00    101064.00
   98.36        3343.75           6771       20986.00     91733.80
   98.39        3344.00           6775       18977.00     82930.13
   98.42        3344.25           6778       17401.00     76027.18
   98.44        3344.50           6782       15617.00     68216.63
   98.47        3344.75           6786       13686.00     59766.62
   98.50        3345.00           6790       11634.00     50791.82
   98.53        3345.25           6793       10147.00     44291.16
   98.56        3345.50           6797        8242.00     35966.86
   98.58        3345.75           6801        6532.00     28498.20
   98.61        3346.00           6805        4696.00     20482.94
   98.64        3346.25           6808        2926.00     12759.46
   98.67        3346.50           6812         988.00      4307.01
   98.69        3346.75           6816         189.00       823.47
   98.72        3347.00           6819          83.00       361.38
   98.75        3347.25           6823          70.00       304.71
   98.78        3347.50           6827          58.00       252.40
   98.80        3347.75           6831          59.00       256.76
   98.83        3348.00           6834          52.00       226.24
   98.86        3348.25           6838          50.00       217.53
   98.89        3348.50           6842          58.00       252.40
   98.92        3348.75           6846          47.00       204.45
   98.94        3349.00           6849          46.00       200.09
   98.97        3349.25           6853          50.00       217.53
   99.00        3349.50           6857          47.00       204.45
   99.03        3349.75           6861          47.00       204.45
   99.05        3350.00           6864          47.00       204.45
   99.08        3350.25           6868          47.00       204.45
   99.11        3350.50           6872          47.00       204.45
   99.14        3350.75           6876          44.00       191.37
   99.16        3351.00           6879          41.00       178.29
HL scan finished at 01:40:39
end
