************************************************************
  HL Scan of (1) Internal mercury lamp
************************************************************
Integration time is 0.2294 seconds per sample
dh300617Delft 51.997-4.386 2.911481pr1000
************************************************************
Dead Time -------------------------  3E-08 
Number of Cycles Used -------------  4 
Starting Wavelength (Angstroms) ---  3331 
Final Wavelength (Angstoms) -------  3351 
Wavelength Increment (Angstroms) --  .25 
Filter Wheel #1 Position ---------- (1) Ground quartz diffuser (ND=2.32)
Filter Wheel #2 Position ---------- 



************************************************************
HL scan start time = 01:35:26
Dark Count =  .1 


Time (GMT)  Wavelength (Ang)  Step Number  Raw Counts  Counts/Second

   96.19        3331.00           6581          37.00       160.86
   96.59        3331.25           6584          47.00       204.45
   96.62        3331.50           6588          48.00       208.81
   96.65        3331.75           6592          41.00       178.29
   96.68        3332.00           6595          43.00       187.01
   96.70        3332.25           6599          41.00       178.29
   96.73        3332.50           6603          42.00       182.65
   96.76        3332.75           6607          40.00       173.93
   96.79        3333.00           6610          50.00       217.53
   96.81        3333.25           6614          43.00       187.01
   96.84        3333.50           6618          45.00       195.73
   96.87        3333.75           6622          40.00       173.93
   96.90        3334.00           6625          46.00       200.09
   96.93        3334.25           6629          45.00       195.73
   96.96        3334.50           6633          49.00       213.17
   96.99        3334.75           6636          48.00       208.81
   97.01        3335.00           6640          45.00       195.73
   97.04        3335.25           6644          63.00       274.20
   97.07        3335.50           6648          61.00       265.48
   97.10        3335.75           6651          69.00       300.35
   97.12        3336.00           6655          82.00       357.02
   97.15        3336.25           6659         536.00      2336.26
   97.18        3336.50           6663        2183.00      9518.41
   97.21        3336.75           6666        3449.00     15041.22
   97.24        3337.00           6670        5191.00     22643.54
   97.27        3337.25           6674        6970.00     30410.91
   97.30        3337.50           6677        8484.00     37024.10
   97.32        3337.75           6681       10804.00     47163.02
   97.35        3338.00           6685       12820.00     55978.41
   97.38        3338.25           6689       14722.00     64299.60
   97.41        3338.50           6692       16197.00     70755.53
   97.43        3338.75           6696       18133.00     79233.02
   97.46        3339.00           6700       20259.00     88547.46
   97.49        3339.25           6704       22190.00     97012.09
   97.52        3339.50           6707       23648.00    103406.20
   97.55        3339.75           6711       25604.00    111988.10
   97.57        3340.00           6715       27519.00    120394.40
   97.60        3340.25           6719       29609.00    129573.80
   97.63        3340.50           6722       31262.00    136837.40
   97.66        3340.75           6726       33038.00    144645.00
   97.68        3341.00           6730       34646.00    151717.30
   97.72        3341.25           6733       35295.00    154572.60
   97.75        3341.50           6737       35476.00    155369.00
   97.78        3341.75           6741       35233.00    154299.80
   97.81        3342.00           6745       34175.00    149645.50
   97.83        3342.25           6748       32969.00    144341.60
   97.86        3342.50           6752       30949.00    135461.80
   97.89        3342.75           6756       28727.00    125699.40
   97.92        3343.00           6760       26706.00    116825.00
   97.95        3343.25           6763       25359.00    110912.90
   97.97        3343.50           6767       23609.00    103235.10
   98.00        3343.75           6771       21691.00     94824.29
   98.03        3344.00           6775       19569.00     85523.85
   98.06        3344.25           6778       17968.00     78510.33
   98.08        3344.50           6782       16108.00     70365.91
   98.11        3344.75           6786       14105.00     61599.78
   98.14        3345.00           6790       11913.00     52011.78
   98.17        3345.25           6793       10155.00     44326.13
   98.20        3345.50           6797        8068.00     35206.74
   98.23        3345.75           6801        5886.00     25677.58
   98.26        3346.00           6805        4046.00     17646.22
   98.28        3346.25           6808        2470.00     10770.26
   98.31        3346.50           6812         689.00      3003.32
   98.34        3346.75           6816         158.00       688.33
   98.37        3347.00           6819          94.00       409.33
   98.39        3347.25           6823          65.00       282.91
   98.42        3347.50           6827          63.00       274.20
   98.45        3347.75           6831          56.00       243.68
   98.48        3348.00           6834          47.00       204.45
   98.50        3348.25           6838          50.00       217.53
   98.53        3348.50           6842          51.00       221.88
   98.56        3348.75           6846          52.00       226.24
   98.59        3349.00           6849          51.00       221.88
   98.62        3349.25           6853          50.00       217.53
   98.64        3349.50           6857          52.00       226.24
   98.67        3349.75           6861          49.00       213.17
   98.70        3350.00           6864          44.00       191.37
   98.73        3350.25           6868          46.00       200.09
   98.75        3350.50           6872          50.00       217.53
   98.78        3350.75           6876          50.00       217.53
   98.81        3351.00           6879          45.00       195.73
HL scan finished at 01:40:17
end
