************************************************************
  HL Scan of (1) Internal mercury lamp
************************************************************
Integration time is 0.2294 seconds per sample
dh050717Delft 51.997-4.386 3.018777pr1000
************************************************************
Dead Time -------------------------  3E-08 
Number of Cycles Used -------------  4 
Starting Wavelength (Angstroms) ---  3331 
Final Wavelength (Angstoms) -------  3351 
Wavelength Increment (Angstroms) --  .25 
Filter Wheel #1 Position ---------- (1) Ground quartz diffuser (ND=2.32)
Filter Wheel #2 Position ---------- 



************************************************************
HL scan start time = 02:09:33
Dark Count =  .1 


Time (GMT)  Wavelength (Ang)  Step Number  Raw Counts  Counts/Second

  130.30        3331.00           6581          44.00       191.37
  130.71        3331.25           6584          40.00       173.93
  130.74        3331.50           6588          47.00       204.45
  130.77        3331.75           6592          43.00       187.01
  130.80        3332.00           6595          40.00       173.93
  130.83        3332.25           6599          50.00       217.53
  130.86        3332.50           6603          47.00       204.45
  130.89        3332.75           6607          51.00       221.88
  130.92        3333.00           6610          50.00       217.53
  130.94        3333.25           6614          40.00       173.93
  130.97        3333.50           6618          46.00       200.09
  131.00        3333.75           6622          48.00       208.81
  131.03        3334.00           6625          47.00       204.45
  131.05        3334.25           6629          57.00       248.04
  131.08        3334.50           6633          50.00       217.53
  131.11        3334.75           6636          49.00       213.17
  131.14        3335.00           6640          51.00       221.88
  131.17        3335.25           6644          62.00       269.84
  131.19        3335.50           6648          65.00       282.91
  131.22        3335.75           6651          68.00       295.99
  131.25        3336.00           6655          77.00       335.23
  131.28        3336.25           6659         309.00      1346.61
  131.30        3336.50           6663        1971.00      8593.76
  131.33        3336.75           6666        3326.00     14504.57
  131.36        3337.00           6670        5316.00     23189.19
  131.39        3337.25           6674        7309.00     31891.44
  131.42        3337.50           6677        9095.00     39693.71
  131.45        3337.75           6681       11056.00     48264.69
  131.48        3338.00           6685       13003.00     56778.85
  131.51        3338.25           6689       15299.00     66824.78
  131.54        3338.50           6692       17066.00     74560.24
  131.56        3338.75           6696       19162.00     83740.63
  131.59        3339.00           6700       21553.00     94219.31
  131.62        3339.25           6704       23754.00    103871.10
  131.65        3339.50           6707       25218.00    110294.20
  131.68        3339.75           6711       27520.00    120398.80
  131.71        3340.00           6715       29498.00    129086.10
  131.74        3340.25           6719       31473.00    137764.80
  131.76        3340.50           6722       32870.00    143906.30
  131.79        3340.75           6726       34638.00    151682.10
  131.82        3341.00           6730       36813.00    161252.90
  131.85        3341.25           6733       37558.00    164532.40
  131.87        3341.50           6737       37640.00    164893.50
  131.90        3341.75           6741       37708.00    165192.80
  131.93        3342.00           6745       36533.00    160020.50
  131.96        3342.25           6748       35070.00    153582.60
  131.99        3342.50           6752       33087.00    144860.50
  132.01        3342.75           6756       31047.00    135892.50
  132.04        3343.00           6760       29068.00    127197.20
  132.07        3343.25           6763       27539.00    120482.20
  132.10        3343.50           6767       25437.00    111255.20
  132.12        3343.75           6771       23389.00    102270.20
  132.15        3344.00           6775       20943.00     91545.32
  132.18        3344.25           6778       19154.00     83705.59
  132.21        3344.50           6782       17057.00     74520.82
  132.24        3344.75           6786       14924.00     65183.58
  132.27        3345.00           6790       12542.00     54762.53
  132.30        3345.25           6793       10867.00     47438.44
  132.32        3345.50           6797        9016.00     39348.52
  132.35        3345.75           6801        7109.00     31017.95
  132.38        3346.00           6805        4974.00     21696.33
  132.41        3346.25           6808        3261.00     14220.98
  132.43        3346.50           6812        1139.00      4965.43
  132.46        3346.75           6816         226.00       984.77
  132.49        3347.00           6819         105.00       457.29
  132.52        3347.25           6823          71.00       309.07
  132.54        3347.50           6827          56.00       243.68
  132.57        3347.75           6831          55.00       239.32
  132.60        3348.00           6834          59.00       256.76
  132.63        3348.25           6838          56.00       243.68
  132.66        3348.50           6842          49.00       213.17
  132.69        3348.75           6846          58.00       252.40
  132.72        3349.00           6849          51.00       221.88
  132.74        3349.25           6853          51.00       221.88
  132.77        3349.50           6857          50.00       217.53
  132.80        3349.75           6861          49.00       213.17
  132.83        3350.00           6864          48.00       208.81
  132.86        3350.25           6868          45.00       195.73
  132.89        3350.50           6872          41.00       178.29
  132.91        3350.75           6876          47.00       204.45
  132.94        3351.00           6879          50.00       217.53
HL scan finished at 02:14:25
end
