************************************************************
  HL Scan of (1) Internal mercury lamp
************************************************************
Integration time is 0.2294 seconds per sample
dh030717Delft 51.997-4.386 2.750537pr1000
************************************************************
Dead Time -------------------------  3E-08 
Number of Cycles Used -------------  4 
Starting Wavelength (Angstroms) ---  3331 
Final Wavelength (Angstoms) -------  3351 
Wavelength Increment (Angstroms) --  .25 
Filter Wheel #1 Position ---------- (1) Ground quartz diffuser (ND=2.32)
Filter Wheel #2 Position ---------- 



************************************************************
HL scan start time = 01:38:33
Dark Count =  .1 


Time (GMT)  Wavelength (Ang)  Step Number  Raw Counts  Counts/Second

   99.30        3331.00           6581          46.00       200.09
   99.71        3331.25           6584          45.00       195.73
   99.74        3331.50           6588          42.00       182.65
   99.77        3331.75           6592          42.00       182.65
   99.80        3332.00           6595          44.00       191.37
   99.82        3332.25           6599          55.00       239.32
   99.85        3332.50           6603          47.00       204.45
   99.88        3332.75           6607          51.00       221.88
   99.91        3333.00           6610          45.00       195.73
   99.93        3333.25           6614          44.00       191.37
   99.96        3333.50           6618          44.00       191.37
   99.99        3333.75           6622          48.00       208.81
  100.02        3334.00           6625          38.00       165.21
  100.05        3334.25           6629          46.00       200.09
  100.08        3334.50           6633          45.00       195.73
  100.10        3334.75           6636          44.00       191.37
  100.13        3335.00           6640          52.00       226.24
  100.16        3335.25           6644          56.00       243.68
  100.19        3335.50           6648          55.00       239.32
  100.22        3335.75           6651          55.00       239.32
  100.25        3336.00           6655          75.00       326.51
  100.28        3336.25           6659         259.00      1128.63
  100.31        3336.50           6663        1316.00      5737.26
  100.34        3336.75           6666        2384.00     10395.13
  100.36        3337.00           6670        4171.00     18191.70
  100.39        3337.25           6674        6133.00     26755.99
  100.42        3337.50           6677        7363.00     32127.29
  100.45        3337.75           6681        8901.00     38846.04
  100.48        3338.00           6685       10565.00     46118.26
  100.50        3338.25           6689       12492.00     54543.85
  100.53        3338.50           6692       13973.00     61022.25
  100.56        3338.75           6696       15710.00     68623.71
  100.59        3339.00           6700       17211.00     75195.16
  100.62        3339.25           6704       18904.00     82610.32
  100.64        3339.50           6707       20241.00     88468.58
  100.67        3339.75           6711       22177.00     96955.09
  100.70        3340.00           6715       24033.00    105095.00
  100.73        3340.25           6719       25450.00    111312.20
  100.75        3340.50           6722       26787.00    117180.60
  100.78        3340.75           6726       28465.00    124548.60
  100.81        3341.00           6730       30117.00    131805.70
  100.84        3341.25           6733       30724.00    134473.00
  100.87        3341.50           6737       30666.00    134218.10
  100.89        3341.75           6741       30660.00    134191.70
  100.92        3342.00           6745       30044.00    131484.90
  100.95        3342.25           6748       28776.00    125914.60
  100.98        3342.50           6752       26978.00    118019.10
  101.01        3342.75           6756       25395.00    111070.90
  101.03        3343.00           6760       23664.00    103476.30
  101.06        3343.25           6763       22298.00     97485.65
  101.09        3343.50           6767       20586.00     89980.59
  101.12        3343.75           6771       18924.00     82697.94
  101.14        3344.00           6775       17549.00     76675.30
  101.17        3344.25           6778       16098.00     70322.15
  101.20        3344.50           6782       14189.00     61967.32
  101.23        3344.75           6786       12369.00     54005.92
  101.26        3345.00           6790       10406.00     45423.24
  101.28        3345.25           6793        9016.00     39348.52
  101.31        3345.50           6797        7330.00     31983.16
  101.34        3345.75           6801        5580.00     24341.66
  101.37        3346.00           6805        3736.00     16293.49
  101.40        3346.25           6808        2453.00     10696.11
  101.42        3346.50           6812        1038.00      4525.03
  101.45        3346.75           6816         216.00       941.18
  101.48        3347.00           6819          94.00       409.33
  101.51        3347.25           6823          68.00       295.99
  101.53        3347.50           6827          55.00       239.32
  101.56        3347.75           6831          60.00       261.12
  101.59        3348.00           6834          48.00       208.81
  101.62        3348.25           6838          48.00       208.81
  101.64        3348.50           6842          47.00       204.45
  101.67        3348.75           6846          40.00       173.93
  101.70        3349.00           6849          40.00       173.93
  101.73        3349.25           6853          41.00       178.29
  101.76        3349.50           6857          43.00       187.01
  101.78        3349.75           6861          48.00       208.81
  101.81        3350.00           6864          48.00       208.81
  101.84        3350.25           6868          41.00       178.29
  101.87        3350.50           6872          43.00       187.01
  101.89        3350.75           6876          49.00       213.17
  101.92        3351.00           6879          43.00       187.01
HL scan finished at 01:43:24
end
