************************************************************
  HL Scan of (1) Internal mercury lamp
************************************************************
Integration time is 0.2294 seconds per sample
dh020717Delft 51.997-4.386 2.857833pr1000
************************************************************
Dead Time -------------------------  3E-08 
Number of Cycles Used -------------  4 
Starting Wavelength (Angstroms) ---  3331 
Final Wavelength (Angstoms) -------  3351 
Wavelength Increment (Angstroms) --  .25 
Filter Wheel #1 Position ---------- (1) Ground quartz diffuser (ND=2.32)
Filter Wheel #2 Position ---------- 



************************************************************
HL scan start time = 01:38:24
Dark Count =  .1 


Time (GMT)  Wavelength (Ang)  Step Number  Raw Counts  Counts/Second

   99.16        3331.00           6581          47.00       204.45
   99.56        3331.25           6584          41.00       178.29
   99.59        3331.50           6588          49.00       213.17
   99.62        3331.75           6592          45.00       195.73
   99.65        3332.00           6595          42.00       182.65
   99.68        3332.25           6599          38.00       165.21
   99.70        3332.50           6603          44.00       191.37
   99.73        3332.75           6607          44.00       191.37
   99.76        3333.00           6610          42.00       182.65
   99.79        3333.25           6614          46.00       200.09
   99.81        3333.50           6618          47.00       204.45
   99.84        3333.75           6622          48.00       208.81
   99.87        3334.00           6625          41.00       178.29
   99.90        3334.25           6629          42.00       182.65
   99.92        3334.50           6633          46.00       200.09
   99.95        3334.75           6636          55.00       239.32
   99.98        3335.00           6640          47.00       204.45
  100.01        3335.25           6644          49.00       213.17
  100.04        3335.50           6648          55.00       239.32
  100.07        3335.75           6651          68.00       295.99
  100.09        3336.00           6655          69.00       300.35
  100.12        3336.25           6659         184.00       801.68
  100.15        3336.50           6663        1411.00      6151.53
  100.18        3336.75           6666        2581.00     11254.45
  100.20        3337.00           6670        4556.00     19871.91
  100.23        3337.25           6674        6379.00     27830.12
  100.26        3337.50           6677        7883.00     34398.60
  100.29        3337.75           6681       10102.00     44094.48
  100.32        3338.00           6685       12229.00     53393.66
  100.34        3338.25           6689       14252.00     62242.98
  100.37        3338.50           6692       15822.00     69113.96
  100.40        3338.75           6696       17758.00     77590.60
  100.43        3339.00           6700       19436.00     84941.11
  100.45        3339.25           6704       21374.00     93434.60
  100.48        3339.50           6707       22467.00     98226.69
  100.51        3339.75           6711       24635.00    107736.10
  100.54        3340.00           6715       26791.00    117198.20
  100.57        3340.25           6719       28725.00    125690.60
  100.59        3340.50           6722       30151.00    131955.10
  100.62        3340.75           6726       31774.00    139087.90
  100.65        3341.00           6730       33544.00    146870.20
  100.68        3341.25           6733       34226.00    149869.80
  100.70        3341.50           6737       34233.00    149900.60
  100.73        3341.75           6741       34239.00    149927.00
  100.76        3342.00           6745       33438.00    146404.00
  100.79        3342.25           6748       32222.00    141057.30
  100.81        3342.50           6752       30245.00    132368.10
  100.84        3342.75           6756       27952.00    122295.70
  100.87        3343.00           6760       25986.00    113664.60
  100.90        3343.25           6763       24842.00    108644.30
  100.93        3343.50           6767       22845.00     99884.30
  100.95        3343.75           6771       20858.00     91172.75
  100.98        3344.00           6775       18913.00     82649.75
  101.01        3344.25           6778       17663.00     77174.55
  101.04        3344.50           6782       15830.00     69148.97
  101.06        3344.75           6786       13825.00     60374.74
  101.09        3345.00           6790       11635.00     50796.19
  101.12        3345.25           6793       10116.00     44155.67
  101.15        3345.50           6797        8031.00     35045.11
  101.18        3345.75           6801        6274.00     27371.64
  101.20        3346.00           6805        4489.00     19579.50
  101.23        3346.25           6808        2946.00     12846.71
  101.26        3346.50           6812        1188.00      5179.10
  101.29        3346.75           6816         250.00      1089.40
  101.31        3347.00           6819         103.00       448.57
  101.34        3347.25           6823          69.00       300.35
  101.37        3347.50           6827          65.00       282.91
  101.40        3347.75           6831          63.00       274.20
  101.42        3348.00           6834          54.00       234.96
  101.45        3348.25           6838          52.00       226.24
  101.48        3348.50           6842          44.00       191.37
  101.51        3348.75           6846          46.00       200.09
  101.53        3349.00           6849          56.00       243.68
  101.56        3349.25           6853          50.00       217.53
  101.59        3349.50           6857          48.00       208.81
  101.62        3349.75           6861          41.00       178.29
  101.64        3350.00           6864          44.00       191.37
  101.67        3350.25           6868          47.00       204.45
  101.70        3350.50           6872          50.00       217.53
  101.73        3350.75           6876          47.00       204.45
  101.75        3351.00           6879          46.00       200.09
HL scan finished at 01:43:14
end
