************************************************************
  HL Scan of (1) Internal mercury lamp
************************************************************
Integration time is 0.2294 seconds per sample
dh210717Delft 51.997-4.386 2.857833pr1000
************************************************************
Dead Time -------------------------  3E-08 
Number of Cycles Used -------------  4 
Starting Wavelength (Angstroms) ---  3331 
Final Wavelength (Angstoms) -------  3351 
Wavelength Increment (Angstroms) --  .25 
Filter Wheel #1 Position ---------- (1) Ground quartz diffuser (ND=2.32)
Filter Wheel #2 Position ---------- 



************************************************************
HL scan start time = 01:31:29
Dark Count =  0 


Time (GMT)  Wavelength (Ang)  Step Number  Raw Counts  Counts/Second

   92.24        3331.00           6581          42.00       183.09
   92.65        3331.25           6584          44.00       191.81
   92.68        3331.50           6588          42.00       183.09
   92.71        3331.75           6592          40.00       174.37
   92.73        3332.00           6595          39.00       170.01
   92.76        3332.25           6599          40.00       174.37
   92.79        3332.50           6603          44.00       191.81
   92.82        3332.75           6607          41.00       178.73
   92.85        3333.00           6610          43.00       187.45
   92.87        3333.25           6614          49.00       213.60
   92.90        3333.50           6618          48.00       209.24
   92.93        3333.75           6622          50.00       217.96
   92.96        3334.00           6625          45.00       196.17
   92.99        3334.25           6629          46.00       200.52
   93.02        3334.50           6633          55.00       239.76
   93.05        3334.75           6636          45.00       196.17
   93.08        3335.00           6640          52.00       226.68
   93.10        3335.25           6644          55.00       239.76
   93.13        3335.50           6648          49.00       213.60
   93.16        3335.75           6651          66.00       287.71
   93.19        3336.00           6655          67.00       292.07
   93.21        3336.25           6659         499.00      2175.38
   93.24        3336.50           6663        2059.00      8978.01
   93.27        3336.75           6666        3398.00     14819.14
   93.30        3337.00           6670        5091.00     22207.47
   93.33        3337.25           6674        6704.00     29249.72
   93.36        3337.50           6677        8082.00     35268.33
   93.39        3337.75           6681        9800.00     42775.00
   93.41        3338.00           6685       12173.00     53149.19
   93.44        3338.25           6689       14106.00     61604.60
   93.47        3338.50           6692       15655.00     68383.40
   93.50        3338.75           6696       17330.00     75716.69
   93.52        3339.00           6700       19310.00     84389.49
   93.55        3339.25           6704       21067.00     92089.29
   93.58        3339.50           6707       22555.00     98613.02
   93.61        3339.75           6711       24163.00    105665.70
   93.64        3340.00           6715       26055.00    113967.90
   93.66        3340.25           6719       27957.00    122318.10
   93.69        3340.50           6722       29430.00    128787.80
   93.72        3340.75           6726       31242.00    136749.90
   93.75        3341.00           6730       32788.00    143546.20
   93.78        3341.25           6733       33267.00    145652.50
   93.81        3341.50           6737       33345.00    145995.50
   93.84        3341.75           6741       33418.00    146316.50
   93.86        3342.00           6745       32185.00    140895.10
   93.89        3342.25           6748       31174.00    136451.10
   93.92        3342.50           6752       29360.00    128480.30
   93.95        3342.75           6756       27563.00    120588.00
   93.98        3343.00           6760       25251.00    110439.40
   94.00        3343.25           6763       23940.00    104687.50
   94.03        3343.50           6767       22151.00     96841.53
   94.06        3343.75           6771       20406.00     89192.13
   94.09        3344.00           6775       18429.00     80529.99
   94.12        3344.25           6778       16978.00     74175.35
   94.14        3344.50           6782       15041.00     65696.05
   94.17        3344.75           6786       13203.00     57654.13
   94.20        3345.00           6790       11290.00     49288.17
   94.23        3345.25           6793        9884.00     43142.12
   94.26        3345.50           6797        7957.00     34722.29
   94.29        3345.75           6801        5739.00     25036.24
   94.32        3346.00           6805        3774.00     16459.74
   94.34        3346.25           6808        2389.00     10417.38
   94.37        3346.50           6812         785.00      3422.32
   94.40        3346.75           6816         150.00       653.89
   94.43        3347.00           6819          73.00       318.22
   94.45        3347.25           6823          64.00       278.99
   94.48        3347.50           6827          54.00       235.40
   94.51        3347.75           6831          53.00       231.04
   94.54        3348.00           6834          52.00       226.68
   94.56        3348.25           6838          52.00       226.68
   94.59        3348.50           6842          42.00       183.09
   94.62        3348.75           6846          40.00       174.37
   94.65        3349.00           6849          43.00       187.45
   94.67        3349.25           6853          47.00       204.88
   94.70        3349.50           6857          49.00       213.60
   94.74        3349.75           6861          53.00       231.04
   94.76        3350.00           6864          50.00       217.96
   94.79        3350.25           6868          48.00       209.24
   94.82        3350.50           6872          44.00       191.81
   94.85        3350.75           6876          48.00       209.24
   94.88        3351.00           6879          45.00       196.17
HL scan finished at 01:36:22
end
