************************************************************
  HL Scan of (1) Internal mercury lamp
************************************************************
Integration time is 0.2294 seconds per sample
dh190717Delft 51.997-4.386 3.018777pr1000
************************************************************
Dead Time -------------------------  3E-08 
Number of Cycles Used -------------  4 
Starting Wavelength (Angstroms) ---  3331 
Final Wavelength (Angstoms) -------  3351 
Wavelength Increment (Angstroms) --  .25 
Filter Wheel #1 Position ---------- (1) Ground quartz diffuser (ND=2.32)
Filter Wheel #2 Position ---------- 



************************************************************
HL scan start time = 02:05:28
Dark Count =  .1 


Time (GMT)  Wavelength (Ang)  Step Number  Raw Counts  Counts/Second

  126.22        3331.00           6581          49.00       213.17
  126.63        3331.25           6584          49.00       213.17
  126.66        3331.50           6588          47.00       204.45
  126.69        3331.75           6592          48.00       208.81
  126.72        3332.00           6595          49.00       213.17
  126.74        3332.25           6599          47.00       204.45
  126.77        3332.50           6603          47.00       204.45
  126.80        3332.75           6607          49.00       213.17
  126.83        3333.00           6610          42.00       182.65
  126.85        3333.25           6614          45.00       195.73
  126.88        3333.50           6618          44.00       191.37
  126.91        3333.75           6622          54.00       234.96
  126.94        3334.00           6625          45.00       195.73
  126.96        3334.25           6629          51.00       221.88
  126.99        3334.50           6633          48.00       208.81
  127.02        3334.75           6636          54.00       234.96
  127.05        3335.00           6640          50.00       217.53
  127.07        3335.25           6644          54.00       234.96
  127.10        3335.50           6648          62.00       269.84
  127.13        3335.75           6651          80.00       348.30
  127.16        3336.00           6655          84.00       365.74
  127.18        3336.25           6659         164.00       714.49
  127.21        3336.50           6663        1449.00      6317.24
  127.24        3336.75           6666        2829.00     12336.30
  127.27        3337.00           6670        5276.00     23014.58
  127.29        3337.25           6674        7703.00     33612.34
  127.32        3337.50           6677        9191.00     40113.20
  127.35        3337.75           6681       11249.00     49108.48
  127.38        3338.00           6685       13574.00     59276.64
  127.41        3338.25           6689       15859.00     69275.91
  127.44        3338.50           6692       17371.00     75895.81
  127.47        3338.75           6696       19274.00     84231.33
  127.49        3339.00           6700       21311.00     93158.43
  127.52        3339.25           6704       23421.00    102410.50
  127.55        3339.50           6707       25385.00    111027.00
  127.58        3339.75           6711       27792.00    121593.10
  127.61        3340.00           6715       29755.00    130215.20
  127.63        3340.25           6719       31671.00    138635.10
  127.66        3340.50           6722       33294.00    145770.80
  127.69        3340.75           6726       35376.00    154929.00
  127.72        3341.00           6730       37148.00    162727.50
  127.74        3341.25           6733       37763.00    165435.00
  127.77        3341.50           6737       38266.00    167649.70
  127.80        3341.75           6741       38108.00    166954.00
  127.83        3342.00           6745       36953.00    161869.10
  127.86        3342.25           6748       35433.00    155179.80
  127.88        3342.50           6752       33510.00    146720.70
  127.91        3342.75           6756       31288.00    136951.70
  127.94        3343.00           6760       29110.00    127381.70
  127.97        3343.25           6763       27264.00    119274.80
  127.99        3343.50           6767       25301.00    110658.40
  128.02        3343.75           6771       23510.00    102800.90
  128.05        3344.00           6775       21567.00     94280.68
  128.08        3344.25           6778       19666.00     85948.89
  128.11        3344.50           6782       17354.00     75821.36
  128.14        3344.75           6786       15142.00     66137.65
  128.17        3345.00           6790       12714.00     55514.79
  128.20        3345.25           6793       11416.00     49838.64
  128.22        3345.50           6797        9422.00     41122.63
  128.25        3345.75           6801        7161.00     31245.06
  128.28        3346.00           6805        5007.00     21840.37
  128.31        3346.25           6808        3483.00     15189.57
  128.33        3346.50           6812        1564.00      6818.74
  128.36        3346.75           6816         287.00      1250.70
  128.39        3347.00           6819          93.00       404.97
  128.42        3347.25           6823          70.00       304.71
  128.44        3347.50           6827          65.00       282.91
  128.47        3347.75           6831          57.00       248.04
  128.50        3348.00           6834          59.00       256.76
  128.53        3348.25           6838          54.00       234.96
  128.56        3348.50           6842          45.00       195.73
  128.58        3348.75           6846          45.00       195.73
  128.61        3349.00           6849          53.00       230.60
  128.64        3349.25           6853          50.00       217.53
  128.67        3349.50           6857          45.00       195.73
  128.69        3349.75           6861          45.00       195.73
  128.72        3350.00           6864          48.00       208.81
  128.75        3350.25           6868          45.00       195.73
  128.78        3350.50           6872          47.00       204.45
  128.80        3350.75           6876          49.00       213.17
  128.83        3351.00           6879          53.00       230.60
HL scan finished at 02:10:19
end
