************************************************************
  HL Scan of (1) Internal mercury lamp
************************************************************
Integration time is 0.2294 seconds per sample
dh060818Arosa 46.78-9.675 2.965129pr1000
************************************************************
Dead Time -------------------------  2.7E-08 
Number of Cycles Used -------------  4 
Starting Wavelength (Angstroms) ---  3331 
Final Wavelength (Angstoms) -------  3351 
Wavelength Increment (Angstroms) --  .25 
Filter Wheel #1 Position ---------- (1) Ground quartz diffuser (ND=2.32)
Filter Wheel #2 Position ---------- 



************************************************************
HL scan start time = 04:00:39
Dark Count =  .1 


Time (GMT)  Wavelength (Ang)  Step Number  Raw Counts  Counts/Second

  241.42        3331.00           6582          60.00       261.12
  241.83        3331.25           6586          63.00       274.20
  241.86        3331.50           6589          44.00       191.37
  241.89        3331.75           6593          49.00       213.17
  241.92        3332.00           6597          53.00       230.60
  241.95        3332.25           6601          64.00       278.55
  241.99        3332.50           6604          56.00       243.68
  242.02        3332.75           6608          52.00       226.24
  242.05        3333.00           6612          58.00       252.40
  242.08        3333.25           6616          53.00       230.60
  242.11        3333.50           6619          53.00       230.60
  242.14        3333.75           6623          52.00       226.24
  242.17        3334.00           6627          56.00       243.68
  242.20        3334.25           6631          57.00       248.04
  242.23        3334.50           6634          60.00       261.12
  242.26        3334.75           6638          73.00       317.79
  242.29        3335.00           6642          67.00       291.63
  242.32        3335.25           6645          77.00       335.23
  242.35        3335.50           6649          76.00       330.87
  242.38        3335.75           6653          82.00       357.02
  242.41        3336.00           6657         147.00       640.38
  242.44        3336.25           6660         764.00      3330.29
  242.47        3336.50           6664        3167.00     13810.29
  242.50        3336.75           6668        5965.00     26020.46
  242.53        3337.00           6672        8842.00     38583.77
  242.56        3337.25           6675       11297.00     49311.04
  242.59        3337.50           6679       14194.00     61977.65
  242.62        3337.75           6683       16998.00     74245.90
  242.65        3338.00           6687       20295.00     88681.58
  242.68        3338.25           6690       22680.00     99131.16
  242.71        3338.50           6694       25770.00    112678.40
  242.74        3338.75           6698       29163.00    127565.50
  242.77        3339.00           6702       32355.00    141581.60
  242.80        3339.25           6705       34520.00    151094.20
  242.83        3339.50           6709       37723.00    165176.60
  242.86        3339.75           6713       40692.00    178239.80
  242.89        3340.00           6717       43644.00    191237.30
  242.92        3340.25           6720       45725.00    200405.40
  242.95        3340.50           6724       48510.00    212682.10
  242.98        3340.75           6728       51412.00    225483.20
  243.01        3341.00           6732       53482.00    234619.70
  243.04        3341.25           6735       53990.00    236862.60
  243.07        3341.50           6739       53987.00    236849.40
  243.10        3341.75           6743       53664.00    235423.30
  243.13        3342.00           6747       51179.00    224455.10
  243.16        3342.25           6750       48843.00    214150.50
  243.19        3342.50           6754       45962.00    201449.80
  243.22        3342.75           6758       43244.00    189475.60
  243.26        3343.00           6762       40527.00    177513.60
  243.28        3343.25           6765       38113.00    166892.00
  243.32        3343.50           6769       35089.00    153595.10
  243.35        3343.75           6773       31600.00    138265.40
  243.38        3344.00           6777       28536.00    124813.60
  243.41        3344.25           6780       25944.00    113441.50
  243.44        3344.50           6784       22995.00    100511.70
  243.47        3344.75           6788       19621.00     85729.60
  243.50        3345.00           6792       16730.00     73072.98
  243.53        3345.25           6795       14513.00     63372.95
  243.56        3345.50           6799       11571.00     50508.69
  243.59        3345.75           6803        8604.00     37544.15
  243.62        3346.00           6807        5540.00     24165.28
  243.65        3346.25           6810        3001.00     13086.14
  243.68        3346.50           6814         763.00      3325.93
  243.71        3346.75           6818         188.00       819.11
  243.74        3347.00           6822         105.00       457.29
  243.77        3347.25           6826          91.00       396.26
  243.80        3347.50           6829          72.00       313.43
  243.83        3347.75           6833          71.00       309.07
  243.86        3348.00           6837          63.00       274.20
  243.89        3348.25           6841          68.00       295.99
  243.92        3348.50           6844          63.00       274.20
  243.95        3348.75           6848          61.00       265.48
  243.98        3349.00           6852          54.00       234.96
  244.01        3349.25           6856          67.00       291.63
  244.04        3349.50           6859          58.00       252.40
  244.07        3349.75           6863          59.00       256.76
  244.10        3350.00           6867          59.00       256.76
  244.13        3350.25           6871          64.00       278.55
  244.16        3350.50           6874          56.00       243.68
  244.19        3350.75           6878          58.00       252.40
  244.22        3351.00           6882          52.00       226.24
HL scan finished at 04:05:43
end
************************************************************
  HL Scan of (1) Internal mercury lamp
************************************************************
Integration time is 0.2294 seconds per sample
dh060818Arosa 46.78-9.675 2.804185pr1000
************************************************************
Dead Time -------------------------  2.7E-08 
Number of Cycles Used -------------  4 
Starting Wavelength (Angstroms) ---  3331 
Final Wavelength (Angstoms) -------  3351 
Wavelength Increment (Angstroms) --  .25 
Filter Wheel #1 Position ---------- (1) Ground quartz diffuser (ND=2.32)
Filter Wheel #2 Position ---------- 



************************************************************
HL scan start time = 20:54:45
Dark Count =  .1 


Time (GMT)  Wavelength (Ang)  Step Number  Raw Counts  Counts/Second

 1255.51        3331.00           6582          51.00       221.88
 1255.92        3331.25           6586          56.00       243.68
 1255.95        3331.50           6589          62.00       269.84
 1255.98        3331.75           6593          55.00       239.32
 1256.01        3332.00           6597          59.00       256.76
 1256.04        3332.25           6601          54.00       234.96
 1256.07        3332.50           6604          55.00       239.32
 1256.10        3332.75           6608          56.00       243.68
 1256.13        3333.00           6612          53.00       230.60
 1256.16        3333.25           6616          50.00       217.53
 1256.19        3333.50           6619          54.00       234.96
 1256.22        3333.75           6623          51.00       221.88
 1256.25        3334.00           6627          60.00       261.12
 1256.28        3334.25           6631          60.00       261.12
 1256.31        3334.50           6634          61.00       265.48
 1256.34        3334.75           6638          61.00       265.48
 1256.37        3335.00           6642          75.00       326.51
 1256.40        3335.25           6645          75.00       326.51
 1256.43        3335.50           6649          80.00       348.30
 1256.46        3335.75           6653          89.00       387.54
 1256.49        3336.00           6657         161.00       701.41
 1256.52        3336.25           6660         951.00      4145.63
 1256.55        3336.50           6664        3218.00     14032.78
 1256.58        3336.75           6668        5645.00     24623.60
 1256.61        3337.00           6672        8385.00     36587.57
 1256.64        3337.25           6675       10572.00     46142.46
 1256.67        3337.50           6679       13589.00     59331.68
 1256.70        3337.75           6683       16841.00     73558.77
 1256.73        3338.00           6687       19632.00     85777.78
 1256.76        3338.25           6690       21820.00     95362.49
 1256.79        3338.50           6694       24864.00    108705.30
 1256.83        3338.75           6698       27777.00    121482.80
 1256.85        3339.00           6702       30338.00    132723.70
 1256.89        3339.25           6705       32383.00    141704.60
 1256.92        3339.50           6709       35113.00    153700.60
 1256.95        3339.75           6713       37672.00    164952.30
 1256.98        3340.00           6717       40729.00    178402.60
 1257.01        3340.25           6720       42762.00    187352.90
 1257.04        3340.50           6724       45571.00    199726.70
 1257.07        3340.75           6728       47745.00    209309.00
 1257.10        3341.00           6732       49275.00    216055.70
 1257.13        3341.25           6735       49532.00    217189.30
 1257.16        3341.50           6739       49564.00    217330.40
 1257.19        3341.75           6743       48690.00    213475.80
 1257.22        3342.00           6747       46730.00    204834.60
 1257.25        3342.25           6750       44723.00    195990.40
 1257.28        3342.50           6754       41718.00    182756.10
 1257.31        3342.75           6758       38767.00    169769.00
 1257.34        3343.00           6762       35753.00    156514.00
 1257.37        3343.25           6765       33823.00    148031.20
 1257.40        3343.50           6769       31319.00    137031.40
 1257.43        3343.75           6773       27986.00    122399.90
 1257.46        3344.00           6777       25362.00    110889.10
 1257.49        3344.25           6780       23198.00    101401.50
 1257.52        3344.50           6784       20605.00     90039.47
 1257.55        3344.75           6788       17754.00     77555.00
 1257.58        3345.00           6792       14911.00     65113.94
 1257.61        3345.25           6795       12542.00     54753.51
 1257.64        3345.50           6799        9494.00     41432.11
 1257.67        3345.75           6803        6920.00     30189.82
 1257.70        3346.00           6807        4295.00     18731.79
 1257.73        3346.25           6810        2400.00     10464.59
 1257.76        3346.50           6814         506.00      2205.45
 1257.79        3346.75           6818         137.00       596.78
 1257.82        3347.00           6822          86.00       374.46
 1257.85        3347.25           6826          83.00       361.38
 1257.88        3347.50           6829          77.00       335.23
 1257.91        3347.75           6833          69.00       300.35
 1257.94        3348.00           6837          65.00       282.91
 1257.97        3348.25           6841          63.00       274.20
 1258.00        3348.50           6844          57.00       248.04
 1258.03        3348.75           6848          58.00       252.40
 1258.06        3349.00           6852          57.00       248.04
 1258.09        3349.25           6856          58.00       252.40
 1258.12        3349.50           6859          53.00       230.60
 1258.15        3349.75           6863          48.00       208.81
 1258.18        3350.00           6867          53.00       230.60
 1258.21        3350.25           6871          60.00       261.12
 1258.24        3350.50           6874          59.00       256.76
 1258.27        3350.75           6878          57.00       248.04
 1258.30        3351.00           6882          57.00       248.04
HL scan finished at 20:59:48
end
