************************************************************
  HL Scan of (1) Internal mercury lamp
************************************************************
Integration time is 0.2294 seconds per sample
dh040818Arosa 46.78-9.675 2.965129pr1000
************************************************************
Dead Time -------------------------  2.7E-08 
Number of Cycles Used -------------  4 
Starting Wavelength (Angstroms) ---  3331 
Final Wavelength (Angstoms) -------  3351 
Wavelength Increment (Angstroms) --  .25 
Filter Wheel #1 Position ---------- (1) Ground quartz diffuser (ND=2.32)
Filter Wheel #2 Position ---------- 



************************************************************
HL scan start time = 03:57:57
Dark Count =  .2 


Time (GMT)  Wavelength (Ang)  Step Number  Raw Counts  Counts/Second

  238.72        3331.00           6582          42.00       182.22
  239.13        3331.25           6586          50.00       217.09
  239.16        3331.50           6589          45.00       195.29
  239.19        3331.75           6593          47.00       204.01
  239.22        3332.00           6597          49.00       212.73
  239.25        3332.25           6601          50.00       217.09
  239.28        3332.50           6604          47.00       204.01
  239.31        3332.75           6608          44.00       190.93
  239.34        3333.00           6612          46.00       199.65
  239.37        3333.25           6616          49.00       212.73
  239.41        3333.50           6619          44.00       190.93
  239.43        3333.75           6623          46.00       199.65
  239.47        3334.00           6627          48.00       208.37
  239.50        3334.25           6631          48.00       208.37
  239.53        3334.50           6634          54.00       234.53
  239.56        3334.75           6638          58.00       251.96
  239.59        3335.00           6642          59.00       256.32
  239.62        3335.25           6645          56.00       243.24
  239.65        3335.50           6649          60.00       260.68
  239.68        3335.75           6653          71.00       308.63
  239.71        3336.00           6657          89.00       387.10
  239.74        3336.25           6660         390.00      1699.29
  239.77        3336.50           6664        2036.00      8876.58
  239.80        3336.75           6668        4068.00     17740.84
  239.83        3337.00           6672        6299.00     27478.10
  239.86        3337.25           6675        7985.00     34840.08
  239.89        3337.50           6679       10251.00     44739.28
  239.92        3337.75           6683       12901.00     56322.73
  239.95        3338.00           6687       15427.00     67370.91
  239.98        3338.25           6690       17078.00     74595.60
  240.01        3338.50           6694       19538.00     85365.68
  240.04        3338.75           6698       21854.00     95511.03
  240.07        3339.00           6702       24088.00    105302.50
  240.10        3339.25           6705       25595.00    111910.40
  240.13        3339.50           6709       27666.00    120995.30
  240.16        3339.75           6713       29987.00    131182.20
  240.19        3340.00           6717       32488.00    142165.40
  240.22        3340.25           6720       34180.00    149599.60
  240.25        3340.50           6724       36356.00    159164.70
  240.28        3340.75           6728       38370.00    168022.10
  240.31        3341.00           6732       39960.00    175017.80
  240.34        3341.25           6735       40254.00    176311.60
  240.38        3341.50           6739       40280.00    176426.00
  240.41        3341.75           6743       40019.00    175277.40
  240.44        3342.00           6747       38475.00    168484.00
  240.47        3342.25           6750       36787.00    161059.80
  240.50        3342.50           6754       34628.00    151568.40
  240.53        3342.75           6758       32118.00    140540.10
  240.56        3343.00           6762       29846.00    130563.20
  240.59        3343.25           6765       28250.00    123558.00
  240.62        3343.50           6769       26189.00    114515.70
  240.65        3343.75           6773       23446.00    102488.10
  240.68        3344.00           6777       21270.00     92952.26
  240.71        3344.25           6780       19714.00     86136.46
  240.74        3344.50           6784       17454.00     76241.35
  240.77        3344.75           6788       15090.00     65896.56
  240.80        3345.00           6792       12819.00     55964.19
  240.83        3345.25           6795       10951.00     47798.35
  240.86        3345.50           6799        8582.00     37447.61
  240.89        3345.75           6803        6409.00     27958.33
  240.92        3346.00           6807        4205.00     18338.63
  240.95        3346.25           6810        2551.00     11122.78
  240.98        3346.50           6814         734.00      3199.06
  241.01        3346.75           6818         186.00       809.96
  241.04        3347.00           6822          89.00       387.10
  241.07        3347.25           6826          73.00       317.35
  241.10        3347.50           6829          64.00       278.12
  241.13        3347.75           6833          57.00       247.60
  241.16        3348.00           6837          61.00       265.04
  241.19        3348.25           6841          50.00       217.09
  241.22        3348.50           6844          47.00       204.01
  241.25        3348.75           6848          48.00       208.37
  241.28        3349.00           6852          44.00       190.93
  241.31        3349.25           6856          51.00       221.45
  241.34        3349.50           6859          53.00       230.17
  241.37        3349.75           6863          49.00       212.73
  241.40        3350.00           6867          47.00       204.01
  241.43        3350.25           6871          45.00       195.29
  241.46        3350.50           6874          49.00       212.73
  241.49        3350.75           6878          49.00       212.73
  241.52        3351.00           6882          52.00       225.81
HL scan finished at 04:03:01
end
************************************************************
  HL Scan of (1) Internal mercury lamp
************************************************************
Integration time is 0.2294 seconds per sample
dh040818Arosa 46.78-9.675 3.126073pr1000
************************************************************
Dead Time -------------------------  2.7E-08 
Number of Cycles Used -------------  4 
Starting Wavelength (Angstroms) ---  3331 
Final Wavelength (Angstoms) -------  3351 
Wavelength Increment (Angstroms) --  .25 
Filter Wheel #1 Position ---------- (1) Ground quartz diffuser (ND=2.32)
Filter Wheel #2 Position ---------- 



************************************************************
HL scan start time = 20:48:08
Dark Count =  .1 


Time (GMT)  Wavelength (Ang)  Step Number  Raw Counts  Counts/Second

 1248.90        3331.00           6582          41.00       178.29
 1249.31        3331.25           6586          47.00       204.45
 1249.34        3331.50           6589          50.00       217.53
 1249.37        3331.75           6593          46.00       200.09
 1249.40        3332.00           6597          46.00       200.09
 1249.43        3332.25           6601          39.00       169.57
 1249.46        3332.50           6604          49.00       213.17
 1249.49        3332.75           6608          52.00       226.24
 1249.52        3333.00           6612          48.00       208.81
 1249.55        3333.25           6616          54.00       234.96
 1249.58        3333.50           6619          43.00       187.01
 1249.61        3333.75           6623          47.00       204.45
 1249.65        3334.00           6627          48.00       208.81
 1249.68        3334.25           6631          50.00       217.53
 1249.71        3334.50           6634          55.00       239.32
 1249.74        3334.75           6638          54.00       234.96
 1249.77        3335.00           6642          63.00       274.20
 1249.80        3335.25           6645          65.00       282.91
 1249.83        3335.50           6649          61.00       265.48
 1249.86        3335.75           6653          75.00       326.51
 1249.89        3336.00           6657         108.00       470.36
 1249.92        3336.25           6660         540.00      2353.68
 1249.95        3336.50           6664        2422.00     10560.55
 1249.98        3336.75           6668        4723.00     20599.51
 1250.01        3337.00           6672        6649.00     29006.58
 1250.04        3337.25           6675        8310.00     36259.99
 1250.07        3337.50           6679       10812.00     47191.31
 1250.10        3337.75           6683       13354.00     58304.01
 1250.13        3338.00           6687       15488.00     67638.25
 1250.16        3338.25           6690       17224.00     75235.06
 1250.19        3338.50           6694       19623.00     85738.36
 1250.22        3338.75           6698       22034.00     96300.21
 1250.25        3339.00           6702       24709.00    108025.60
 1250.28        3339.25           6705       26530.00    116011.90
 1250.31        3339.50           6709       28901.00    126415.50
 1250.34        3339.75           6713       31366.00    137237.80
 1250.37        3340.00           6717       33658.00    147306.10
 1250.40        3340.25           6720       35251.00    154307.20
 1250.43        3340.50           6724       37217.00    162951.20
 1250.46        3340.75           6728       39200.00    171674.00
 1250.49        3341.00           6732       41022.00    179692.30
 1250.52        3341.25           6735       41616.00    182307.10
 1250.55        3341.50           6739       41745.00    182875.00
 1250.58        3341.75           6743       41349.00    181131.70
 1250.62        3342.00           6747       39409.00    172593.60
 1250.65        3342.25           6750       37969.00    166258.60
 1250.68        3342.50           6754       35859.00    156980.00
 1250.71        3342.75           6758       33328.00    145856.20
 1250.74        3343.00           6762       31239.00    136680.00
 1250.77        3343.25           6765       29565.00    129330.10
 1250.80        3343.50           6769       27302.00    119398.70
 1250.83        3343.75           6773       24826.00    108538.60
 1250.86        3344.00           6777       22177.00     96926.83
 1250.89        3344.25           6780       20318.00     88782.32
 1250.92        3344.50           6784       18031.00     78767.60
 1250.95        3344.75           6788       15511.00     67738.86
 1250.98        3345.00           6792       12820.00     55969.00
 1251.01        3345.25           6795       11307.00     49354.75
 1251.04        3345.50           6799        9176.00     40042.84
 1251.07        3345.75           6803        7041.00     30718.14
 1251.10        3346.00           6807        4583.00     19988.55
 1251.13        3346.25           6810        2725.00     11882.19
 1251.16        3346.50           6814         721.00      3142.81
 1251.19        3346.75           6818         162.00       705.77
 1251.22        3347.00           6822          81.00       352.66
 1251.25        3347.25           6826          71.00       309.07
 1251.28        3347.50           6829          58.00       252.40
 1251.31        3347.75           6833          63.00       274.20
 1251.34        3348.00           6837          62.00       269.84
 1251.37        3348.25           6841          57.00       248.04
 1251.40        3348.50           6844          48.00       208.81
 1251.43        3348.75           6848          48.00       208.81
 1251.46        3349.00           6852          52.00       226.24
 1251.49        3349.25           6856          46.00       200.09
 1251.52        3349.50           6859          46.00       200.09
 1251.55        3349.75           6863          43.00       187.01
 1251.58        3350.00           6867          39.00       169.57
 1251.61        3350.25           6871          43.00       187.01
 1251.64        3350.50           6874          49.00       213.17
 1251.67        3350.75           6878          47.00       204.45
 1251.71        3351.00           6882          49.00       213.17
HL scan finished at 20:53:12
end
