************************************************************
  HL Scan of (1) Internal mercury lamp
************************************************************
Integration time is 0.2294 seconds per sample
dh030818Arosa 46.78-9.675 2.804185pr1000
************************************************************
Dead Time -------------------------  2.7E-08 
Number of Cycles Used -------------  4 
Starting Wavelength (Angstroms) ---  3331 
Final Wavelength (Angstoms) -------  3351 
Wavelength Increment (Angstroms) --  .25 
Filter Wheel #1 Position ---------- (1) Ground quartz diffuser (ND=2.32)
Filter Wheel #2 Position ---------- 



************************************************************
HL scan start time = 00:16:36
Dark Count =  .1 


Time (GMT)  Wavelength (Ang)  Step Number  Raw Counts  Counts/Second

   17.36        3331.00           6579          50.00       217.53
   17.78        3331.25           6582          47.00       204.45
   17.81        3331.50           6586          51.00       221.88
   17.84        3331.75           6590          47.00       204.45
   17.87        3332.00           6594          48.00       208.81
   17.90        3332.25           6597          47.00       204.45
   17.93        3332.50           6601          47.00       204.45
   17.96        3332.75           6605          48.00       208.81
   17.99        3333.00           6608          38.00       165.21
   18.02        3333.25           6612          48.00       208.81
   18.05        3333.50           6616          43.00       187.01
   18.08        3333.75           6620          43.00       187.01
   18.11        3334.00           6623          43.00       187.01
   18.14        3334.25           6627          56.00       243.68
   18.17        3334.50           6631          41.00       178.29
   18.20        3334.75           6635          45.00       195.73
   18.23        3335.00           6638          52.00       226.24
   18.26        3335.25           6642          53.00       230.60
   18.29        3335.50           6646          60.00       261.12
   18.32        3335.75           6649          67.00       291.63
   18.35        3336.00           6653          74.00       322.15
   18.38        3336.25           6657          86.00       374.46
   18.41        3336.50           6661         503.00      2192.37
   18.44        3336.75           6664        1754.00      7647.18
   18.47        3337.00           6668        3935.00     17160.96
   18.50        3337.25           6672        5728.00     24985.90
   18.53        3337.50           6676        7803.00     34045.67
   18.56        3337.75           6679        9459.00     41279.20
   18.59        3338.00           6683       11732.00     51212.44
   18.62        3338.25           6687       14381.00     62795.57
   18.65        3338.50           6690       16210.00     70797.36
   18.68        3338.75           6694       18445.00     80580.10
   18.71        3339.00           6698       20564.00     89859.87
   18.74        3339.25           6702       22716.00     99288.92
   18.77        3339.50           6705       24261.00    106061.40
   18.80        3339.75           6709       26247.00    114770.50
   18.83        3340.00           6713       28004.00    122478.90
   18.86        3340.25           6717       30124.00    131784.10
   18.89        3340.50           6720       31889.00    139534.70
   18.92        3340.75           6724       34139.00    149419.80
   18.95        3341.00           6728       36207.00    158510.00
   18.98        3341.25           6732       37672.00    164952.30
   19.01        3341.50           6735       37950.00    166175.00
   19.04        3341.75           6739       37970.00    166263.00
   19.07        3342.00           6743       37773.00    165396.50
   19.10        3342.25           6747       36158.00    158294.50
   19.13        3342.50           6750       35212.00    154135.80
   19.16        3342.75           6754       32864.00    143817.60
   19.19        3343.00           6758       30616.00    133944.30
   19.22        3343.25           6761       28846.00    126174.10
   19.25        3343.50           6765       26675.00    116648.00
   19.28        3343.75           6769       24640.00    107723.10
   19.31        3344.00           6773       22370.00     97772.59
   19.34        3344.25           6776       20651.00     90240.98
   19.38        3344.50           6780       18441.00     80562.60
   19.41        3344.75           6784       16499.00     72062.05
   19.44        3345.00           6788       14393.00     62848.07
   19.47        3345.25           6791       12819.00     55964.63
   19.50        3345.50           6795       10559.00     46085.65
   19.53        3345.75           6799        8314.00     36277.45
   19.56        3346.00           6803        6034.00     26321.67
   19.59        3346.25           6806        4410.00     19233.61
   19.62        3346.50           6810        2451.00     10687.04
   19.65        3346.75           6814         826.00      3600.61
   19.68        3347.00           6818         180.00       784.24
   19.71        3347.25           6821          74.00       322.15
   19.74        3347.50           6825          61.00       265.48
   19.77        3347.75           6829          67.00       291.63
   19.80        3348.00           6833          61.00       265.48
   19.83        3348.25           6836          53.00       230.60
   19.86        3348.50           6840          51.00       221.88
   19.89        3348.75           6844          51.00       221.88
   19.92        3349.00           6848          58.00       252.40
   19.95        3349.25           6851          46.00       200.09
   19.98        3349.50           6855          38.00       165.21
   20.01        3349.75           6859          45.00       195.73
   20.04        3350.00           6863          47.00       204.45
   20.07        3350.25           6866          40.00       173.93
   20.10        3350.50           6870          46.00       200.09
   20.13        3350.75           6874          49.00       213.17
   20.16        3351.00           6878          49.00       213.17
HL scan finished at 00:21:39
end
************************************************************
  HL Scan of (1) Internal mercury lamp
************************************************************
Integration time is 0.2294 seconds per sample
dh030818Arosa 46.78-9.675 2.804185pr1000
************************************************************
Dead Time -------------------------  2.7E-08 
Number of Cycles Used -------------  4 
Starting Wavelength (Angstroms) ---  3331 
Final Wavelength (Angstoms) -------  3351 
Wavelength Increment (Angstroms) --  .25 
Filter Wheel #1 Position ---------- (1) Ground quartz diffuser (ND=2.32)
Filter Wheel #2 Position ---------- 



************************************************************
HL scan start time = 03:55:08
Dark Count =  .1 


Time (GMT)  Wavelength (Ang)  Step Number  Raw Counts  Counts/Second

  235.90        3331.00           6579          42.00       182.65
  236.31        3331.25           6582          47.00       204.45
  236.34        3331.50           6586          40.00       173.93
  236.37        3331.75           6590          44.00       191.37
  236.40        3332.00           6594          45.00       195.73
  236.43        3332.25           6597          42.00       182.65
  236.46        3332.50           6601          42.00       182.65
  236.49        3332.75           6605          43.00       187.01
  236.52        3333.00           6608          45.00       195.73
  236.55        3333.25           6612          46.00       200.09
  236.58        3333.50           6616          47.00       204.45
  236.61        3333.75           6620          40.00       173.93
  236.64        3334.00           6623          41.00       178.29
  236.67        3334.25           6627          45.00       195.73
  236.70        3334.50           6631          48.00       208.81
  236.73        3334.75           6635          52.00       226.24
  236.76        3335.00           6638          56.00       243.68
  236.79        3335.25           6642          55.00       239.32
  236.82        3335.50           6646          66.00       287.27
  236.85        3335.75           6649          66.00       287.27
  236.88        3336.00           6653          70.00       304.71
  236.91        3336.25           6657         101.00       439.85
  236.94        3336.50           6661         707.00      3081.77
  236.97        3336.75           6664        2125.00      9265.18
  237.00        3337.00           6668        4169.00     18181.99
  237.03        3337.25           6672        6557.00     28604.91
  237.06        3337.50           6676        8781.00     38317.31
  237.09        3337.75           6679       10428.00     45513.18
  237.12        3338.00           6683       12700.00     55444.32
  237.15        3338.25           6687       15004.00     65520.78
  237.18        3338.50           6690       16464.00     71908.88
  237.21        3338.75           6694       18462.00     80654.53
  237.24        3339.00           6698       20585.00     89951.85
  237.27        3339.25           6702       22765.00     99503.68
  237.30        3339.50           6705       24623.00    107648.50
  237.33        3339.75           6709       26795.00    117174.40
  237.36        3340.00           6713       28587.00    125037.40
  237.39        3340.25           6717       30495.00    133413.00
  237.42        3340.50           6720       32030.00    140154.00
  237.45        3340.75           6724       34160.00    149512.10
  237.48        3341.00           6728       36130.00    158171.40
  237.51        3341.25           6732       37379.00    163663.60
  237.54        3341.50           6735       37811.00    165563.60
  237.57        3341.75           6739       37809.00    165554.90
  237.60        3342.00           6743       37202.00    162885.20
  237.63        3342.25           6747       35395.00    154940.20
  237.66        3342.50           6750       33665.00    147336.90
  237.69        3342.75           6754       31732.00    138845.20
  237.72        3343.00           6758       29559.00    129303.70
  237.75        3343.25           6761       27833.00    121728.60
  237.78        3343.50           6765       25905.00    113270.50
  237.81        3343.75           6769       24119.00    105438.80
  237.84        3344.00           6773       22080.00     96501.77
  237.87        3344.25           6776       20288.00     88650.91
  237.90        3344.50           6780       18043.00     78820.15
  237.93        3344.75           6784       15588.00     68075.76
  237.96        3345.00           6788       13449.00     58719.44
  237.99        3345.25           6791       11872.00     51824.43
  238.03        3345.50           6795        9893.00     43175.42
  238.06        3345.75           6799        7756.00     33840.41
  238.09        3346.00           6803        5620.00     24514.48
  238.11        3346.25           6806        4120.00     17968.17
  238.15        3346.50           6810        2203.00      9605.37
  238.18        3346.75           6814         559.00      2436.52
  238.20        3347.00           6818         107.00       466.00
  238.23        3347.25           6821          78.00       339.58
  238.26        3347.50           6825          68.00       295.99
  238.29        3347.75           6829          64.00       278.55
  238.32        3348.00           6833          52.00       226.24
  238.35        3348.25           6836          52.00       226.24
  238.38        3348.50           6840          57.00       248.04
  238.42        3348.75           6844          55.00       239.32
  238.44        3349.00           6848          48.00       208.81
  238.47        3349.25           6851          45.00       195.73
  238.50        3349.50           6855          47.00       204.45
  238.53        3349.75           6859          48.00       208.81
  238.56        3350.00           6863          49.00       213.17
  238.59        3350.25           6866          43.00       187.01
  238.62        3350.50           6870          42.00       182.65
  238.65        3350.75           6874          51.00       221.88
  238.68        3351.00           6878          46.00       200.09
HL scan finished at 04:00:11
end
************************************************************
  HL Scan of (1) Internal mercury lamp
************************************************************
Integration time is 0.2294 seconds per sample
dh030818Arosa 46.78-9.675 3.126073pr1000
************************************************************
Dead Time -------------------------  2.7E-08 
Number of Cycles Used -------------  4 
Starting Wavelength (Angstroms) ---  3331 
Final Wavelength (Angstoms) -------  3351 
Wavelength Increment (Angstroms) --  .25 
Filter Wheel #1 Position ---------- (1) Ground quartz diffuser (ND=2.32)
Filter Wheel #2 Position ---------- 



************************************************************
HL scan start time = 21:01:37
Dark Count =  .2 


Time (GMT)  Wavelength (Ang)  Step Number  Raw Counts  Counts/Second

 1262.38        3331.00           6582          44.00       190.93
 1262.79        3331.25           6586          44.00       190.93
 1262.82        3331.50           6589          46.00       199.65
 1262.85        3331.75           6593          46.00       199.65
 1262.88        3332.00           6597          44.00       190.93
 1262.92        3332.25           6601          46.00       199.65
 1262.94        3332.50           6604          42.00       182.22
 1262.97        3332.75           6608          45.00       195.29
 1263.00        3333.00           6612          50.00       217.09
 1263.03        3333.25           6616          44.00       190.93
 1263.06        3333.50           6619          51.00       221.45
 1263.09        3333.75           6623          49.00       212.73
 1263.12        3334.00           6627          51.00       221.45
 1263.15        3334.25           6631          48.00       208.37
 1263.18        3334.50           6634          49.00       212.73
 1263.21        3334.75           6638          53.00       230.17
 1263.24        3335.00           6642          62.00       269.40
 1263.27        3335.25           6645          57.00       247.60
 1263.30        3335.50           6649          72.00       312.99
 1263.33        3335.75           6653          75.00       326.07
 1263.36        3336.00           6657         115.00       500.44
 1263.39        3336.25           6660         520.00      2266.05
 1263.42        3336.50           6664        2133.00      9299.63
 1263.45        3336.75           6668        4306.00     18779.35
 1263.48        3337.00           6672        6812.00     29717.82
 1263.51        3337.25           6675        8752.00     38190.19
 1263.54        3337.50           6679       11140.00     48624.39
 1263.57        3337.75           6683       13428.00     58627.17
 1263.60        3338.00           6687       15715.00     68630.99
 1263.63        3338.25           6690       17582.00     76801.65
 1263.66        3338.50           6694       20121.00     87919.02
 1263.69        3338.75           6698       22422.00     98000.04
 1263.72        3339.00           6702       24662.00    107819.10
 1263.75        3339.25           6705       26250.00    114783.30
 1263.78        3339.50           6709       28795.00    125949.80
 1263.81        3339.75           6713       31414.00    137448.10
 1263.84        3340.00           6717       33901.00    148373.50
 1263.87        3340.25           6720       35531.00    155537.60
 1263.90        3340.50           6724       37710.00    165119.00
 1263.93        3340.75           6728       40114.00    175695.50
 1263.96        3341.00           6732       41949.00    183772.70
 1263.98        3341.25           6735       42280.00    185230.10
 1264.01        3341.50           6739       42182.00    184798.60
 1264.04        3341.75           6743       42030.00    184129.40
 1264.07        3342.00           6747       40170.00    175941.90
 1264.10        3342.25           6750       38246.00    167476.60
 1264.13        3342.50           6754       35812.00    156772.90
 1264.16        3342.75           6758       33477.00    146510.40
 1264.19        3343.00           6762       31394.00    137360.30
 1264.22        3343.25           6765       29752.00    130150.60
 1264.25        3343.50           6769       27356.00    119635.20
 1264.28        3343.75           6773       24854.00    108661.00
 1264.31        3344.00           6777       23003.00    100546.40
 1264.34        3344.25           6780       21017.00     91843.88
 1264.37        3344.50           6784       18361.00     80211.90
 1264.40        3344.75           6788       15770.00     68871.63
 1264.43        3345.00           6792       13075.00     57083.56
 1264.46        3345.25           6795       11326.00     49437.35
 1264.49        3345.50           6799        9047.00     39478.85
 1264.52        3345.75           6803        6433.00     28063.10
 1264.55        3346.00           6807        3867.00     16863.82
 1264.58        3346.25           6810        2266.00      9879.71
 1264.61        3346.50           6814         721.00      3142.38
 1264.64        3346.75           6818         168.00       731.49
 1264.67        3347.00           6822          81.00       352.23
 1264.70        3347.25           6826          79.00       343.51
 1264.73        3347.50           6829          69.00       299.92
 1264.76        3347.75           6833          62.00       269.40
 1264.79        3348.00           6837          55.00       238.89
 1264.82        3348.25           6841          52.00       225.81
 1264.85        3348.50           6844          46.00       199.65
 1264.88        3348.75           6848          44.00       190.93
 1264.91        3349.00           6852          50.00       217.09
 1264.94        3349.25           6856          44.00       190.93
 1264.97        3349.50           6859          51.00       221.45
 1265.00        3349.75           6863          48.00       208.37
 1265.03        3350.00           6867          50.00       217.09
 1265.06        3350.25           6871          52.00       225.81
 1265.09        3350.50           6874          52.00       225.81
 1265.11        3350.75           6878          46.00       199.65
 1265.14        3351.00           6882          55.00       238.89
HL scan finished at 21:06:38
end
