************************************************************
  HL Scan of (1) Internal mercury lamp
************************************************************
Integration time is 0.2294 seconds per sample
dh070818Arosa 46.78-9.675 2.750537pr1000
************************************************************
Dead Time -------------------------  2.7E-08 
Number of Cycles Used -------------  4 
Starting Wavelength (Angstroms) ---  3331 
Final Wavelength (Angstoms) -------  3351 
Wavelength Increment (Angstroms) --  .25 
Filter Wheel #1 Position ---------- (1) Ground quartz diffuser (ND=2.32)
Filter Wheel #2 Position ---------- 



************************************************************
HL scan start time = 04:01:42
Dark Count =  .2 


Time (GMT)  Wavelength (Ang)  Step Number  Raw Counts  Counts/Second

  242.47        3331.00           6582          54.00       234.53
  242.88        3331.25           6586          54.00       234.53
  242.91        3331.50           6589          52.00       225.81
  242.94        3331.75           6593          52.00       225.81
  242.97        3332.00           6597          51.00       221.45
  243.00        3332.25           6601          56.00       243.24
  243.03        3332.50           6604          54.00       234.53
  243.06        3332.75           6608          54.00       234.53
  243.09        3333.00           6612          47.00       204.01
  243.12        3333.25           6616          47.00       204.01
  243.15        3333.50           6619          56.00       243.24
  243.18        3333.75           6623          56.00       243.24
  243.21        3334.00           6627          55.00       238.89
  243.24        3334.25           6631          56.00       243.24
  243.27        3334.50           6634          52.00       225.81
  243.30        3334.75           6638          63.00       273.76
  243.33        3335.00           6642          65.00       282.48
  243.36        3335.25           6645          80.00       347.87
  243.39        3335.50           6649          84.00       365.30
  243.42        3335.75           6653         103.00       448.13
  243.45        3336.00           6657         222.00       966.90
  243.48        3336.25           6660        1149.00      5008.52
  243.51        3336.50           6664        3445.00     15022.66
  243.54        3336.75           6668        5887.00     25679.52
  243.57        3337.00           6672        8302.00     36224.60
  243.60        3337.25           6675       10195.00     44494.58
  243.63        3337.50           6679       12945.00     56515.12
  243.66        3337.75           6683       16064.00     70158.05
  243.69        3338.00           6687       18967.00     82865.23
  243.72        3338.25           6690       21064.00     92049.78
  243.75        3338.50           6694       23787.00    103982.90
  243.79        3338.75           6698       26402.00    115450.00
  243.82        3339.00           6702       29204.00    127745.00
  243.85        3339.25           6705       31305.00    136969.40
  243.88        3339.50           6709       33820.00    148017.60
  243.91        3339.75           6713       36201.00    158483.20
  243.94        3340.00           6717       38730.00    169605.80
  243.97        3340.25           6720       40790.00    178670.70
  244.00        3340.50           6724       43609.00    191082.70
  244.03        3340.75           6728       46115.00    202123.60
  244.06        3341.00           6732       48008.00    210468.20
  244.09        3341.25           6735       48163.00    211151.60
  244.12        3341.50           6739       48176.00    211208.90
  244.15        3341.75           6743       47458.00    208043.30
  244.18        3342.00           6747       45483.00    199338.50
  244.21        3342.25           6750       43579.00    190950.60
  244.24        3342.50           6754       40818.00    178793.90
  244.27        3342.75           6758       37868.00    165813.90
  244.30        3343.00           6762       35049.00    153418.90
  244.33        3343.25           6765       33152.00    145082.50
  244.36        3343.50           6769       30499.00    133430.10
  244.39        3343.75           6773       27975.00    122351.20
  244.42        3344.00           6777       25050.00    109520.40
  244.45        3344.25           6780       22763.00     99494.47
  244.49        3344.50           6784       20408.00     89176.10
  244.52        3344.75           6788       17710.00     77361.96
  244.55        3345.00           6792       14761.00     64457.33
  244.58        3345.25           6795       12410.00     54175.96
  244.61        3345.50           6799        9441.00     41200.13
  244.64        3345.75           6803        6613.00     28848.97
  244.67        3346.00           6807        4180.00     18229.55
  244.70        3346.25           6810        2126.00      9269.10
  244.73        3346.50           6814         410.00      1786.49
  244.76        3346.75           6818         110.00       478.65
  244.79        3347.00           6822          83.00       360.95
  244.82        3347.25           6826          83.00       360.95
  244.85        3347.50           6829          76.00       330.43
  244.88        3347.75           6833          68.00       295.56
  244.91        3348.00           6837          64.00       278.12
  244.94        3348.25           6841          63.00       273.76
  244.97        3348.50           6844          57.00       247.60
  245.00        3348.75           6848          56.00       243.24
  245.03        3349.00           6852          57.00       247.60
  245.06        3349.25           6856          55.00       238.89
  245.09        3349.50           6859          58.00       251.96
  245.12        3349.75           6863          57.00       247.60
  245.15        3350.00           6867          55.00       238.89
  245.18        3350.25           6871          59.00       256.32
  245.21        3350.50           6874          47.00       204.01
  245.24        3350.75           6878          44.00       190.93
  245.27        3351.00           6882          51.00       221.45
HL scan finished at 04:06:46
end
************************************************************
  HL Scan of (1) Internal mercury lamp
************************************************************
Integration time is 0.2294 seconds per sample
dh070818Arosa 46.78-9.675 3.018777pr1000
************************************************************
Dead Time -------------------------  2.8E-08 
Number of Cycles Used -------------  4 
Starting Wavelength (Angstroms) ---  3331 
Final Wavelength (Angstoms) -------  3351 
Wavelength Increment (Angstroms) --  .25 
Filter Wheel #1 Position ---------- (1) Ground quartz diffuser (ND=2.32)
Filter Wheel #2 Position ---------- 



************************************************************
HL scan start time = 20:54:49
Dark Count =  .2 


Time (GMT)  Wavelength (Ang)  Step Number  Raw Counts  Counts/Second

 1255.58        3331.00           6582          52.00       225.81
 1255.99        3331.25           6586          54.00       234.53
 1256.02        3331.50           6589          55.00       238.89
 1256.05        3331.75           6593          60.00       260.68
 1256.08        3332.00           6597          52.00       225.81
 1256.11        3332.25           6601          50.00       217.09
 1256.14        3332.50           6604          52.00       225.81
 1256.17        3332.75           6608          55.00       238.89
 1256.20        3333.00           6612          59.00       256.32
 1256.24        3333.25           6616          54.00       234.53
 1256.27        3333.50           6619          57.00       247.60
 1256.30        3333.75           6623          58.00       251.96
 1256.33        3334.00           6627          63.00       273.76
 1256.36        3334.25           6631          52.00       225.81
 1256.39        3334.50           6634          59.00       256.32
 1256.42        3334.75           6638          61.00       265.04
 1256.45        3335.00           6642          66.00       286.84
 1256.48        3335.25           6645          75.00       326.07
 1256.51        3335.50           6649          71.00       308.63
 1256.54        3335.75           6653          88.00       382.74
 1256.56        3336.00           6657         150.00       653.02
 1256.60        3336.25           6660         770.00      3356.03
 1256.63        3336.50           6664        3496.00     15245.39
 1256.66        3336.75           6668        6700.00     29229.67
 1256.69        3337.00           6672        9618.00     41975.20
 1256.72        3337.25           6675       11665.00     50921.73
 1256.75        3337.50           6679       14383.00     62807.83
 1256.78        3337.75           6683       17790.00     77718.21
 1256.81        3338.00           6687       21231.00     92790.03
 1256.84        3338.25           6690       23036.00    100701.20
 1256.87        3338.50           6694       25930.00    113392.60
 1256.90        3338.75           6698       29198.00    127735.00
 1256.93        3339.00           6702       32243.00    141109.20
 1256.96        3339.25           6705       35087.00    153609.60
 1256.99        3339.50           6709       38114.00    166924.00
 1257.02        3339.75           6713       40819.00    178830.40
 1257.05        3340.00           6717       43928.00    192525.10
 1257.08        3340.25           6720       46351.00    203205.20
 1257.11        3340.50           6724       49008.00    214924.20
 1257.14        3340.75           6728       51914.00    227750.30
 1257.17        3341.00           6732       53547.00    234961.80
 1257.20        3341.25           6735       53788.00    236026.40
 1257.23        3341.50           6739       53900.00    236521.10
 1257.26        3341.75           6743       52911.00    232152.80
 1257.29        3342.00           6747       50732.00    222532.20
 1257.32        3342.25           6750       48522.00    212780.10
 1257.35        3342.50           6754       45551.00    199678.20
 1257.38        3342.75           6758       42541.00    186414.30
 1257.41        3343.00           6762       39557.00    173274.60
 1257.44        3343.25           6765       37454.00    164020.10
 1257.48        3343.50           6769       34940.00    152963.30
 1257.51        3343.75           6773       31661.00    138552.20
 1257.54        3344.00           6777       28513.00    124727.80
 1257.57        3344.25           6780       25694.00    112357.30
 1257.60        3344.50           6784       22463.00     98189.38
 1257.63        3344.75           6788       19466.00     85057.61
 1257.66        3345.00           6792       16329.00     71322.76
 1257.69        3345.25           6795       13915.00     60760.65
 1257.72        3345.50           6799       10583.00     46192.23
 1257.75        3345.75           6803        7905.00     34491.88
 1257.78        3346.00           6807        5107.00     22275.44
 1257.81        3346.25           6810        2855.00     12448.98
 1257.84        3346.50           6814         703.00      3063.91
 1257.87        3346.75           6818         146.00       635.58
 1257.90        3347.00           6822         101.00       439.41
 1257.93        3347.25           6826          81.00       352.23
 1257.96        3347.50           6829          83.00       360.95
 1257.99        3347.75           6833          72.00       312.99
 1258.02        3348.00           6837          65.00       282.48
 1258.05        3348.25           6841          68.00       295.56
 1258.08        3348.50           6844          64.00       278.12
 1258.11        3348.75           6848          62.00       269.40
 1258.14        3349.00           6852          63.00       273.76
 1258.17        3349.25           6856          54.00       234.53
 1258.20        3349.50           6859          55.00       238.89
 1258.23        3349.75           6863          60.00       260.68
 1258.26        3350.00           6867          55.00       238.89
 1258.29        3350.25           6871          50.00       217.09
 1258.32        3350.50           6874          62.00       269.40
 1258.35        3350.75           6878          53.00       230.17
 1258.38        3351.00           6882          61.00       265.04
HL scan finished at 20:59:53
end
