************************************************************
  HL Scan of (1) Internal mercury lamp
************************************************************
Integration time is 0.2294 seconds per sample
dh020818Arosa 46.78-9.675 2.750537pr1000
************************************************************
Dead Time -------------------------  2.7E-08 
Number of Cycles Used -------------  4 
Starting Wavelength (Angstroms) ---  3331 
Final Wavelength (Angstoms) -------  3351 
Wavelength Increment (Angstroms) --  .25 
Filter Wheel #1 Position ---------- (1) Ground quartz diffuser (ND=2.32)
Filter Wheel #2 Position ---------- 



************************************************************
HL scan start time = 03:48:53
Dark Count =  .1 


Time (GMT)  Wavelength (Ang)  Step Number  Raw Counts  Counts/Second

  229.65        3331.00           6579          50.00       217.53
  230.06        3331.25           6582          46.00       200.09
  230.09        3331.50           6586          36.00       156.50
  230.12        3331.75           6590          48.00       208.81
  230.15        3332.00           6594          39.00       169.57
  230.18        3332.25           6597          44.00       191.37
  230.21        3332.50           6601          49.00       213.17
  230.24        3332.75           6605          47.00       204.45
  230.27        3333.00           6608          42.00       182.65
  230.30        3333.25           6612          42.00       182.65
  230.33        3333.50           6616          36.00       156.50
  230.36        3333.75           6620          39.00       169.57
  230.39        3334.00           6623          45.00       195.73
  230.42        3334.25           6627          41.00       178.29
  230.45        3334.50           6631          48.00       208.81
  230.48        3334.75           6635          51.00       221.88
  230.51        3335.00           6638          48.00       208.81
  230.54        3335.25           6642          56.00       243.68
  230.57        3335.50           6646          61.00       265.48
  230.60        3335.75           6649          65.00       282.91
  230.63        3336.00           6653          70.00       304.71
  230.66        3336.25           6657         129.00       561.91
  230.69        3336.50           6661        1064.00      4638.33
  230.72        3336.75           6664        2358.00     10281.41
  230.75        3337.00           6668        4033.00     17588.56
  230.78        3337.25           6672        6049.00     26387.15
  230.81        3337.50           6676        8369.00     36517.68
  230.85        3337.75           6679        9710.00     42375.83
  230.87        3338.00           6683       11622.00     50731.61
  230.90        3338.25           6687       13876.00     60586.83
  230.94        3338.50           6690       15440.00     67428.24
  230.97        3338.75           6694       17734.00     77467.45
  231.00        3339.00           6698       19819.00     86596.74
  231.03        3339.25           6702       21812.00     95327.44
  231.06        3339.50           6705       23536.00    102883.10
  231.09        3339.75           6709       25560.00    111757.40
  231.12        3340.00           6713       27367.00    119683.90
  231.15        3340.25           6717       29266.00    128017.60
  231.18        3340.50           6720       30579.00    133781.90
  231.21        3340.75           6724       32388.00    141726.60
  231.24        3341.00           6728       34444.00    150760.20
  231.27        3341.25           6732       35879.00    157067.90
  231.30        3341.50           6735       35974.00    157485.60
  231.33        3341.75           6739       35999.00    157595.50
  231.36        3342.00           6743       35389.00    154913.80
  231.39        3342.25           6747       33920.00    148457.40
  231.42        3342.50           6750       32374.00    141665.10
  231.45        3342.75           6754       30465.00    133281.30
  231.48        3343.00           6758       28590.00    125050.60
  231.51        3343.25           6761       27168.00    118810.80
  231.54        3343.50           6765       25083.00    109665.60
  231.57        3343.75           6769       23075.00    100862.40
  231.60        3344.00           6773       20768.00     90753.49
  231.63        3344.25           6776       19093.00     83417.41
  231.66        3344.50           6780       17091.00     74652.94
  231.69        3344.75           6784       14786.00     64567.14
  231.72        3345.00           6788       12759.00     55702.29
  231.75        3345.25           6791       11308.00     49359.12
  231.78        3345.50           6795        9566.00     41746.68
  231.81        3345.75           6799        7438.00     32451.70
  231.84        3346.00           6803        5377.00     23453.82
  231.87        3346.25           6806        3871.00     16881.71
  231.90        3346.50           6810        1818.00      7926.28
  231.94        3346.75           6814         456.00      1987.47
  231.96        3347.00           6818         114.00       496.52
  232.00        3347.25           6821          80.00       348.30
  232.03        3347.50           6825          60.00       261.12
  232.06        3347.75           6829          66.00       287.27
  232.09        3348.00           6833          58.00       252.40
  232.12        3348.25           6836          55.00       239.32
  232.15        3348.50           6840          49.00       213.17
  232.18        3348.75           6844          49.00       213.17
  232.21        3349.00           6848          49.00       213.17
  232.24        3349.25           6851          49.00       213.17
  232.27        3349.50           6855          49.00       213.17
  232.30        3349.75           6859          45.00       195.73
  232.33        3350.00           6863          46.00       200.09
  232.36        3350.25           6866          47.00       204.45
  232.39        3350.50           6870          51.00       221.88
  232.42        3350.75           6874          50.00       217.53
  232.45        3351.00           6878          47.00       204.45
HL scan finished at 03:53:56
end
************************************************************
  HL Scan of (1) Internal mercury lamp
************************************************************
Integration time is 0.2294 seconds per sample
dh020818Arosa 46.78-9.675 3.018777pr1000
************************************************************
Dead Time -------------------------  2.7E-08 
Number of Cycles Used -------------  4 
Starting Wavelength (Angstroms) ---  3331 
Final Wavelength (Angstoms) -------  3351 
Wavelength Increment (Angstroms) --  .25 
Filter Wheel #1 Position ---------- (1) Ground quartz diffuser (ND=2.32)
Filter Wheel #2 Position ---------- 



************************************************************
HL scan start time = 21:01:38
Dark Count =  .2 


Time (GMT)  Wavelength (Ang)  Step Number  Raw Counts  Counts/Second

 1262.40        3331.00           6579          50.00       217.09
 1262.81        3331.25           6582          47.00       204.01
 1262.84        3331.50           6586          44.00       190.93
 1262.87        3331.75           6590          52.00       225.81
 1262.90        3332.00           6594          47.00       204.01
 1262.93        3332.25           6597          51.00       221.45
 1262.96        3332.50           6601          50.00       217.09
 1262.99        3332.75           6605          51.00       221.45
 1263.02        3333.00           6608          44.00       190.93
 1263.05        3333.25           6612          45.00       195.29
 1263.08        3333.50           6616          52.00       225.81
 1263.11        3333.75           6620          51.00       221.45
 1263.14        3334.00           6623          47.00       204.01
 1263.17        3334.25           6627          43.00       186.57
 1263.20        3334.50           6631          45.00       195.29
 1263.23        3334.75           6635          43.00       186.57
 1263.26        3335.00           6638          47.00       204.01
 1263.29        3335.25           6642          56.00       243.24
 1263.32        3335.50           6646          66.00       286.84
 1263.34        3335.75           6649          62.00       269.40
 1263.37        3336.00           6653          71.00       308.63
 1263.40        3336.25           6657          96.00       417.62
 1263.43        3336.50           6661         514.00      2239.89
 1263.46        3336.75           6664        1918.00      8361.96
 1263.49        3337.00           6668        4343.00     18940.81
 1263.52        3337.25           6672        6650.00     29010.51
 1263.55        3337.50           6676        8606.00     37552.45
 1263.58        3337.75           6679       10109.00     44118.79
 1263.61        3338.00           6683       12534.00     54718.10
 1263.64        3338.25           6687       15130.00     66071.56
 1263.67        3338.50           6690       16652.00     72731.18
 1263.70        3338.75           6694       18900.00     82571.86
 1263.73        3339.00           6698       21103.00     92220.62
 1263.76        3339.25           6702       23339.00    102019.10
 1263.79        3339.50           6705       25479.00    111401.70
 1263.82        3339.75           6709       27972.00    122338.00
 1263.85        3340.00           6713       30076.00    131573.00
 1263.88        3340.25           6717       32217.00    140975.00
 1263.91        3340.50           6720       34170.00    149555.60
 1263.94        3340.75           6724       36354.00    159155.90
 1263.97        3341.00           6728       38396.00    168136.50
 1264.00        3341.25           6732       39953.00    174987.00
 1264.03        3341.50           6735       40488.00    177341.50
 1264.06        3341.75           6739       40490.00    177350.30
 1264.09        3342.00           6743       40376.00    176848.50
 1264.12        3342.25           6747       38482.00    168514.80
 1264.15        3342.50           6750       36857.00    161367.60
 1264.18        3342.75           6754       34814.00    152385.90
 1264.21        3343.00           6758       32792.00    143500.90
 1264.24        3343.25           6761       30848.00    134962.60
 1264.26        3343.50           6765       28817.00    126046.40
 1264.29        3343.75           6769       26673.00    116638.80
 1264.32        3344.00           6773       24525.00    107218.40
 1264.36        3344.25           6776       22713.00     99275.34
 1264.39        3344.50           6780       20165.00     88111.72
 1264.42        3344.75           6784       17444.00     76197.59
 1264.45        3345.00           6788       15264.00     66657.79
 1264.48        3345.25           6791       13640.00     59554.27
 1264.51        3345.50           6795       11129.00     48576.31
 1264.54        3345.75           6799        8665.00     37810.16
 1264.57        3346.00           6803        6717.00     29303.04
 1264.60        3346.25           6806        4958.00     21624.65
 1264.63        3346.50           6810        2864.00     12488.08
 1264.66        3346.75           6814         927.00      4040.55
 1264.69        3347.00           6818         184.00       801.24
 1264.71        3347.25           6821          92.00       400.18
 1264.74        3347.50           6825          81.00       352.23
 1264.77        3347.75           6829          68.00       295.56
 1264.80        3348.00           6833          64.00       278.12
 1264.83        3348.25           6836          52.00       225.81
 1264.86        3348.50           6840          53.00       230.17
 1264.89        3348.75           6844          47.00       204.01
 1264.92        3349.00           6848          48.00       208.37
 1264.95        3349.25           6851          46.00       199.65
 1264.98        3349.50           6855          47.00       204.01
 1265.01        3349.75           6859          48.00       208.37
 1265.04        3350.00           6863          43.00       186.57
 1265.07        3350.25           6866          50.00       217.09
 1265.10        3350.50           6870          53.00       230.17
 1265.13        3350.75           6874          44.00       190.93
 1265.16        3351.00           6878          52.00       225.81
HL scan finished at 21:06:39
end
