************************************************************
  HL Scan of (1) Internal mercury lamp
************************************************************
Integration time is 0.2294 seconds per sample
dh050818Arosa 46.78-9.675 2.911481pr1000
************************************************************
Dead Time -------------------------  2.7E-08 
Number of Cycles Used -------------  4 
Starting Wavelength (Angstroms) ---  3331 
Final Wavelength (Angstoms) -------  3351 
Wavelength Increment (Angstroms) --  .25 
Filter Wheel #1 Position ---------- (1) Ground quartz diffuser (ND=2.32)
Filter Wheel #2 Position ---------- 



************************************************************
HL scan start time = 03:53:22
Dark Count =  .1 


Time (GMT)  Wavelength (Ang)  Step Number  Raw Counts  Counts/Second

  234.13        3331.00           6582          45.00       195.73
  234.54        3331.25           6586          43.00       187.01
  234.57        3331.50           6589          41.00       178.29
  234.60        3331.75           6593          41.00       178.29
  234.63        3332.00           6597          40.00       173.93
  234.66        3332.25           6601          42.00       182.65
  234.69        3332.50           6604          43.00       187.01
  234.72        3332.75           6608          52.00       226.24
  234.75        3333.00           6612          43.00       187.01
  234.78        3333.25           6616          48.00       208.81
  234.81        3333.50           6619          48.00       208.81
  234.84        3333.75           6623          45.00       195.73
  234.87        3334.00           6627          44.00       191.37
  234.90        3334.25           6631          57.00       248.04
  234.93        3334.50           6634          50.00       217.53
  234.96        3334.75           6638          55.00       239.32
  234.99        3335.00           6642          56.00       243.68
  235.02        3335.25           6645          58.00       252.40
  235.05        3335.50           6649          69.00       300.35
  235.08        3335.75           6653          71.00       309.07
  235.11        3336.00           6657         115.00       500.88
  235.14        3336.25           6660         815.00      3552.65
  235.17        3336.50           6664        2821.00     12300.95
  235.20        3336.75           6668        4755.00     20739.16
  235.23        3337.00           6672        7087.00     30919.00
  235.26        3337.25           6675        8836.00     38557.56
  235.29        3337.50           6679       10975.00     47903.69
  235.32        3337.75           6683       13030.00     56887.22
  235.35        3338.00           6687       15257.00     66627.60
  235.38        3338.25           6690       16610.00     72547.81
  235.42        3338.50           6694       19095.00     83426.16
  235.44        3338.75           6698       21635.00     94551.89
  235.48        3339.00           6702       23759.00    103860.60
  235.51        3339.25           6705       25627.00    112051.20
  235.54        3339.50           6709       27577.00    120605.30
  235.57        3339.75           6713       29628.00    129606.60
  235.60        3340.00           6717       32063.00    140299.00
  235.63        3340.25           6720       33437.00    146335.10
  235.66        3340.50           6724       35357.00    154773.10
  235.69        3340.75           6728       37775.00    165405.30
  235.72        3341.00           6732       39054.00    171031.70
  235.75        3341.25           6735       39300.00    172114.00
  235.78        3341.50           6739       39471.00    172866.40
  235.81        3341.75           6743       38471.00    168466.80
  235.84        3342.00           6747       36695.00    160655.70
  235.87        3342.25           6750       34917.00    152839.10
  235.90        3342.50           6754       32839.00    143707.80
  235.93        3342.75           6758       30842.00    134936.70
  235.96        3343.00           6762       28925.00    126520.80
  235.99        3343.25           6765       27239.00    119122.30
  236.03        3343.50           6769       25037.00    109463.90
  236.06        3343.75           6773       22627.00     98898.88
  236.09        3344.00           6777       20117.00     87901.93
  236.12        3344.25           6780       18530.00     80952.25
  236.15        3344.50           6784       16305.00     71213.09
  236.18        3344.75           6788       14326.00     62555.00
  236.21        3345.00           6792       11926.00     52060.49
  236.24        3345.25           6795       10280.00     44866.44
  236.27        3345.50           6799        8157.00     35591.73
  236.30        3345.75           6803        6007.00     26203.80
  236.34        3346.00           6807        3655.00     15939.29
  236.37        3346.25           6810        1898.00      8275.17
  236.40        3346.50           6814         395.00      1721.53
  236.43        3346.75           6818         109.00       474.72
  236.46        3347.00           6822          76.00       330.87
  236.49        3347.25           6826          80.00       348.30
  236.52        3347.50           6829          58.00       252.40
  236.55        3347.75           6833          61.00       265.48
  236.58        3348.00           6837          56.00       243.68
  236.61        3348.25           6841          59.00       256.76
  236.64        3348.50           6844          49.00       213.17
  236.67        3348.75           6848          50.00       217.53
  236.70        3349.00           6852          49.00       213.17
  236.73        3349.25           6856          51.00       221.88
  236.76        3349.50           6859          49.00       213.17
  236.79        3349.75           6863          44.00       191.37
  236.82        3350.00           6867          48.00       208.81
  236.85        3350.25           6871          55.00       239.32
  236.88        3350.50           6874          46.00       200.09
  236.91        3350.75           6878          52.00       226.24
  236.95        3351.00           6882          54.00       234.96
HL scan finished at 03:58:26
end
************************************************************
  HL Scan of (1) Internal mercury lamp
************************************************************
Integration time is 0.2294 seconds per sample
dh050818Arosa 46.78-9.675 3.179721pr1000
************************************************************
Dead Time -------------------------  2.7E-08 
Number of Cycles Used -------------  4 
Starting Wavelength (Angstroms) ---  3331 
Final Wavelength (Angstoms) -------  3351 
Wavelength Increment (Angstroms) --  .25 
Filter Wheel #1 Position ---------- (1) Ground quartz diffuser (ND=2.32)
Filter Wheel #2 Position ---------- 



************************************************************
HL scan start time = 21:01:27
Dark Count =  .4 


Time (GMT)  Wavelength (Ang)  Step Number  Raw Counts  Counts/Second

 1262.22        3331.00           6582          69.00       299.04
 1262.63        3331.25           6586          55.00       238.01
 1262.66        3331.50           6589          51.00       220.58
 1262.69        3331.75           6593          54.00       233.65
 1262.72        3332.00           6597          60.00       259.81
 1262.75        3332.25           6601          62.00       268.53
 1262.78        3332.50           6604          54.00       233.65
 1262.81        3332.75           6608          52.00       224.94
 1262.84        3333.00           6612          67.00       290.32
 1262.86        3333.25           6616          58.00       251.09
 1262.89        3333.50           6619          59.00       255.45
 1262.92        3333.75           6623          48.00       207.50
 1262.95        3334.00           6627          55.00       238.01
 1262.98        3334.25           6631          64.00       277.25
 1263.01        3334.50           6634          65.00       281.61
 1263.04        3334.75           6638          58.00       251.09
 1263.07        3335.00           6642          74.00       320.84
 1263.10        3335.25           6645          80.00       347.00
 1263.13        3335.50           6649          94.00       408.03
 1263.16        3335.75           6653          89.00       386.23
 1263.19        3336.00           6657         155.00       673.94
 1263.22        3336.25           6660         815.00      3551.34
 1263.25        3336.50           6664        3515.00     15327.18
 1263.28        3336.75           6668        6906.00     30127.38
 1263.31        3337.00           6672       10188.00     44463.12
 1263.34        3337.25           6675       12380.00     54043.93
 1263.37        3337.50           6679       15114.00     66000.68
 1263.40        3337.75           6683       18432.00     80521.86
 1263.43        3338.00           6687       21717.00     94909.86
 1263.46        3338.25           6690       24512.00    107160.50
 1263.49        3338.50           6694       27936.00    122179.20
 1263.52        3338.75           6698       31080.00    135980.50
 1263.55        3339.00           6702       34075.00    149137.30
 1263.58        3339.25           6705       36266.00    158768.10
 1263.61        3339.50           6709       39899.00    174748.50
 1263.64        3339.75           6713       43010.00    188443.70
 1263.67        3340.00           6717       45846.00    200937.30
 1263.70        3340.25           6720       48439.00    212367.70
 1263.73        3340.50           6724       51268.00    224846.50
 1263.76        3340.75           6728       54465.00    238958.80
 1263.78        3341.00           6732       57025.00    250267.00
 1263.81        3341.25           6735       57445.00    252122.90
 1263.84        3341.50           6739       57437.00    252087.50
 1263.87        3341.75           6743       57006.00    250183.00
 1263.90        3342.00           6747       54174.00    237673.80
 1263.93        3342.25           6750       52111.00    228566.70
 1263.96        3342.50           6754       48953.00    214634.30
 1263.99        3342.75           6758       46019.00    201699.70
 1264.02        3343.00           6762       42795.00    187496.90
 1264.05        3343.25           6765       40031.00    175329.40
 1264.08        3343.50           6769       36687.00    160619.20
 1264.11        3343.75           6773       33318.00    145810.90
 1264.14        3344.00           6777       30325.00    132665.30
 1264.17        3344.25           6780       27901.00    122025.60
 1264.20        3344.50           6784       24681.00    107901.50
 1264.23        3344.75           6788       21142.00     92390.61
 1264.26        3345.00           6792       18343.00     80132.21
 1264.29        3345.25           6795       15860.00     69264.55
 1264.32        3345.50           6799       12445.00     54328.11
 1264.35        3345.75           6803        8954.00     39071.71
 1264.38        3346.00           6807        5292.00     23081.51
 1264.41        3346.25           6810        2681.00     11688.96
 1264.44        3346.50           6814         718.00      3128.42
 1264.47        3346.75           6818         169.00       734.98
 1264.50        3347.00           6822          95.00       412.38
 1264.53        3347.25           6826          84.00       364.43
 1264.56        3347.50           6829          89.00       386.23
 1264.59        3347.75           6833          70.00       303.40
 1264.62        3348.00           6837          74.00       320.84
 1264.64        3348.25           6841          74.00       320.84
 1264.67        3348.50           6844          65.00       281.61
 1264.70        3348.75           6848          59.00       255.45
 1264.73        3349.00           6852          59.00       255.45
 1264.76        3349.25           6856          64.00       277.25
 1264.79        3349.50           6859          60.00       259.81
 1264.82        3349.75           6863          51.00       220.58
 1264.85        3350.00           6867          61.00       264.17
 1264.88        3350.25           6871          61.00       264.17
 1264.91        3350.50           6874          50.00       216.22
 1264.94        3350.75           6878          62.00       268.53
 1264.97        3351.00           6882          63.00       272.89
HL scan finished at 21:06:28
end
