************************************************************
  HL Scan of (1) Internal mercury lamp
************************************************************
Integration time is 0.2294 seconds per sample
dh010818Arosa 46.78-9.675 3.018777pr1000
************************************************************
Dead Time -------------------------  2.7E-08 
Number of Cycles Used -------------  4 
Starting Wavelength (Angstroms) ---  3331 
Final Wavelength (Angstoms) -------  3351 
Wavelength Increment (Angstroms) --  .25 
Filter Wheel #1 Position ---------- (1) Ground quartz diffuser (ND=2.32)
Filter Wheel #2 Position ---------- 



************************************************************
HL scan start time = 04:08:27
Dark Count =  .2 


Time (GMT)  Wavelength (Ang)  Step Number  Raw Counts  Counts/Second

  249.22        3331.00           6579          45.00       195.29
  249.63        3331.25           6582          50.00       217.09
  249.66        3331.50           6586          55.00       238.89
  249.69        3331.75           6590          50.00       217.09
  249.73        3332.00           6594          48.00       208.37
  249.76        3332.25           6597          42.00       182.22
  249.79        3332.50           6601          41.00       177.86
  249.82        3332.75           6605          55.00       238.89
  249.85        3333.00           6608          49.00       212.73
  249.88        3333.25           6612          45.00       195.29
  249.91        3333.50           6616          44.00       190.93
  249.95        3333.75           6620          44.00       190.93
  249.98        3334.00           6623          39.00       169.14
  250.01        3334.25           6627          48.00       208.37
  250.04        3334.50           6631          53.00       230.17
  250.07        3334.75           6635          51.00       221.45
  250.10        3335.00           6638          52.00       225.81
  250.13        3335.25           6642          56.00       243.24
  250.16        3335.50           6646          61.00       265.04
  250.20        3335.75           6649          68.00       295.56
  250.23        3336.00           6653          68.00       295.56
  250.26        3336.25           6657          87.00       378.38
  250.29        3336.50           6661         691.00      3011.58
  250.32        3336.75           6664        1992.00      8684.69
  250.35        3337.00           6668        4029.00     17570.67
  250.38        3337.25           6672        6203.00     27059.00
  250.41        3337.50           6676        8515.00     37154.96
  250.44        3337.75           6679       10388.00     45337.94
  250.48        3338.00           6683       13022.00     56851.81
  250.51        3338.25           6687       15519.00     67773.43
  250.54        3338.50           6690       17176.00     75024.54
  250.57        3338.75           6694       19513.00     85256.19
  250.60        3339.00           6698       22039.00     96321.68
  250.64        3339.25           6702       24100.00    105355.10
  250.67        3339.50           6705       25662.00    112204.30
  250.70        3339.75           6709       27885.00    121956.30
  250.73        3340.00           6713       30015.00    131305.10
  250.76        3340.25           6717       32365.00    141625.10
  250.79        3340.50           6720       34339.00    150298.30
  250.83        3340.75           6724       36370.00    159226.20
  250.86        3341.00           6728       38341.00    167894.50
  250.89        3341.25           6732       40064.00    175475.50
  250.92        3341.50           6735       40342.00    176698.90
  250.95        3341.75           6739       40396.00    176936.60
  250.98        3342.00           6743       40324.00    176619.70
  251.01        3342.25           6747       38668.00    169333.00
  251.05        3342.50           6750       37170.00    162744.10
  251.08        3342.75           6754       35001.00    153207.90
  251.11        3343.00           6758       32580.00    142569.60
  251.14        3343.25           6761       30404.00    133013.00
  251.17        3343.50           6765       28449.00    124431.30
  251.20        3343.75           6769       26211.00    114612.20
  251.23        3344.00           6773       23651.00    103386.70
  251.26        3344.25           6776       21826.00     95388.34
  251.29        3344.50           6780       19942.00     87135.02
  251.32        3344.75           6784       17542.00     76626.55
  251.35        3345.00           6788       15434.00     67401.54
  251.38        3345.25           6791       13527.00     59060.10
  251.41        3345.50           6795       10941.00     47754.65
  251.44        3345.75           6799        8706.00     37989.25
  251.47        3346.00           6803        6439.00     28089.30
  251.50        3346.25           6806        4843.00     21122.77
  251.53        3346.50           6810        2685.00     11707.28
  251.56        3346.75           6814         796.00      3469.37
  251.59        3347.00           6818         200.00       870.99
  251.62        3347.25           6821          97.00       421.98
  251.65        3347.50           6825          76.00       330.43
  251.68        3347.75           6829          67.00       291.20
  251.71        3348.00           6833          67.00       291.20
  251.74        3348.25           6836          51.00       221.45
  251.77        3348.50           6840          56.00       243.24
  251.80        3348.75           6844          53.00       230.17
  251.83        3349.00           6848          52.00       225.81
  251.86        3349.25           6851          48.00       208.37
  251.89        3349.50           6855          52.00       225.81
  251.92        3349.75           6859          51.00       221.45
  251.95        3350.00           6863          43.00       186.57
  251.98        3350.25           6866          48.00       208.37
  252.01        3350.50           6870          50.00       217.09
  252.04        3350.75           6874          44.00       190.93
  252.07        3351.00           6878          49.00       212.73
HL scan finished at 04:13:34
end
************************************************************
  HL Scan of (1) Internal mercury lamp
************************************************************
Integration time is 0.2294 seconds per sample
dh010818Arosa 46.78-9.675 2.857833pr1000
************************************************************
Dead Time -------------------------  2.7E-08 
Number of Cycles Used -------------  4 
Starting Wavelength (Angstroms) ---  3331 
Final Wavelength (Angstoms) -------  3351 
Wavelength Increment (Angstroms) --  .25 
Filter Wheel #1 Position ---------- (1) Ground quartz diffuser (ND=2.32)
Filter Wheel #2 Position ---------- 



************************************************************
HL scan start time = 20:21:07
Dark Count =  .1 


Time (GMT)  Wavelength (Ang)  Step Number  Raw Counts  Counts/Second

 1221.88        3331.00           6579          42.00       182.65
 1222.29        3331.25           6582          43.00       187.01
 1222.32        3331.50           6586          44.00       191.37
 1222.35        3331.75           6590          41.00       178.29
 1222.38        3332.00           6594          43.00       187.01
 1222.41        3332.25           6597          43.00       187.01
 1222.44        3332.50           6601          44.00       191.37
 1222.47        3332.75           6605          47.00       204.45
 1222.50        3333.00           6608          45.00       195.73
 1222.53        3333.25           6612          49.00       213.17
 1222.56        3333.50           6616          41.00       178.29
 1222.58        3333.75           6620          45.00       195.73
 1222.61        3334.00           6623          42.00       182.65
 1222.64        3334.25           6627          43.00       187.01
 1222.67        3334.50           6631          49.00       213.17
 1222.70        3334.75           6635          44.00       191.37
 1222.73        3335.00           6638          41.00       178.29
 1222.76        3335.25           6642          56.00       243.68
 1222.79        3335.50           6646          60.00       261.12
 1222.82        3335.75           6649          67.00       291.63
 1222.85        3336.00           6653          66.00       287.27
 1222.88        3336.25           6657         112.00       487.80
 1222.91        3336.50           6661         953.00      4154.35
 1222.94        3336.75           6664        2574.00     11223.54
 1222.97        3337.00           6668        4594.00     20036.56
 1223.00        3337.25           6672        6607.00     28823.21
 1223.03        3337.50           6676        8838.00     38566.30
 1223.06        3337.75           6679       10369.00     45255.35
 1223.09        3338.00           6683       12413.00     54189.51
 1223.12        3338.25           6687       14391.00     62839.32
 1223.15        3338.50           6690       16027.00     69996.60
 1223.18        3338.75           6694       18240.00     79682.59
 1223.21        3339.00           6698       20335.00     88856.79
 1223.24        3339.25           6702       22594.00     98754.25
 1223.27        3339.50           6705       24312.00    106285.00
 1223.30        3339.75           6709       26232.00    114704.70
 1223.33        3340.00           6713       28133.00    123045.00
 1223.36        3340.25           6717       30493.00    133404.30
 1223.39        3340.50           6720       31780.00    139056.00
 1223.43        3340.75           6724       33747.00    147697.20
 1223.46        3341.00           6728       35636.00    155999.60
 1223.49        3341.25           6732       37273.00    163197.50
 1223.52        3341.50           6735       37309.00    163355.80
 1223.55        3341.75           6739       37429.00    163883.60
 1223.58        3342.00           6743       36767.00    160972.30
 1223.61        3342.25           6747       35132.00    153784.10
 1223.64        3342.50           6750       33423.00    146273.60
 1223.67        3342.75           6754       31147.00    136276.00
 1223.70        3343.00           6758       29229.00    127855.20
 1223.73        3343.25           6761       27778.00    121487.20
 1223.76        3343.50           6765       26011.00    113735.40
 1223.79        3343.75           6769       23991.00    104877.70
 1223.82        3344.00           6773       21574.00     94284.62
 1223.85        3344.25           6776       19762.00     86347.11
 1223.88        3344.50           6780       17629.00     77007.82
 1223.91        3344.75           6784       15439.00     67423.86
 1223.94        3345.00           6788       13475.00     58833.14
 1223.97        3345.25           6791       11953.00     52178.52
 1224.00        3345.50           6795        9806.00     42795.28
 1224.03        3345.75           6799        7671.00     33469.20
 1224.06        3346.00           6803        5793.00     25269.63
 1224.09        3346.25           6806        4159.00     18138.35
 1224.12        3346.50           6810        1960.00      8545.56
 1224.15        3346.75           6814         442.00      1926.43
 1224.18        3347.00           6818         107.00       466.00
 1224.21        3347.25           6821          85.00       370.10
 1224.24        3347.50           6825          71.00       309.07
 1224.27        3347.75           6829          66.00       287.27
 1224.30        3348.00           6833          63.00       274.20
 1224.33        3348.25           6836          53.00       230.60
 1224.36        3348.50           6840          56.00       243.68
 1224.39        3348.75           6844          45.00       195.73
 1224.42        3349.00           6848          49.00       213.17
 1224.45        3349.25           6851          50.00       217.53
 1224.48        3349.50           6855          43.00       187.01
 1224.51        3349.75           6859          50.00       217.53
 1224.54        3350.00           6863          47.00       204.45
 1224.57        3350.25           6866          43.00       187.01
 1224.59        3350.50           6870          43.00       187.01
 1224.62        3350.75           6874          47.00       204.45
 1224.65        3351.00           6878          45.00       195.73
HL scan finished at 20:26:09
end
