************************************************************
  HL Scan of (1) Internal mercury lamp
************************************************************
Integration time is 0.2294 seconds per sample
dh120818Delft 52.017-4.35 3.394313pr1000
************************************************************
Dead Time -------------------------  2.8E-08 
Number of Cycles Used -------------  4 
Starting Wavelength (Angstroms) ---  3331 
Final Wavelength (Angstoms) -------  3351 
Wavelength Increment (Angstroms) --  .25 
Filter Wheel #1 Position ---------- (1) Ground quartz diffuser (ND=2.32)
Filter Wheel #2 Position ---------- 



************************************************************
HL scan start time = 05:06:10
Dark Count =  1.1 


Time (GMT)  Wavelength (Ang)  Step Number  Raw Counts  Counts/Second

  306.93        3331.00           6582          68.00       291.63
  307.34        3331.25           6586          72.00       309.07
  307.37        3331.50           6589          61.00       261.12
  307.40        3331.75           6593          66.00       282.91
  307.43        3332.00           6597          70.00       300.35
  307.46        3332.25           6601          62.00       265.48
  307.49        3332.50           6604          72.00       309.07
  307.51        3332.75           6608          63.00       269.84
  307.54        3333.00           6612          65.00       278.55
  307.57        3333.25           6616          71.00       304.71
  307.60        3333.50           6619          72.00       309.07
  307.63        3333.75           6623          66.00       282.91
  307.66        3334.00           6627          71.00       304.71
  307.69        3334.25           6631          76.00       326.51
  307.72        3334.50           6634          70.00       300.35
  307.75        3334.75           6638          81.00       348.30
  307.78        3335.00           6642          88.00       378.82
  307.81        3335.25           6645          91.00       391.90
  307.84        3335.50           6649         101.00       435.49
  307.87        3335.75           6653         111.00       479.08
  307.90        3336.00           6657         192.00       832.19
  307.93        3336.25           6660         975.00      4245.93
  307.96        3336.50           6664        4380.00     19098.70
  307.99        3336.75           6668        7836.00     34186.59
  308.02        3337.00           6672       11313.00     49379.04
  308.05        3337.25           6675       13918.00     60769.84
  308.08        3337.50           6679       17192.00     75096.28
  308.11        3337.75           6683       21058.00     92028.03
  308.14        3338.00           6687       25504.00    111519.90
  308.17        3338.25           6690       28559.00    124925.80
  308.20        3338.50           6694       32250.00    141136.00
  308.23        3338.75           6698       35584.00    155791.00
  308.26        3339.00           6702       39570.00    173327.80
  308.29        3339.25           6705       42543.00    186419.10
  308.32        3339.50           6709       46155.00    202337.10
  308.35        3339.75           6713       49531.00    217227.90
  308.38        3340.00           6717       53198.00    233416.40
  308.41        3340.25           6720       56199.00    246675.70
  308.44        3340.50           6724       59580.00    261625.80
  308.47        3340.75           6728       63760.00    280126.30
  308.50        3341.00           6732       65854.00    289401.50
  308.53        3341.25           6735       66357.00    291630.20
  308.56        3341.50           6739       66383.00    291745.40
  308.59        3341.75           6743       65822.00    289259.70
  308.62        3342.00           6747       63074.00    277088.70
  308.65        3342.25           6750       61095.00    268328.90
  308.67        3342.50           6754       57846.00    253956.80
  308.71        3342.75           6758       53683.00    235558.60
  308.73        3343.00           6762       49195.00    215745.30
  308.76        3343.25           6765       46532.00    203999.30
  308.79        3343.50           6769       42745.00    187308.90
  308.82        3343.75           6773       39425.00    172689.60
  308.85        3344.00           6777       35696.00    156283.50
  308.88        3344.25           6780       32718.00    143192.40
  308.91        3344.50           6784       28789.00    125935.50
  308.94        3344.75           6788       25609.00    111980.50
  308.97        3345.00           6792       21665.00     94687.94
  309.00        3345.25           6795       18545.00     81020.13
  309.03        3345.50           6799       14298.00     62432.07
  309.06        3345.75           6803       10173.00     44396.48
  309.09        3346.00           6807        6340.00     27653.93
  309.12        3346.25           6810        3586.00     15634.13
  309.15        3346.50           6814         851.00      3705.27
  309.18        3346.75           6818         192.00       832.19
  309.21        3347.00           6822         122.00       527.03
  309.24        3347.25           6826         118.00       509.60
  309.27        3347.50           6829         101.00       435.49
  309.30        3347.75           6833          87.00       374.46
  309.33        3348.00           6837          80.00       343.94
  309.36        3348.25           6841          76.00       326.51
  309.39        3348.50           6844          73.00       313.43
  309.42        3348.75           6848          79.00       339.58
  309.45        3349.00           6852          63.00       269.84
  309.48        3349.25           6856          75.00       322.15
  309.51        3349.50           6859          68.00       291.63
  309.54        3349.75           6863          76.00       326.51
  309.57        3350.00           6867          67.00       287.27
  309.60        3350.25           6871          68.00       291.63
  309.63        3350.50           6874          70.00       300.35
  309.66        3350.75           6878          77.00       330.87
  309.69        3351.00           6882          69.00       295.99
HL scan finished at 05:11:11
end
************************************************************
  HL Scan of (1) Internal mercury lamp
************************************************************
Integration time is 0.2294 seconds per sample
dh120818Delft 52.017-4.35 3.394313pr1000
************************************************************
Dead Time -------------------------  2.8E-08 
Number of Cycles Used -------------  4 
Starting Wavelength (Angstroms) ---  3331 
Final Wavelength (Angstoms) -------  3351 
Wavelength Increment (Angstroms) --  .25 
Filter Wheel #1 Position ---------- (1) Ground quartz diffuser (ND=2.32)
Filter Wheel #2 Position ---------- 



************************************************************
HL scan start time = 06:53:26
Dark Count =  .8 


Time (GMT)  Wavelength (Ang)  Step Number  Raw Counts  Counts/Second

  414.19        3331.00           6582          63.00       271.14
  414.60        3331.25           6586          63.00       271.14
  414.63        3331.50           6589          64.00       275.50
  414.66        3331.75           6593          68.00       292.94
  414.69        3332.00           6597          66.00       284.22
  414.72        3332.25           6601          70.00       301.66
  414.75        3332.50           6604          62.00       266.78
  414.78        3332.75           6608          58.00       249.35
  414.81        3333.00           6612          67.00       288.58
  414.84        3333.25           6616          62.00       266.78
  414.87        3333.50           6619          69.00       297.30
  414.90        3333.75           6623          58.00       249.35
  414.93        3334.00           6627          69.00       297.30
  414.96        3334.25           6631          72.00       310.38
  414.99        3334.50           6634          69.00       297.30
  415.02        3334.75           6638          75.00       323.46
  415.05        3335.00           6642          84.00       362.69
  415.08        3335.25           6645          86.00       371.41
  415.11        3335.50           6649         103.00       445.52
  415.14        3335.75           6653         116.00       502.19
  415.17        3336.00           6657         194.00       842.22
  415.20        3336.25           6660         868.00      3780.70
  415.23        3336.50           6664        3673.00     16015.03
  415.26        3336.75           6668        6812.00     29716.09
  415.29        3337.00           6672       10758.00     46954.46
  415.32        3337.25           6675       14081.00     61484.14
  415.35        3337.50           6679       17600.00     76883.73
  415.38        3337.75           6683       21447.00     93733.91
  415.41        3338.00           6687       25074.00    109635.10
  415.44        3338.25           6690       28097.00    122899.10
  415.47        3338.50           6694       31872.00    139476.50
  415.50        3338.75           6698       35620.00    155950.60
  415.53        3339.00           6702       38973.00    170701.50
  415.56        3339.25           6705       41880.00    183500.10
  415.59        3339.50           6709       45621.00    199984.20
  415.62        3339.75           6713       49472.00    216968.90
  415.65        3340.00           6717       53770.00    235944.20
  415.67        3340.25           6720       56572.00    248325.70
  415.70        3340.50           6724       59545.00    261472.30
  415.73        3340.75           6728       63504.00    278994.00
  415.76        3341.00           6732       65839.00    289336.30
  415.79        3341.25           6735       66186.00    290873.80
  415.82        3341.50           6739       66509.00    292305.10
  415.85        3341.75           6743       66147.00    290701.00
  415.88        3342.00           6747       62907.00    276350.70
  415.91        3342.25           6750       60054.00    263724.00
  415.94        3342.50           6754       56433.00    247711.30
  415.97        3342.75           6758       52870.00    231969.10
  416.00        3343.00           6762       49541.00    217273.40
  416.03        3343.25           6765       46757.00    204992.80
  416.06        3343.50           6769       42956.00    188239.80
  416.09        3343.75           6773       39490.00    172977.00
  416.12        3344.00           6777       36083.00    157986.80
  416.15        3344.25           6780       33104.00    144890.00
  416.18        3344.50           6784       29047.00    127069.40
  416.21        3344.75           6788       24797.00    108420.20
  416.24        3345.00           6792       20641.00     90202.26
  416.27        3345.25           6795       17778.00     77663.03
  416.30        3345.50           6799       14197.00     61991.56
  416.33        3345.75           6803       10283.00     44878.51
  416.36        3346.00           6807        6233.00     27188.08
  416.39        3346.25           6810        3513.00     15316.94
  416.42        3346.50           6814        1008.00      4391.12
  416.45        3346.75           6818         252.00      1095.06
  416.48        3347.00           6822         125.00       541.42
  416.51        3347.25           6826         114.00       493.47
  416.54        3347.50           6829          95.00       410.64
  416.57        3347.75           6833          94.00       406.28
  416.60        3348.00           6837          88.00       380.13
  416.63        3348.25           6841          82.00       353.97
  416.66        3348.50           6844          65.00       279.86
  416.69        3348.75           6848          70.00       301.66
  416.72        3349.00           6852          73.00       314.74
  416.75        3349.25           6856          71.00       306.02
  416.78        3349.50           6859          75.00       323.46
  416.81        3349.75           6863          70.00       301.66
  416.83        3350.00           6867          64.00       275.50
  416.86        3350.25           6871          67.00       288.58
  416.89        3350.50           6874          70.00       301.66
  416.92        3350.75           6878          65.00       279.86
  416.95        3351.00           6882          70.00       301.66
HL scan finished at 06:58:27
end
************************************************************
  HL Scan of (1) Internal mercury lamp
************************************************************
Integration time is 0.2294 seconds per sample
dh120818Delft 52.017-4.35 3.394313pr1000
************************************************************
Dead Time -------------------------  2.8E-08 
Number of Cycles Used -------------  4 
Starting Wavelength (Angstroms) ---  3331 
Final Wavelength (Angstoms) -------  3351 
Wavelength Increment (Angstroms) --  .25 
Filter Wheel #1 Position ---------- (1) Ground quartz diffuser (ND=2.32)
Filter Wheel #2 Position ---------- 



************************************************************
HL scan start time = 08:40:43
Dark Count =  .7 


Time (GMT)  Wavelength (Ang)  Step Number  Raw Counts  Counts/Second

  521.49        3331.00           6582          62.00       267.22
  521.90        3331.25           6586          61.00       262.86
  521.93        3331.50           6589          71.00       306.45
  521.96        3331.75           6593          65.00       280.30
  521.99        3332.00           6597          63.00       271.58
  522.02        3332.25           6601          68.00       293.38
  522.05        3332.50           6604          61.00       262.86
  522.08        3332.75           6608          62.00       267.22
  522.11        3333.00           6612          69.00       297.74
  522.14        3333.25           6616          64.00       275.94
  522.17        3333.50           6619          65.00       280.30
  522.20        3333.75           6623          67.00       289.02
  522.23        3334.00           6627          69.00       297.74
  522.26        3334.25           6631          71.00       306.45
  522.29        3334.50           6634          70.00       302.10
  522.32        3334.75           6638          80.00       345.69
  522.34        3335.00           6642          89.00       384.92
  522.37        3335.25           6645          84.00       363.12
  522.40        3335.50           6649          95.00       411.08
  522.43        3335.75           6653         119.00       515.70
  522.46        3336.00           6657         167.00       724.95
  522.49        3336.25           6660         698.00      3039.93
  522.52        3336.50           6664        4164.00     18157.88
  522.55        3336.75           6668        7817.00     34105.35
  522.58        3337.00           6672       11214.00     48948.04
  522.61        3337.25           6675       13903.00     60705.98
  522.64        3337.50           6679       17457.00     76258.13
  522.67        3337.75           6683       21671.00     94716.00
  522.70        3338.00           6687       25048.00    109521.50
  522.73        3338.25           6690       27913.00    122091.90
  522.76        3338.50           6694       31920.00    139687.80
  522.79        3338.75           6698       35567.00    155718.00
  522.82        3339.00           6702       39977.00    175121.20
  522.85        3339.25           6705       42686.00    187050.80
  522.88        3339.50           6709       46403.00    203432.30
  522.91        3339.75           6713       50368.00    220923.40
  522.94        3340.00           6717       54164.00    237685.20
  522.97        3340.25           6720       56585.00    248383.60
  523.00        3340.50           6724       59939.00    263215.70
  523.03        3340.75           6728       63154.00    277444.70
  523.06        3341.00           6732       65679.00    288627.90
  523.09        3341.25           6735       66722.00    293249.40
  523.12        3341.50           6739       66557.00    292518.20
  523.15        3341.75           6743       65699.00    288716.50
  523.18        3342.00           6747       62906.00    276346.70
  523.21        3342.25           6750       60273.00    264693.40
  523.24        3342.50           6754       56898.00    249767.20
  523.27        3342.75           6758       53145.00    233184.10
  523.30        3343.00           6762       49681.00    217891.60
  523.33        3343.25           6765       47147.00    206713.10
  523.36        3343.50           6769       43360.00    190020.10
  523.39        3343.75           6773       39684.00    173831.40
  523.42        3344.00           6777       35462.00    155256.30
  523.45        3344.25           6780       32229.00    141045.50
  523.48        3344.50           6784       28483.00    124593.90
  523.51        3344.75           6788       24634.00    107705.80
  523.54        3345.00           6792       20355.00     88949.69
  523.57        3345.25           6795       17395.00     75986.71
  523.60        3345.50           6799       13985.00     61064.65
  523.63        3345.75           6803       10567.00     46120.12
  523.66        3346.00           6807        7097.00     30961.01
  523.69        3346.25           6810        4154.00     18114.24
  523.72        3346.50           6814        1046.00      4557.25
  523.75        3346.75           6818         212.00       921.12
  523.78        3347.00           6822         113.00       489.54
  523.81        3347.25           6826         102.00       441.59
  523.84        3347.50           6829         106.00       459.03
  523.86        3347.75           6833          92.00       398.00
  523.89        3348.00           6837          93.00       402.36
  523.92        3348.25           6841          88.00       380.56
  523.95        3348.50           6844          87.00       376.20
  523.98        3348.75           6848          75.00       323.89
  524.01        3349.00           6852          84.00       363.12
  524.04        3349.25           6856          66.00       284.66
  524.07        3349.50           6859          67.00       289.02
  524.10        3349.75           6863          67.00       289.02
  524.13        3350.00           6867          70.00       302.10
  524.16        3350.25           6871          76.00       328.25
  524.19        3350.50           6874          64.00       275.94
  524.22        3350.75           6878          71.00       306.45
  524.25        3351.00           6882          66.00       284.66
HL scan finished at 08:45:45
end
************************************************************
  HL Scan of (1) Internal mercury lamp
************************************************************
Integration time is 0.2294 seconds per sample
dh120818Delft 52.017-4.35 3.394313pr1000
************************************************************
Dead Time -------------------------  2.8E-08 
Number of Cycles Used -------------  4 
Starting Wavelength (Angstroms) ---  3331 
Final Wavelength (Angstoms) -------  3351 
Wavelength Increment (Angstroms) --  .25 
Filter Wheel #1 Position ---------- (1) Ground quartz diffuser (ND=2.32)
Filter Wheel #2 Position ---------- 



************************************************************
HL scan start time = 10:28:00
Dark Count =  1.1 


Time (GMT)  Wavelength (Ang)  Step Number  Raw Counts  Counts/Second

  628.76        3331.00           6582          68.00       291.63
  629.17        3331.25           6586          67.00       287.27
  629.20        3331.50           6589          68.00       291.63
  629.23        3331.75           6593          62.00       265.48
  629.26        3332.00           6597          62.00       265.48
  629.29        3332.25           6601          68.00       291.63
  629.32        3332.50           6604          70.00       300.35
  629.35        3332.75           6608          76.00       326.51
  629.38        3333.00           6612          66.00       282.91
  629.41        3333.25           6616          64.00       274.20
  629.44        3333.50           6619          61.00       261.12
  629.47        3333.75           6623          74.00       317.79
  629.50        3334.00           6627          63.00       269.84
  629.53        3334.25           6631          70.00       300.35
  629.56        3334.50           6634          70.00       300.35
  629.59        3334.75           6638          82.00       352.66
  629.62        3335.00           6642          81.00       348.30
  629.65        3335.25           6645          89.00       383.18
  629.68        3335.50           6649         100.00       431.13
  629.71        3335.75           6653         117.00       505.24
  629.74        3336.00           6657         184.00       797.32
  629.77        3336.25           6660         728.00      3168.98
  629.80        3336.50           6664        3432.00     14962.24
  629.83        3336.75           6668        7409.00     32321.74
  629.86        3337.00           6672       11285.00     49256.64
  629.89        3337.25           6675       13653.00     59610.75
  629.92        3337.50           6679       17225.00     75240.74
  629.95        3337.75           6683       20945.00     91532.90
  629.98        3338.00           6687       25140.00    109923.30
  630.01        3338.25           6690       28561.00    124934.50
  630.04        3338.50           6694       32607.00    142704.70
  630.07        3338.75           6698       36195.00    158478.10
  630.10        3339.00           6702       40104.00    175678.50
  630.13        3339.25           6705       43186.00    189251.70
  630.16        3339.50           6709       46547.00    204065.40
  630.19        3339.75           6713       50166.00    220030.10
  630.22        3340.00           6717       53512.00    234803.30
  630.24        3340.25           6720       56331.00    247259.10
  630.27        3340.50           6724       60207.00    264399.60
  630.30        3340.75           6728       63837.00    280467.20
  630.33        3341.00           6732       66075.00    290380.60
  630.36        3341.25           6735       66431.00    291958.10
  630.39        3341.50           6739       66547.00    292472.10
  630.42        3341.75           6743       65832.00    289304.00
  630.45        3342.00           6747       62786.00    275813.70
  630.48        3342.25           6750       60163.00    264205.00
  630.51        3342.50           6754       57196.00    251082.90
  630.54        3342.75           6758       53254.00    233663.70
  630.57        3343.00           6762       49114.00    215387.90
  630.60        3343.25           6765       46143.00    202284.20
  630.63        3343.50           6769       42480.00    186141.60
  630.66        3343.75           6773       38588.00    169005.80
  630.69        3344.00           6777       34841.00    152524.00
  630.72        3344.25           6780       32000.00    140037.60
  630.75        3344.50           6784       28041.00    122652.00
  630.78        3344.75           6788       24657.00    107804.90
  630.81        3345.00           6792       20929.00     91462.79
  630.84        3345.25           6795       18270.00     79815.93
  630.87        3345.50           6799       14439.00     63048.88
  630.90        3345.75           6803       10098.00     44068.73
  630.93        3346.00           6807        6303.00     27492.39
  630.96        3346.25           6810        3372.00     14700.47
  630.99        3346.50           6814         966.00      4206.69
  631.02        3346.75           6818         233.00      1010.93
  631.05        3347.00           6822         121.00       522.68
  631.08        3347.25           6826         106.00       457.29
  631.11        3347.50           6829          90.00       387.54
  631.14        3347.75           6833          96.00       413.69
  631.17        3348.00           6837          90.00       387.54
  631.20        3348.25           6841          78.00       335.23
  631.23        3348.50           6844          73.00       313.43
  631.26        3348.75           6848          75.00       322.15
  631.29        3349.00           6852          68.00       291.63
  631.32        3349.25           6856          70.00       300.35
  631.35        3349.50           6859          71.00       304.71
  631.38        3349.75           6863          67.00       287.27
  631.41        3350.00           6867          67.00       287.27
  631.44        3350.25           6871          57.00       243.68
  631.47        3350.50           6874          69.00       295.99
  631.49        3350.75           6878          67.00       287.27
  631.52        3351.00           6882          71.00       304.71
HL scan finished at 10:33:01
end
************************************************************
  HL Scan of (1) Internal mercury lamp
************************************************************
Integration time is 0.2294 seconds per sample
dh120818Delft 52.017-4.35 3.340665pr1000
************************************************************
Dead Time -------------------------  2.8E-08 
Number of Cycles Used -------------  4 
Starting Wavelength (Angstroms) ---  3331 
Final Wavelength (Angstoms) -------  3351 
Wavelength Increment (Angstroms) --  .25 
Filter Wheel #1 Position ---------- (1) Ground quartz diffuser (ND=2.32)
Filter Wheel #2 Position ---------- 



************************************************************
HL scan start time = 12:15:16
Dark Count =  .8 


Time (GMT)  Wavelength (Ang)  Step Number  Raw Counts  Counts/Second

  736.04        3331.00           6582          70.00       301.66
  736.45        3331.25           6586          74.00       319.10
  736.48        3331.50           6589          70.00       301.66
  736.51        3331.75           6593          64.00       275.50
  736.54        3332.00           6597          61.00       262.43
  736.57        3332.25           6601          70.00       301.66
  736.60        3332.50           6604          63.00       271.14
  736.63        3332.75           6608          67.00       288.58
  736.66        3333.00           6612          56.00       240.63
  736.69        3333.25           6616          63.00       271.14
  736.72        3333.50           6619          57.00       244.99
  736.74        3333.75           6623          68.00       292.94
  736.78        3334.00           6627          66.00       284.22
  736.80        3334.25           6631          66.00       284.22
  736.83        3334.50           6634          78.00       336.53
  736.86        3334.75           6638          75.00       323.46
  736.89        3335.00           6642          76.00       327.81
  736.92        3335.25           6645          87.00       375.77
  736.95        3335.50           6649          93.00       401.92
  736.98        3335.75           6653         106.00       458.59
  737.01        3336.00           6657         144.00       624.25
  737.04        3336.25           6660         591.00      2572.98
  737.07        3336.50           6664        3211.00     13999.38
  737.10        3336.75           6668        6554.00     28589.58
  737.13        3337.00           6672       10280.00     44865.40
  737.16        3337.25           6675       13133.00     57337.84
  737.19        3337.50           6679       17033.00     74401.56
  737.22        3337.75           6683       21512.00     94018.76
  737.25        3338.00           6687       25039.00    109481.60
  737.28        3338.25           6690       28048.00    122684.00
  737.31        3338.50           6694       31873.00    139480.90
  737.34        3338.75           6698       35274.00    154429.20
  737.37        3339.00           6702       38669.00    169363.60
  737.40        3339.25           6705       41156.00    180311.70
  737.43        3339.50           6709       44800.00    196365.30
  737.46        3339.75           6713       48182.00    211277.60
  737.49        3340.00           6717       52382.00    229814.10
  737.52        3340.25           6720       55386.00    243084.00
  737.55        3340.50           6724       58707.00    257765.70
  737.58        3340.75           6728       61772.00    271326.40
  737.61        3341.00           6732       64223.00    282178.00
  737.64        3341.25           6735       64553.00    283639.50
  737.67        3341.50           6739       64828.00    284857.60
  737.70        3341.75           6743       64451.00    283187.80
  737.73        3342.00           6747       61696.00    270990.00
  737.76        3342.25           6750       59041.00    259242.90
  737.79        3342.50           6754       55391.00    243106.10
  737.82        3342.75           6758       51304.00    225054.50
  737.85        3343.00           6762       47669.00    209014.80
  737.88        3343.25           6765       44884.00    196735.50
  737.91        3343.50           6769       41406.00    181412.60
  737.94        3343.75           6773       37816.00    165610.10
  737.97        3344.00           6777       34607.00    151496.60
  738.00        3344.25           6780       32008.00    140074.00
  738.03        3344.50           6784       28213.00    123408.30
  738.05        3344.75           6788       24349.00    106455.50
  738.09        3345.00           6792       20213.00     88327.16
  738.11        3345.25           6795       17151.00     74918.11
  738.14        3345.50           6799       13678.00     59721.41
  738.17        3345.75           6803       10188.00     44463.35
  738.20        3346.00           6807        6767.00     29519.60
  738.23        3346.25           6810        3795.00     16547.33
  738.26        3346.50           6814        1043.00      4543.73
  738.29        3346.75           6818         255.00      1108.14
  738.32        3347.00           6822         125.00       541.42
  738.35        3347.25           6826         106.00       458.59
  738.38        3347.50           6829         103.00       445.52
  738.41        3347.75           6833          94.00       406.28
  738.44        3348.00           6837          93.00       401.92
  738.47        3348.25           6841          76.00       327.81
  738.50        3348.50           6844          75.00       323.46
  738.53        3348.75           6848          68.00       292.94
  738.56        3349.00           6852          70.00       301.66
  738.59        3349.25           6856          69.00       297.30
  738.62        3349.50           6859          70.00       301.66
  738.65        3349.75           6863          66.00       284.22
  738.68        3350.00           6867          67.00       288.58
  738.71        3350.25           6871          67.00       288.58
  738.74        3350.50           6874          63.00       271.14
  738.77        3350.75           6878          71.00       306.02
  738.80        3351.00           6882          61.00       262.43
HL scan finished at 12:20:17
end
************************************************************
  HL Scan of (1) Internal mercury lamp
************************************************************
Integration time is 0.2294 seconds per sample
dh120818Delft 52.017-4.35 3.287017pr1000
************************************************************
Dead Time -------------------------  2.8E-08 
Number of Cycles Used -------------  4 
Starting Wavelength (Angstroms) ---  3331 
Final Wavelength (Angstoms) -------  3351 
Wavelength Increment (Angstroms) --  .25 
Filter Wheel #1 Position ---------- (1) Ground quartz diffuser (ND=2.32)
Filter Wheel #2 Position ---------- 



************************************************************
HL scan start time = 14:02:31
Dark Count =  .8 


Time (GMT)  Wavelength (Ang)  Step Number  Raw Counts  Counts/Second

  843.29        3331.00           6582          69.00       297.30
  843.70        3331.25           6586          66.00       284.22
  843.72        3331.50           6589          71.00       306.02
  843.76        3331.75           6593          72.00       310.38
  843.79        3332.00           6597          63.00       271.14
  843.81        3332.25           6601          70.00       301.66
  843.85        3332.50           6604          61.00       262.43
  843.87        3332.75           6608          66.00       284.22
  843.90        3333.00           6612          64.00       275.50
  843.93        3333.25           6616          59.00       253.71
  843.96        3333.50           6619          58.00       249.35
  843.99        3333.75           6623          67.00       288.58
  844.02        3334.00           6627          71.00       306.02
  844.05        3334.25           6631          67.00       288.58
  844.08        3334.50           6634          74.00       319.10
  844.11        3334.75           6638          68.00       292.94
  844.14        3335.00           6642          82.00       353.97
  844.17        3335.25           6645          80.00       345.25
  844.20        3335.50           6649          94.00       406.28
  844.23        3335.75           6653         101.00       436.80
  844.26        3336.00           6657         122.00       528.34
  844.29        3336.25           6660         438.00      1905.94
  844.32        3336.50           6664        3121.00     13606.75
  844.35        3336.75           6668        7122.00     31069.74
  844.38        3337.00           6672       10907.00     47605.70
  844.41        3337.25           6675       13390.00     58461.80
  844.44        3337.50           6679       17013.00     74314.02
  844.47        3337.75           6683       20759.00     90719.24
  844.50        3338.00           6687       24606.00    107582.50
  844.53        3338.25           6690       27284.00    119330.90
  844.56        3338.50           6694       30633.00    134033.90
  844.59        3338.75           6698       33958.00    148643.50
  844.62        3339.00           6702       37804.00    165557.30
  844.65        3339.25           6705       40776.00    178638.50
  844.68        3339.50           6709       44538.00    195210.60
  844.71        3339.75           6713       48051.00    210699.70
  844.74        3340.00           6717       51255.00    224838.20
  844.77        3340.25           6720       54084.00    237331.30
  844.80        3340.50           6724       57479.00    252335.50
  844.83        3340.75           6728       60874.00    267352.30
  844.86        3341.00           6732       63622.00    279516.50
  844.89        3341.25           6735       63734.00    280012.50
  844.92        3341.50           6739       64100.00    281633.30
  844.94        3341.75           6743       63574.00    279304.00
  844.97        3342.00           6747       60354.00    265051.30
  845.00        3342.25           6750       58047.00    254846.90
  845.03        3342.50           6754       54852.00    240724.40
  845.06        3342.75           6758       50803.00    222843.00
  845.09        3343.00           6762       47152.00    206734.70
  845.12        3343.25           6765       44833.00    196510.70
  845.15        3343.50           6769       41498.00    181817.80
  845.18        3343.75           6773       38071.00    166732.10
  845.21        3344.00           6777       34278.00    150050.20
  845.24        3344.25           6780       31097.00    136071.90
  845.27        3344.50           6784       27275.00    119291.40
  845.30        3344.75           6788       23758.00    103864.00
  845.33        3345.00           6792       20323.00     88809.06
  845.36        3345.25           6795       17598.00     76874.98
  845.39        3345.50           6799       13801.00     60259.40
  845.42        3345.75           6803       10332.00     45092.65
  845.45        3346.00           6807        7163.00     31248.78
  845.48        3346.25           6810        4399.00     19182.93
  845.51        3346.50           6814        1176.00      5123.66
  845.54        3346.75           6818         211.00       916.33
  845.57        3347.00           6822         110.00       476.03
  845.60        3347.25           6826         107.00       462.95
  845.63        3347.50           6829          91.00       393.20
  845.66        3347.75           6833          91.00       393.20
  845.69        3348.00           6837          77.00       332.17
  845.72        3348.25           6841          81.00       349.61
  845.75        3348.50           6844          69.00       297.30
  845.78        3348.75           6848          75.00       323.46
  845.81        3349.00           6852          73.00       314.74
  845.84        3349.25           6856          68.00       292.94
  845.87        3349.50           6859          72.00       310.38
  845.90        3349.75           6863          59.00       253.71
  845.93        3350.00           6867          64.00       275.50
  845.96        3350.25           6871          68.00       292.94
  845.99        3350.50           6874          71.00       306.02
  846.02        3350.75           6878          70.00       301.66
  846.04        3351.00           6882          62.00       266.78
HL scan finished at 14:07:32
end
************************************************************
  HL Scan of (1) Internal mercury lamp
************************************************************
Integration time is 0.2294 seconds per sample
dh120818Delft 52.017-4.35 3.287017pr1000
************************************************************
Dead Time -------------------------  2.8E-08 
Number of Cycles Used -------------  4 
Starting Wavelength (Angstroms) ---  3331 
Final Wavelength (Angstoms) -------  3351 
Wavelength Increment (Angstroms) --  .25 
Filter Wheel #1 Position ---------- (1) Ground quartz diffuser (ND=2.32)
Filter Wheel #2 Position ---------- 



************************************************************
HL scan start time = 15:49:47
Dark Count =  .7 


Time (GMT)  Wavelength (Ang)  Step Number  Raw Counts  Counts/Second

  950.55        3331.00           6582          65.00       280.30
  950.96        3331.25           6586          61.00       262.86
  950.99        3331.50           6589          64.00       275.94
  951.02        3331.75           6593          68.00       293.38
  951.05        3332.00           6597          65.00       280.30
  951.08        3332.25           6601          65.00       280.30
  951.11        3332.50           6604          63.00       271.58
  951.14        3332.75           6608          57.00       245.42
  951.17        3333.00           6612          71.00       306.45
  951.20        3333.25           6616          73.00       315.17
  951.22        3333.50           6619          72.00       310.81
  951.25        3333.75           6623          63.00       271.58
  951.28        3334.00           6627          71.00       306.45
  951.31        3334.25           6631          59.00       254.14
  951.34        3334.50           6634          68.00       293.38
  951.37        3334.75           6638          76.00       328.25
  951.40        3335.00           6642          83.00       358.77
  951.43        3335.25           6645          87.00       376.20
  951.46        3335.50           6649          95.00       411.08
  951.49        3335.75           6653         116.00       502.62
  951.52        3336.00           6657         214.00       929.84
  951.55        3336.25           6660        1294.00      5638.64
  951.58        3336.50           6664        4621.00     20152.17
  951.61        3336.75           6668        8156.00     35586.01
  951.64        3337.00           6672       11413.00     49817.92
  951.67        3337.25           6675       13977.00     61029.66
  951.70        3337.50           6679       17054.00     74493.94
  951.73        3337.75           6683       20593.00     89992.39
  951.76        3338.00           6687       24700.00    107995.20
  951.79        3338.25           6690       27854.00    121833.00
  951.82        3338.50           6694       31611.00    138330.30
  951.85        3338.75           6698       34751.00    152130.10
  951.88        3339.00           6702       38120.00    166948.20
  951.91        3339.25           6705       40874.00    179070.40
  951.94        3339.50           6709       44828.00    196489.10
  951.97        3339.75           6713       48027.00    210594.30
  952.00        3340.00           6717       51275.00    224927.00
  952.03        3340.25           6720       53899.00    236514.50
  952.06        3340.50           6724       57121.00    250753.10
  952.09        3340.75           6728       61010.00    267954.50
  952.12        3341.00           6732       62999.00    276758.50
  952.15        3341.25           6735       63378.00    278436.50
  952.18        3341.50           6739       63413.00    278591.50
  952.21        3341.75           6743       62509.00    274589.10
  952.24        3342.00           6747       59228.00    260070.50
  952.27        3342.25           6750       57245.00    251301.30
  952.30        3342.50           6754       54366.00    238577.50
  952.33        3342.75           6758       50617.00    222022.40
  952.36        3343.00           6762       46634.00    204450.90
  952.39        3343.25           6765       43613.00    191134.80
  952.42        3343.50           6769       39987.00    175165.20
  952.45        3343.75           6773       36634.00    160410.70
  952.48        3344.00           6777       33587.00    147013.30
  952.51        3344.25           6780       30572.00    133766.40
  952.54        3344.50           6784       26809.00    117247.00
  952.57        3344.75           6788       23137.00    101141.70
  952.60        3345.00           6792       19883.00     86881.99
  952.63        3345.25           6795       17162.00     74966.71
  952.65        3345.50           6799       13199.00     57626.91
  952.68        3345.75           6803        9298.00     40574.85
  952.71        3346.00           6807        5381.00     23469.21
  952.74        3346.25           6810        2923.00     12743.43
  952.77        3346.50           6814         646.00      2813.21
  952.80        3346.75           6818         154.00       668.28
  952.83        3347.00           6822         111.00       480.83
  952.86        3347.25           6826         105.00       454.67
  952.89        3347.50           6829          87.00       376.20
  952.92        3347.75           6833          87.00       376.20
  952.95        3348.00           6837          81.00       350.05
  952.98        3348.25           6841          74.00       319.53
  953.01        3348.50           6844          72.00       310.81
  953.04        3348.75           6848          71.00       306.45
  953.07        3349.00           6852          67.00       289.02
  953.10        3349.25           6856          70.00       302.10
  953.13        3349.50           6859          75.00       323.89
  953.16        3349.75           6863          64.00       275.94
  953.19        3350.00           6867          55.00       236.71
  953.22        3350.25           6871          58.00       249.78
  953.25        3350.50           6874          65.00       280.30
  953.28        3350.75           6878          65.00       280.30
  953.31        3351.00           6882          67.00       289.02
HL scan finished at 15:54:48
end
************************************************************
  HL Scan of (1) Internal mercury lamp
************************************************************
Integration time is 0.2294 seconds per sample
dh120818Delft 52.017-4.35 3.287017pr1000
************************************************************
Dead Time -------------------------  2.8E-08 
Number of Cycles Used -------------  4 
Starting Wavelength (Angstroms) ---  3331 
Final Wavelength (Angstoms) -------  3351 
Wavelength Increment (Angstroms) --  .25 
Filter Wheel #1 Position ---------- (1) Ground quartz diffuser (ND=2.32)
Filter Wheel #2 Position ---------- 



************************************************************
HL scan start time = 17:37:02
Dark Count =  .6 


Time (GMT)  Wavelength (Ang)  Step Number  Raw Counts  Counts/Second

 1057.81        3331.00           6582          61.00       263.30
 1058.22        3331.25           6586          65.00       280.73
 1058.25        3331.50           6589          63.00       272.02
 1058.28        3331.75           6593          64.00       276.38
 1058.31        3332.00           6597          65.00       280.73
 1058.34        3332.25           6601          65.00       280.73
 1058.37        3332.50           6604          64.00       276.38
 1058.40        3332.75           6608          61.00       263.30
 1058.43        3333.00           6612          61.00       263.30
 1058.46        3333.25           6616          59.00       254.58
 1058.48        3333.50           6619          55.00       237.14
 1058.51        3333.75           6623          61.00       263.30
 1058.54        3334.00           6627          64.00       276.38
 1058.57        3334.25           6631          65.00       280.73
 1058.60        3334.50           6634          72.00       311.25
 1058.63        3334.75           6638          64.00       276.38
 1058.66        3335.00           6642          82.00       354.84
 1058.69        3335.25           6645          82.00       354.84
 1058.72        3335.50           6649          99.00       428.95
 1058.75        3335.75           6653         107.00       463.82
 1058.78        3336.00           6657         212.00       921.56
 1058.81        3336.25           6660        1258.00      5482.10
 1058.84        3336.50           6664        4041.00     17621.59
 1058.87        3336.75           6668        7248.00     31620.84
 1058.90        3337.00           6672       10706.00     46728.07
 1058.93        3337.25           6675       13769.00     60120.31
 1058.96        3337.50           6679       17536.00     76604.41
 1058.99        3337.75           6683       20967.00     91631.49
 1059.02        3338.00           6687       24429.00    106807.20
 1059.05        3338.25           6690       26985.00    118019.70
 1059.08        3338.50           6694       30870.00    135075.70
 1059.11        3338.75           6698       34467.00    150881.90
 1059.14        3339.00           6702       37640.00    164836.60
 1059.17        3339.25           6705       40340.00    176719.70
 1059.20        3339.50           6709       43939.00    192571.70
 1059.23        3339.75           6713       47773.00    209474.40
 1059.26        3340.00           6717       51549.00    226137.00
 1059.29        3340.25           6720       53810.00    236121.80
 1059.32        3340.50           6724       56852.00    249564.30
 1059.35        3340.75           6728       60793.00    266994.70
 1059.38        3341.00           6732       62839.00    276050.50
 1059.41        3341.25           6735       62980.00    276674.80
 1059.44        3341.50           6739       63093.00    277175.00
 1059.47        3341.75           6743       62319.00    273748.50
 1059.50        3342.00           6747       59449.00    261048.50
 1059.53        3342.25           6750       56924.00    249882.60
 1059.56        3342.50           6754       53085.00    232919.50
 1059.59        3342.75           6758       49606.00    217561.10
 1059.62        3343.00           6762       46255.00    202780.20
 1059.65        3343.25           6765       43764.00    191800.60
 1059.67        3343.50           6769       40210.00    176147.40
 1059.70        3343.75           6773       36817.00    161216.10
 1059.73        3344.00           6777       33678.00    147413.70
 1059.76        3344.25           6780       30973.00    135528.10
 1059.79        3344.50           6784       27132.00    118664.80
 1059.82        3344.75           6788       23124.00    101085.20
 1059.85        3345.00           6792       18867.00     82432.41
 1059.88        3345.25           6795       16207.00     70787.07
 1059.91        3345.50           6799       12784.00     55812.53
 1059.94        3345.75           6803        9154.00     39946.14
 1059.97        3346.00           6807        5170.00     22548.67
 1060.00        3346.25           6810        2687.00     11714.39
 1060.03        3346.50           6814         685.00      2983.68
 1060.06        3346.75           6818         181.00       786.42
 1060.09        3347.00           6822         107.00       463.82
 1060.12        3347.25           6826         106.00       459.47
 1060.15        3347.50           6829         103.00       446.39
 1060.18        3347.75           6833          90.00       389.72
 1060.21        3348.00           6837          86.00       372.28
 1060.24        3348.25           6841          79.00       341.76
 1060.27        3348.50           6844          75.00       324.33
 1060.30        3348.75           6848          72.00       311.25
 1060.33        3349.00           6852          65.00       280.73
 1060.36        3349.25           6856          62.00       267.66
 1060.39        3349.50           6859          68.00       293.81
 1060.42        3349.75           6863          69.00       298.17
 1060.45        3350.00           6867          72.00       311.25
 1060.48        3350.25           6871          64.00       276.38
 1060.51        3350.50           6874          70.00       302.53
 1060.54        3350.75           6878          63.00       272.02
 1060.57        3351.00           6882          70.00       302.53
HL scan finished at 17:42:04
end
