************************************************************
  HL Scan of (1) Internal mercury lamp
************************************************************
Integration time is 0.2294 seconds per sample
dh100818Arosa 46.78-9.675 2.857833pr1000
************************************************************
Dead Time -------------------------  2.8E-08 
Number of Cycles Used -------------  4 
Starting Wavelength (Angstroms) ---  3331 
Final Wavelength (Angstoms) -------  3351 
Wavelength Increment (Angstroms) --  .25 
Filter Wheel #1 Position ---------- (1) Ground quartz diffuser (ND=2.32)
Filter Wheel #2 Position ---------- 



************************************************************
HL scan start time = 08:45:39
Dark Count =  .2 


Time (GMT)  Wavelength (Ang)  Step Number  Raw Counts  Counts/Second

  526.42        3331.00           6582          50.00       217.09
  526.83        3331.25           6586          44.00       190.93
  526.86        3331.50           6589          53.00       230.17
  526.89        3331.75           6593          52.00       225.81
  526.92        3332.00           6597          54.00       234.53
  526.95        3332.25           6601          57.00       247.60
  526.98        3332.50           6604          62.00       269.40
  527.01        3332.75           6608          48.00       208.37
  527.04        3333.00           6612          52.00       225.81
  527.07        3333.25           6616          47.00       204.01
  527.10        3333.50           6619          56.00       243.24
  527.12        3333.75           6623          55.00       238.89
  527.15        3334.00           6627          52.00       225.81
  527.18        3334.25           6631          50.00       217.09
  527.21        3334.50           6634          59.00       256.32
  527.24        3334.75           6638          64.00       278.12
  527.27        3335.00           6642          74.00       321.71
  527.30        3335.25           6645          67.00       291.20
  527.33        3335.50           6649          67.00       291.20
  527.36        3335.75           6653          89.00       387.10
  527.39        3336.00           6657         202.00       879.71
  527.42        3336.25           6660        1108.00      4829.77
  527.45        3336.50           6664        3075.00     13408.70
  527.48        3336.75           6668        5481.00     23907.89
  527.51        3337.00           6672        8045.00     35103.36
  527.54        3337.25           6675       10259.00     44776.25
  527.57        3337.50           6679       13082.00     57117.44
  527.60        3337.75           6683       15850.00     69226.47
  527.63        3338.00           6687       18333.00     80095.75
  527.66        3338.25           6690       20297.00     88697.78
  527.69        3338.50           6694       23373.00    102178.60
  527.72        3338.75           6698       25922.00    113357.50
  527.75        3339.00           6702       28373.00    124113.20
  527.78        3339.25           6705       30468.00    133311.90
  527.81        3339.50           6709       33172.00    145191.50
  527.84        3339.75           6713       35971.00    157496.90
  527.87        3340.00           6717       38630.00    169194.60
  527.90        3340.25           6720       40500.00    177425.90
  527.93        3340.50           6724       43062.00    188709.40
  527.96        3340.75           6728       45678.00    200238.10
  527.99        3341.00           6732       46986.00    206005.30
  528.02        3341.25           6735       47205.00    206971.10
  528.05        3341.50           6739       47375.00    207720.80
  528.08        3341.75           6743       46729.00    204872.00
  528.10        3342.00           6747       44663.00    195764.10
  528.14        3342.25           6750       42377.00    185691.80
  528.16        3342.50           6754       39502.00    173032.50
  528.19        3342.75           6758       37158.00    162717.90
  528.22        3343.00           6762       34516.00    151099.10
  528.25        3343.25           6765       32741.00    143297.40
  528.28        3343.50           6769       30218.00    132213.90
  528.31        3343.75           6773       27367.00    119697.80
  528.34        3344.00           6777       25180.00    110102.60
  528.37        3344.25           6780       23141.00    101161.50
  528.40        3344.50           6784       20077.00     87734.00
  528.43        3344.75           6788       17149.00     74911.99
  528.46        3345.00           6792       13999.00     61128.08
  528.49        3345.25           6795       11828.00     51634.32
  528.52        3345.50           6799        9313.00     40642.57
  528.55        3345.75           6803        6450.00     28138.12
  528.58        3346.00           6807        3627.00     15816.94
  528.61        3346.25           6810        1872.00      8161.41
  528.64        3346.50           6814         450.00      1960.88
  528.67        3346.75           6818         116.00       504.80
  528.70        3347.00           6822          90.00       391.46
  528.73        3347.25           6826          74.00       321.71
  528.76        3347.50           6829          80.00       347.87
  528.79        3347.75           6833          66.00       286.84
  528.82        3348.00           6837          63.00       273.76
  528.85        3348.25           6841          61.00       265.04
  528.88        3348.50           6844          67.00       291.20
  528.91        3348.75           6848          58.00       251.96
  528.94        3349.00           6852          48.00       208.37
  528.97        3349.25           6856          57.00       247.60
  529.00        3349.50           6859          49.00       212.73
  529.02        3349.75           6863          63.00       273.76
  529.05        3350.00           6867          54.00       234.53
  529.08        3350.25           6871          57.00       247.60
  529.11        3350.50           6874          45.00       195.29
  529.14        3350.75           6878          59.00       256.32
  529.17        3351.00           6882          55.00       238.89
HL scan finished at 08:50:40
end
************************************************************
  HL Scan of (1) Internal mercury lamp
************************************************************
Integration time is 0.2294 seconds per sample
dh100818Arosa 46.78-9.675 3.233369pr1000
************************************************************
Dead Time -------------------------  2.8E-08 
Number of Cycles Used -------------  4 
Starting Wavelength (Angstroms) ---  3331 
Final Wavelength (Angstoms) -------  3351 
Wavelength Increment (Angstroms) --  .25 
Filter Wheel #1 Position ---------- (1) Ground quartz diffuser (ND=2.32)
Filter Wheel #2 Position ---------- 



************************************************************
HL scan start time = 10:31:44
Dark Count =  0 


Time (GMT)  Wavelength (Ang)  Step Number  Raw Counts  Counts/Second

  632.50        3331.00           6582          57.00       248.48
  632.92        3331.25           6586          64.00       278.99
  632.94        3331.50           6589          54.00       235.40
  632.97        3331.75           6593          59.00       257.19
  633.00        3332.00           6597          45.00       196.16
  633.03        3332.25           6601          54.00       235.40
  633.06        3332.50           6604          58.00       252.84
  633.09        3332.75           6608          64.00       278.99
  633.12        3333.00           6612          46.00       200.52
  633.15        3333.25           6616          57.00       248.48
  633.18        3333.50           6619          48.00       209.24
  633.21        3333.75           6623          53.00       231.04
  633.24        3334.00           6627          52.00       226.68
  633.27        3334.25           6631          63.00       274.63
  633.30        3334.50           6634          59.00       257.19
  633.33        3334.75           6638          64.00       278.99
  633.36        3335.00           6642          73.00       318.22
  633.39        3335.25           6645          70.00       305.15
  633.42        3335.50           6649          86.00       374.89
  633.45        3335.75           6653          94.00       409.77
  633.48        3336.00           6657         130.00       566.70
  633.51        3336.25           6660         654.00      2851.14
  633.54        3336.50           6664        3611.00     15748.01
  633.57        3336.75           6668        6438.00     28086.60
  633.60        3337.00           6672        9190.00     40106.04
  633.63        3337.25           6675       11236.00     49047.26
  633.66        3337.50           6679       14211.00     62056.30
  633.69        3337.75           6683       17644.00     77079.86
  633.71        3338.00           6687       20639.00     90196.99
  633.74        3338.25           6690       22773.00     99549.11
  633.77        3338.50           6694       25943.00    113450.50
  633.80        3338.75           6698       28913.00    126484.70
  633.83        3339.00           6702       32073.00    140363.10
  633.86        3339.25           6705       34688.00    151856.20
  633.89        3339.50           6709       37754.00    165340.80
  633.92        3339.75           6713       40894.00    179161.60
  633.95        3340.00           6717       43861.00    192230.70
  633.98        3340.25           6720       46237.00    202703.50
  634.01        3340.50           6724       48886.00    214386.80
  634.04        3340.75           6728       51445.00    225680.50
  634.07        3341.00           6732       53358.00    234127.90
  634.10        3341.25           6735       54065.00    237250.90
  634.13        3341.50           6739       53825.00    236190.70
  634.16        3341.75           6743       53150.00    233209.30
  634.19        3342.00           6747       50804.00    222850.90
  634.22        3342.25           6750       48584.00    213054.50
  634.25        3342.50           6754       45983.00    201583.60
  634.28        3342.75           6758       42758.00    187371.10
  634.31        3343.00           6762       40130.00    175797.80
  634.34        3343.25           6765       37983.00    166348.40
  634.37        3343.50           6769       34973.00    153109.20
  634.40        3343.75           6773       32040.00    140218.10
  634.43        3344.00           6777       28699.00    125545.20
  634.46        3344.25           6780       26008.00    113735.70
  634.49        3344.50           6784       22732.00     99369.38
  634.52        3344.75           6788       19813.00     86578.41
  634.55        3345.00           6792       16450.00     71853.22
  634.58        3345.25           6795       13968.00     60993.35
  634.61        3345.50           6799       11157.00     48701.94
  634.64        3345.75           6803        8416.00     36724.76
  634.67        3346.00           6807        5387.00     23498.46
  634.70        3346.25           6810        3301.00     14395.52
  634.73        3346.50           6814         796.00      3470.26
  634.76        3346.75           6818         181.00       789.03
  634.78        3347.00           6822          97.00       422.85
  634.82        3347.25           6826          80.00       348.74
  634.84        3347.50           6829          77.00       335.66
  634.87        3347.75           6833          62.00       270.27
  634.90        3348.00           6837          65.00       283.35
  634.93        3348.25           6841          67.00       292.07
  634.96        3348.50           6844          61.00       265.91
  634.99        3348.75           6848          63.00       274.63
  635.02        3349.00           6852          56.00       244.12
  635.05        3349.25           6856          58.00       252.84
  635.08        3349.50           6859          61.00       265.91
  635.11        3349.75           6863          58.00       252.84
  635.14        3350.00           6867          61.00       265.91
  635.17        3350.25           6871          50.00       217.96
  635.20        3350.50           6874          54.00       235.40
  635.23        3350.75           6878          57.00       248.48
  635.26        3351.00           6882          65.00       283.35
HL scan finished at 10:36:45
end
************************************************************
  HL Scan of (1) Internal mercury lamp
************************************************************
Integration time is 0.2294 seconds per sample
dh100818Delft 52.017-4.35 3.394313pr1000
************************************************************
Dead Time -------------------------  2.8E-08 
Number of Cycles Used -------------  4 
Starting Wavelength (Angstroms) ---  3331 
Final Wavelength (Angstoms) -------  3351 
Wavelength Increment (Angstroms) --  .25 
Filter Wheel #1 Position ---------- (1) Ground quartz diffuser (ND=2.32)
Filter Wheel #2 Position ---------- 



************************************************************
HL scan start time = 14:48:34
Dark Count =  .8 


Time (GMT)  Wavelength (Ang)  Step Number  Raw Counts  Counts/Second

  889.33        3331.00           6582          71.00       306.02
  889.74        3331.25           6586          70.00       301.66
  889.77        3331.50           6589          72.00       310.38
  889.80        3331.75           6593          63.00       271.14
  889.83        3332.00           6597          65.00       279.86
  889.86        3332.25           6601          63.00       271.14
  889.89        3332.50           6604          60.00       258.07
  889.92        3332.75           6608          69.00       297.30
  889.95        3333.00           6612          58.00       249.35
  889.98        3333.25           6616          64.00       275.50
  890.00        3333.50           6619          63.00       271.14
  890.03        3333.75           6623          65.00       279.86
  890.06        3334.00           6627          73.00       314.74
  890.09        3334.25           6631          66.00       284.22
  890.12        3334.50           6634          57.00       244.99
  890.15        3334.75           6638          70.00       301.66
  890.18        3335.00           6642          83.00       358.33
  890.21        3335.25           6645          83.00       358.33
  890.24        3335.50           6649          95.00       410.64
  890.27        3335.75           6653         113.00       489.11
  890.30        3336.00           6657         179.00       776.83
  890.33        3336.25           6660         996.00      4338.80
  890.36        3336.50           6664        4113.00     17934.90
  890.39        3336.75           6668        7458.00     32537.04
  890.42        3337.00           6672       10887.00     47518.29
  890.45        3337.25           6675       13872.00     60569.95
  890.48        3337.50           6679       17587.00     76826.82
  890.51        3337.75           6683       21174.00     92537.64
  890.53        3338.00           6687       24690.00    107950.90
  890.56        3338.25           6690       27712.00    121209.30
  890.59        3338.50           6694       31275.00    136853.80
  890.62        3338.75           6698       35526.00    155537.30
  890.65        3339.00           6702       39428.00    172704.10
  890.68        3339.25           6705       41927.00    183707.10
  890.71        3339.50           6709       45791.00    200733.60
  890.74        3339.75           6713       49536.00    217251.30
  890.77        3340.00           6717       52947.00    232309.20
  890.80        3340.25           6720       55301.00    242708.40
  890.83        3340.50           6724       58470.00    256717.50
  890.86        3340.75           6728       61694.00    270981.10
  890.89        3341.00           6732       64509.00    283444.70
  890.92        3341.25           6735       64962.00    285451.10
  890.95        3341.50           6739       65125.00    286173.20
  890.98        3341.75           6743       64287.00    282461.50
  891.01        3342.00           6747       61596.00    270547.40
  891.04        3342.25           6750       58777.00    258075.30
  891.07        3342.50           6754       55386.00    243084.00
  891.10        3342.75           6758       51942.00    227871.30
  891.13        3343.00           6762       48216.00    211427.60
  891.16        3343.25           6765       45772.00    200649.90
  891.19        3343.50           6769       41844.00    183341.60
  891.22        3343.75           6773       38149.00    167075.30
  891.24        3344.00           6777       34372.00    150463.40
  891.27        3344.25           6780       31307.00    136994.40
  891.30        3344.50           6784       27565.00    120564.10
  891.33        3344.75           6788       23392.00    102259.20
  891.36        3345.00           6792       19732.00     86220.10
  891.39        3345.25           6795       17190.00     75088.83
  891.42        3345.50           6799       13858.00     60508.71
  891.45        3345.75           6803       10271.00     44826.07
  891.48        3346.00           6807        6561.00     28620.14
  891.51        3346.25           6810        3397.00     14810.85
  891.54        3346.50           6814         765.00      3331.61
  891.57        3346.75           6818         196.00       850.94
  891.60        3347.00           6822         121.00       523.98
  891.63        3347.25           6826         110.00       476.03
  891.66        3347.50           6829         103.00       445.52
  891.69        3347.75           6833          86.00       371.41
  891.72        3348.00           6837          91.00       393.20
  891.75        3348.25           6841          69.00       297.30
  891.78        3348.50           6844          81.00       349.61
  891.81        3348.75           6848          72.00       310.38
  891.84        3349.00           6852          68.00       292.94
  891.86        3349.25           6856          64.00       275.50
  891.89        3349.50           6859          65.00       279.86
  891.92        3349.75           6863          64.00       275.50
  891.95        3350.00           6867          65.00       279.86
  891.98        3350.25           6871          61.00       262.43
  892.01        3350.50           6874          67.00       288.58
  892.04        3350.75           6878          67.00       288.58
  892.07        3351.00           6882          67.00       288.58
HL scan finished at 14:53:34
end
************************************************************
  HL Scan of (1) Internal mercury lamp
************************************************************
Integration time is 0.2294 seconds per sample
dh100818Delft 52.017-4.35 3.340665pr1000
************************************************************
Dead Time -------------------------  2.8E-08 
Number of Cycles Used -------------  4 
Starting Wavelength (Angstroms) ---  3331 
Final Wavelength (Angstoms) -------  3351 
Wavelength Increment (Angstroms) --  .25 
Filter Wheel #1 Position ---------- (1) Ground quartz diffuser (ND=2.32)
Filter Wheel #2 Position ---------- 



************************************************************
HL scan start time = 16:35:41
Dark Count =  1.1 


Time (GMT)  Wavelength (Ang)  Step Number  Raw Counts  Counts/Second

  996.44        3331.00           6582          70.00       300.35
  996.85        3331.25           6586          64.00       274.20
  996.88        3331.50           6589          63.00       269.84
  996.91        3331.75           6593          59.00       252.40
  996.94        3332.00           6597          59.00       252.40
  996.97        3332.25           6601          62.00       265.48
  997.00        3332.50           6604          62.00       265.48
  997.03        3332.75           6608          63.00       269.84
  997.06        3333.00           6612          64.00       274.20
  997.09        3333.25           6616          71.00       304.71
  997.12        3333.50           6619          65.00       278.55
  997.14        3333.75           6623          60.00       256.76
  997.17        3334.00           6627          63.00       269.84
  997.20        3334.25           6631          71.00       304.71
  997.23        3334.50           6634          59.00       252.40
  997.26        3334.75           6638          73.00       313.43
  997.29        3335.00           6642          79.00       339.58
  997.32        3335.25           6645          91.00       391.90
  997.35        3335.50           6649          93.00       400.61
  997.38        3335.75           6653         113.00       487.80
  997.41        3336.00           6657         127.00       548.83
  997.44        3336.25           6660         527.00      2292.65
  997.47        3336.50           6664        3481.00     15176.02
  997.50        3336.75           6668        7167.00     31264.94
  997.53        3337.00           6672       10338.00     45117.56
  997.56        3337.25           6675       12931.00     56453.16
  997.59        3337.50           6679       16539.00     72237.95
  997.62        3337.75           6683       20237.00     88430.99
  997.65        3338.00           6687       24526.00    107230.40
  997.67        3338.25           6690       27408.00    119873.80
  997.70        3338.50           6694       31214.00    136584.60
  997.73        3338.75           6698       34796.00    152326.20
  997.76        3339.00           6702       38581.00    168975.00
  997.79        3339.25           6705       41001.00    179627.90
  997.82        3339.50           6709       44175.00    193609.50
  997.85        3339.75           6713       47832.00    209732.40
  997.88        3340.00           6717       51149.00    224369.00
  997.91        3340.25           6720       54341.00    238465.30
  997.94        3340.50           6724       57937.00    254359.20
  997.97        3340.75           6728       61307.00    269267.10
  998.00        3341.00           6732       63003.00    276774.40
  998.03        3341.25           6735       63774.00    280188.30
  998.06        3341.50           6739       63737.00    280024.40
  998.09        3341.75           6743       63152.00    277434.10
  998.12        3342.00           6747       60618.00    266218.10
  998.15        3342.25           6750       58061.00    254907.50
  998.18        3342.50           6754       54707.00    240082.40
  998.21        3342.75           6758       50827.00    222947.60
  998.24        3343.00           6762       47249.00    207161.10
  998.27        3343.25           6765       44237.00    193882.70
  998.30        3343.50           6769       40857.00    178993.80
  998.33        3343.75           6773       37153.00    162691.90
  998.36        3344.00           6777       33602.00    147077.40
  998.39        3344.25           6780       30718.00    134405.90
  998.42        3344.50           6784       27079.00    118430.00
  998.44        3344.75           6788       23608.00    103205.00
  998.47        3345.00           6792       20184.00     88198.81
  998.50        3345.25           6795       17481.00     76361.44
  998.53        3345.50           6799       13511.00     58989.69
  998.56        3345.75           6803        9617.00     41966.90
  998.59        3346.00           6807        6195.00     27020.87
  998.62        3346.25           6810        3613.00     15751.93
  998.65        3346.50           6814        1008.00      4389.82
  998.68        3346.75           6818         228.00       989.13
  998.71        3347.00           6822         116.00       500.88
  998.74        3347.25           6826         104.00       448.57
  998.77        3347.50           6829          94.00       404.97
  998.80        3347.75           6833          96.00       413.69
  998.83        3348.00           6837          84.00       361.38
  998.86        3348.25           6841          78.00       335.23
  998.89        3348.50           6844          80.00       343.94
  998.92        3348.75           6848          62.00       265.48
  998.95        3349.00           6852          69.00       295.99
  998.98        3349.25           6856          73.00       313.43
  999.00        3349.50           6859          67.00       287.27
  999.03        3349.75           6863          63.00       269.84
  999.06        3350.00           6867          65.00       278.55
  999.09        3350.25           6871          65.00       278.55
  999.12        3350.50           6874          79.00       339.58
  999.15        3350.75           6878          69.00       295.99
  999.18        3351.00           6882          62.00       265.48
HL scan finished at 16:40:40
end
************************************************************
  HL Scan of (1) Internal mercury lamp
************************************************************
Integration time is 0.2294 seconds per sample
dh100818Delft 52.017-4.35 3.340665pr1000
************************************************************
Dead Time -------------------------  2.8E-08 
Number of Cycles Used -------------  4 
Starting Wavelength (Angstroms) ---  3331 
Final Wavelength (Angstoms) -------  3351 
Wavelength Increment (Angstroms) --  .25 
Filter Wheel #1 Position ---------- (1) Ground quartz diffuser (ND=2.32)
Filter Wheel #2 Position ---------- 



************************************************************
HL scan start time = 18:22:47
Dark Count =  1 


Time (GMT)  Wavelength (Ang)  Step Number  Raw Counts  Counts/Second

 1103.55        3331.00           6582          61.00       261.55
 1103.96        3331.25           6586          69.00       296.43
 1103.99        3331.50           6589          66.00       283.35
 1104.02        3331.75           6593          77.00       331.30
 1104.05        3332.00           6597          59.00       252.84
 1104.08        3332.25           6601          71.00       305.15
 1104.11        3332.50           6604          65.00       278.99
 1104.14        3332.75           6608          64.00       274.63
 1104.17        3333.00           6612          64.00       274.63
 1104.20        3333.25           6616          74.00       318.22
 1104.23        3333.50           6619          60.00       257.19
 1104.26        3333.75           6623          67.00       287.71
 1104.29        3334.00           6627          63.00       270.27
 1104.32        3334.25           6631          62.00       265.91
 1104.34        3334.50           6634          74.00       318.22
 1104.37        3334.75           6638          75.00       322.58
 1104.40        3335.00           6642          83.00       357.46
 1104.43        3335.25           6645          84.00       361.82
 1104.46        3335.50           6649          90.00       387.97
 1104.49        3335.75           6653         109.00       470.80
 1104.52        3336.00           6657         136.00       588.50
 1104.55        3336.25           6660         412.00      1791.72
 1104.58        3336.50           6664        2920.00     12729.03
 1104.61        3336.75           6668        6464.00     28195.75
 1104.64        3337.00           6672       10542.00     46009.54
 1104.67        3337.25           6675       13869.00     60555.96
 1104.70        3337.50           6679       17250.00     75350.61
 1104.73        3337.75           6683       20940.00     91511.43
 1104.76        3338.00           6687       24890.00    108827.20
 1104.79        3338.25           6690       27773.00    121476.10
 1104.81        3338.50           6694       31138.00    136251.20
 1104.84        3338.75           6698       34573.00    151346.20
 1104.87        3339.00           6702       37949.00    166194.40
 1104.90        3339.25           6705       40814.00    178804.90
 1104.93        3339.50           6709       44610.00    195527.00
 1104.96        3339.75           6713       48220.00    211444.30
 1104.99        3340.00           6717       51894.00    227658.40
 1105.02        3340.25           6720       54665.00    239897.20
 1105.05        3340.50           6724       57582.00    252790.00
 1105.08        3340.75           6728       61175.00    268683.40
 1105.11        3341.00           6732       63712.00    279914.20
 1105.14        3341.25           6735       63926.00    280861.80
 1105.17        3341.50           6739       63837.00    280467.70
 1105.20        3341.75           6743       63578.00    279320.80
 1105.23        3342.00           6747       60634.00    266289.40
 1105.26        3342.25           6750       57936.00    254355.20
 1105.29        3342.50           6754       54673.00    239932.60
 1105.32        3342.75           6758       50881.00    223186.40
 1105.35        3343.00           6762       47055.00    206306.00
 1105.38        3343.25           6765       44283.00    194085.90
 1105.41        3343.50           6769       41103.00    180077.50
 1105.44        3343.75           6773       38094.00    166832.40
 1105.47        3344.00           6777       34328.00    150269.10
 1105.50        3344.25           6780       31178.00    136426.90
 1105.53        3344.50           6784       27262.00    119233.50
 1105.56        3344.75           6788       23505.00    102753.80
 1105.59        3345.00           6792       19816.00     86587.18
 1105.61        3345.25           6795       17105.00     74715.88
 1105.64        3345.50           6799       13849.00     60468.47
 1105.67        3345.75           6803       10316.00     45021.85
 1105.70        3346.00           6807        6686.00     29165.05
 1105.73        3346.25           6810        3910.00     17048.24
 1105.76        3346.50           6814        1184.00      5157.68
 1105.79        3346.75           6818         246.00      1068.04
 1105.82        3347.00           6822         112.00       483.88
 1105.85        3347.25           6826         105.00       453.36
 1105.88        3347.50           6829         100.00       431.57
 1105.91        3347.75           6833          94.00       405.41
 1105.94        3348.00           6837          87.00       374.89
 1105.97        3348.25           6841          77.00       331.30
 1106.00        3348.50           6844          70.00       300.79
 1106.03        3348.75           6848          69.00       296.43
 1106.06        3349.00           6852          66.00       283.35
 1106.09        3349.25           6856          78.00       335.66
 1106.11        3349.50           6859          71.00       305.15
 1106.15        3349.75           6863          66.00       283.35
 1106.17        3350.00           6867          62.00       265.91
 1106.20        3350.25           6871          73.00       313.87
 1106.23        3350.50           6874          74.00       318.22
 1106.26        3350.75           6878          74.00       318.22
 1106.29        3351.00           6882          69.00       296.43
HL scan finished at 18:27:47
end
