************************************************************
  HL Scan of (1) Internal mercury lamp
************************************************************
Integration time is 0.2294 seconds per sample
dh130818Delft 52.017-4.35 3.287017pr1000
************************************************************
Dead Time -------------------------  2.8E-08 
Number of Cycles Used -------------  4 
Starting Wavelength (Angstroms) ---  3331 
Final Wavelength (Angstoms) -------  3351 
Wavelength Increment (Angstroms) --  .25 
Filter Wheel #1 Position ---------- (1) Ground quartz diffuser (ND=2.32)
Filter Wheel #2 Position ---------- 



************************************************************
HL scan start time = 05:07:46
Dark Count =  .7 


Time (GMT)  Wavelength (Ang)  Step Number  Raw Counts  Counts/Second

  308.53        3331.00           6582          54.00       232.35
  308.94        3331.25           6586          66.00       284.66
  308.97        3331.50           6589          58.00       249.78
  309.00        3331.75           6593          60.00       258.50
  309.03        3332.00           6597          60.00       258.50
  309.06        3332.25           6601          67.00       289.02
  309.09        3332.50           6604          65.00       280.30
  309.12        3332.75           6608          64.00       275.94
  309.15        3333.00           6612          64.00       275.94
  309.18        3333.25           6616          63.00       271.58
  309.21        3333.50           6619          63.00       271.58
  309.24        3333.75           6623          70.00       302.10
  309.27        3334.00           6627          73.00       315.17
  309.30        3334.25           6631          66.00       284.66
  309.32        3334.50           6634          73.00       315.17
  309.35        3334.75           6638          77.00       332.61
  309.38        3335.00           6642          78.00       336.97
  309.41        3335.25           6645          78.00       336.97
  309.44        3335.50           6649          94.00       406.72
  309.47        3335.75           6653         101.00       437.23
  309.50        3336.00           6657         161.00       698.79
  309.53        3336.25           6660        1232.00      5368.29
  309.56        3336.50           6664        4599.00     20056.16
  309.59        3336.75           6668        8104.00     35358.88
  309.62        3337.00           6672       11605.00     50657.24
  309.65        3337.25           6675       14361.00     62709.40
  309.68        3337.50           6679       18087.00     79016.40
  309.71        3337.75           6683       21152.00     92441.68
  309.74        3338.00           6687       24718.00    108074.20
  309.77        3338.25           6690       27295.00    119379.60
  309.80        3338.50           6694       31197.00    136511.70
  309.83        3338.75           6698       35211.00    154152.60
  309.86        3339.00           6702       38618.00    169139.60
  309.89        3339.25           6705       41112.00    180118.40
  309.92        3339.50           6709       44927.00    196925.50
  309.95        3339.75           6713       48414.00    212301.50
  309.98        3340.00           6717       51914.00    227748.10
  310.01        3340.25           6720       54151.00    237627.70
  310.04        3340.50           6724       57774.00    253640.20
  310.07        3340.75           6728       60843.00    267215.50
  310.10        3341.00           6732       63019.00    276847.00
  310.13        3341.25           6735       63633.00    279565.70
  310.16        3341.50           6739       63545.00    279176.00
  310.19        3341.75           6743       62836.00    276036.80
  310.22        3342.00           6747       59505.00    261295.80
  310.25        3342.25           6750       56819.00    249418.00
  310.28        3342.50           6754       53569.00    235056.80
  310.31        3342.75           6758       50386.00    221002.90
  310.34        3343.00           6762       46950.00    205844.30
  310.37        3343.25           6765       44269.00    194025.50
  310.40        3343.50           6769       40723.00    178405.60
  310.43        3343.75           6773       36484.00    159750.90
  310.46        3344.00           6777       33285.00    145685.90
  310.49        3344.25           6780       30395.00    132989.10
  310.52        3344.50           6784       26842.00    117391.80
  310.55        3344.75           6788       23196.00    101400.40
  310.58        3345.00           6792       19378.00     84669.99
  310.61        3345.25           6795       16792.00     73347.09
  310.64        3345.50           6799       13264.00     57911.18
  310.67        3345.75           6803        9892.00     43170.29
  310.70        3346.00           6807        5856.00     25542.68
  310.73        3346.25           6810        3021.00     13170.94
  310.76        3346.50           6814         580.00      2525.46
  310.79        3346.75           6818         162.00       703.15
  310.82        3347.00           6822         120.00       520.06
  310.85        3347.25           6826          98.00       424.16
  310.88        3347.50           6829          95.00       411.08
  310.90        3347.75           6833          84.00       363.12
  310.93        3348.00           6837          82.00       354.41
  310.96        3348.25           6841          81.00       350.05
  310.99        3348.50           6844          80.00       345.69
  311.02        3348.75           6848          68.00       293.38
  311.05        3349.00           6852          65.00       280.30
  311.08        3349.25           6856          67.00       289.02
  311.11        3349.50           6859          66.00       284.66
  311.14        3349.75           6863          72.00       310.81
  311.17        3350.00           6867          67.00       289.02
  311.20        3350.25           6871          60.00       258.50
  311.23        3350.50           6874          72.00       310.81
  311.26        3350.75           6878          66.00       284.66
  311.29        3351.00           6882          65.00       280.30
HL scan finished at 05:12:47
end
************************************************************
  HL Scan of (1) Internal mercury lamp
************************************************************
Integration time is 0.2294 seconds per sample
dh130818Delft 52.017-4.35 3.287017pr1000
************************************************************
Dead Time -------------------------  2.8E-08 
Number of Cycles Used -------------  4 
Starting Wavelength (Angstroms) ---  3331 
Final Wavelength (Angstoms) -------  3351 
Wavelength Increment (Angstroms) --  .25 
Filter Wheel #1 Position ---------- (1) Ground quartz diffuser (ND=2.32)
Filter Wheel #2 Position ---------- 



************************************************************
HL scan start time = 06:55:02
Dark Count =  .7 


Time (GMT)  Wavelength (Ang)  Step Number  Raw Counts  Counts/Second

  415.80        3331.00           6582          55.00       236.71
  416.21        3331.25           6586          54.00       232.35
  416.24        3331.50           6589          66.00       284.66
  416.27        3331.75           6593          62.00       267.22
  416.30        3332.00           6597          59.00       254.14
  416.33        3332.25           6601          63.00       271.58
  416.36        3332.50           6604          64.00       275.94
  416.39        3332.75           6608          67.00       289.02
  416.42        3333.00           6612          67.00       289.02
  416.45        3333.25           6616          69.00       297.74
  416.48        3333.50           6619          68.00       293.38
  416.51        3333.75           6623          68.00       293.38
  416.54        3334.00           6627          67.00       289.02
  416.56        3334.25           6631          60.00       258.50
  416.59        3334.50           6634          75.00       323.89
  416.62        3334.75           6638          74.00       319.53
  416.65        3335.00           6642          74.00       319.53
  416.68        3335.25           6645          92.00       398.00
  416.71        3335.50           6649          94.00       406.72
  416.74        3335.75           6653         105.00       454.67
  416.77        3336.00           6657         204.00       886.25
  416.80        3336.25           6660        1419.00      6183.72
  416.83        3336.50           6664        4662.00     20331.10
  416.86        3336.75           6668        7971.00     34777.97
  416.89        3337.00           6672       11107.00     48480.33
  416.92        3337.25           6675       13659.00     59638.74
  416.95        3337.50           6679       16843.00     73570.32
  416.98        3337.75           6683       20871.00     91210.42
  417.01        3338.00           6687       24834.00    108582.90
  417.04        3338.25           6690       27575.00    120608.50
  417.07        3338.50           6694       31117.00    136160.20
  417.10        3338.75           6698       34624.00    151571.70
  417.13        3339.00           6702       38239.00    167471.80
  417.16        3339.25           6705       41209.00    180545.60
  417.19        3339.50           6709       44318.00    194241.50
  417.22        3339.75           6713       47691.00    209112.30
  417.25        3340.00           6717       51305.00    225059.40
  417.28        3340.25           6720       53697.00    235622.20
  417.31        3340.50           6724       57229.00    251230.60
  417.34        3340.75           6728       61067.00    268206.70
  417.37        3341.00           6732       63083.00    277130.40
  417.40        3341.25           6735       63319.00    278175.30
  417.43        3341.50           6739       63325.00    278201.80
  417.46        3341.75           6743       62258.00    273478.00
  417.49        3342.00           6747       59524.00    261379.80
  417.52        3342.25           6750       57556.00    252676.30
  417.55        3342.50           6754       54156.00    237649.80
  417.58        3342.75           6758       50360.00    220888.10
  417.61        3343.00           6762       46274.00    202863.50
  417.64        3343.25           6765       43697.00    191505.00
  417.67        3343.50           6769       40082.00    175583.40
  417.70        3343.75           6773       36866.00    161431.20
  417.73        3344.00           6777       33253.00    145545.30
  417.76        3344.25           6780       30515.00    133516.10
  417.79        3344.50           6784       26983.00    118010.50
  417.82        3344.75           6788       23536.00    102891.00
  417.85        3345.00           6792       19713.00     86137.31
  417.88        3345.25           6795       16964.00     74099.98
  417.91        3345.50           6799       12972.00     56634.21
  417.94        3345.75           6803        9212.00     40199.10
  417.97        3346.00           6807        5523.00     24089.04
  418.00        3346.25           6810        3023.00     13179.67
  418.03        3346.50           6814         614.00      2673.70
  418.06        3346.75           6818         144.00       624.68
  418.09        3347.00           6822         125.00       541.86
  418.12        3347.25           6826          96.00       415.44
  418.15        3347.50           6829          90.00       389.28
  418.18        3347.75           6833          85.00       367.48
  418.21        3348.00           6837          81.00       350.05
  418.24        3348.25           6841          77.00       332.61
  418.27        3348.50           6844          65.00       280.30
  418.30        3348.75           6848          72.00       310.81
  418.33        3349.00           6852          66.00       284.66
  418.36        3349.25           6856          66.00       284.66
  418.39        3349.50           6859          64.00       275.94
  418.42        3349.75           6863          65.00       280.30
  418.45        3350.00           6867          73.00       315.17
  418.48        3350.25           6871          61.00       262.86
  418.50        3350.50           6874          61.00       262.86
  418.53        3350.75           6878          69.00       297.74
  418.56        3351.00           6882          63.00       271.58
HL scan finished at 07:00:03
end
