************************************************************
  HL Scan of (1) Internal mercury lamp
************************************************************
Integration time is 0.2294 seconds per sample
dh080818Arosa 46.78-9.675 2.857833pr1000
************************************************************
Dead Time -------------------------  2.8E-08 
Number of Cycles Used -------------  4 
Starting Wavelength (Angstroms) ---  3331 
Final Wavelength (Angstoms) -------  3351 
Wavelength Increment (Angstroms) --  .25 
Filter Wheel #1 Position ---------- (1) Ground quartz diffuser (ND=2.32)
Filter Wheel #2 Position ---------- 



************************************************************
HL scan start time = 04:11:23
Dark Count =  .2 


Time (GMT)  Wavelength (Ang)  Step Number  Raw Counts  Counts/Second

  252.15        3331.00           6582          48.00       208.37
  252.56        3331.25           6586          49.00       212.73
  252.59        3331.50           6589          57.00       247.60
  252.62        3331.75           6593          56.00       243.24
  252.65        3332.00           6597          52.00       225.81
  252.68        3332.25           6601          60.00       260.68
  252.71        3332.50           6604          58.00       251.96
  252.74        3332.75           6608          63.00       273.76
  252.77        3333.00           6612          57.00       247.60
  252.80        3333.25           6616          58.00       251.96
  252.83        3333.50           6619          46.00       199.65
  252.86        3333.75           6623          59.00       256.32
  252.89        3334.00           6627          56.00       243.24
  252.92        3334.25           6631          57.00       247.60
  252.95        3334.50           6634          60.00       260.68
  252.98        3334.75           6638          62.00       269.40
  253.01        3335.00           6642          69.00       299.92
  253.04        3335.25           6645          68.00       295.56
  253.07        3335.50           6649          82.00       356.59
  253.10        3335.75           6653          91.00       395.82
  253.13        3336.00           6657         173.00       753.29
  253.16        3336.25           6660         811.00      3534.79
  253.20        3336.50           6664        2951.00     12867.76
  253.22        3336.75           6668        5833.00     25444.45
  253.26        3337.00           6672        8708.00     37999.43
  253.29        3337.25           6675       11168.00     48749.15
  253.32        3337.50           6679       14767.00     64487.75
  253.35        3337.75           6683       17709.00     77363.58
  253.38        3338.00           6687       20834.00     91050.49
  253.41        3338.25           6690       23079.00    100889.70
  253.44        3338.50           6694       26138.00    114305.10
  253.47        3338.75           6698       29002.00    126874.50
  253.50        3339.00           6702       31305.00    136988.30
  253.53        3339.25           6705       33752.00    147740.70
  253.56        3339.50           6709       36637.00    160426.10
  253.59        3339.75           6713       39822.00    174441.10
  253.62        3340.00           6717       42828.00    187678.50
  253.66        3340.25           6720       44962.00    197082.00
  253.69        3340.50           6724       47737.00    209317.40
  253.72        3340.75           6728       50090.00    219698.70
  253.75        3341.00           6732       52022.00    228227.20
  253.78        3341.25           6735       52313.00    229512.10
  253.81        3341.50           6739       52388.00    229843.20
  253.84        3341.75           6743       51510.00    225966.60
  253.87        3342.00           6747       49059.00    215149.20
  253.90        3342.25           6750       46765.00    205030.70
  253.93        3342.50           6754       43537.00    190802.20
  253.96        3342.75           6758       40608.00    177901.40
  253.99        3343.00           6762       37833.00    165687.60
  254.02        3343.25           6765       35578.00    155768.60
  254.05        3343.50           6769       32618.00    142756.90
  254.08        3343.75           6773       29828.00    130501.30
  254.11        3344.00           6777       27076.00    118420.80
  254.14        3344.25           6780       25020.00    109400.90
  254.17        3344.50           6784       21841.00     95463.19
  254.21        3344.75           6788       18507.00     80857.66
  254.24        3345.00           6792       15449.00     67471.73
  254.27        3345.25           6795       13144.00     57388.57
  254.30        3345.50           6799       10154.00     44317.39
  254.33        3345.75           6803        7548.00     32932.71
  254.36        3346.00           6807        4638.00     20228.54
  254.39        3346.25           6810        2517.00     10974.60
  254.42        3346.50           6814         617.00      2688.96
  254.45        3346.75           6818         163.00       709.69
  254.48        3347.00           6822          95.00       413.26
  254.51        3347.25           6826          91.00       395.82
  254.54        3347.50           6829          72.00       312.99
  254.57        3347.75           6833          73.00       317.35
  254.60        3348.00           6837          62.00       269.40
  254.64        3348.25           6841          60.00       260.68
  254.67        3348.50           6844          65.00       282.48
  254.69        3348.75           6848          55.00       238.89
  254.72        3349.00           6852          63.00       273.76
  254.76        3349.25           6856          54.00       234.53
  254.79        3349.50           6859          59.00       256.32
  254.82        3349.75           6863          60.00       260.68
  254.85        3350.00           6867          57.00       247.60
  254.88        3350.25           6871          53.00       230.17
  254.91        3350.50           6874          57.00       247.60
  254.94        3350.75           6878          52.00       225.81
  254.97        3351.00           6882          62.00       269.40
HL scan finished at 04:16:28
end
