************************************************************
  HL Scan of (1) Internal mercury lamp
************************************************************
Integration time is 0.2294 seconds per sample
dh110818Delft 52.017-4.35 3.340665pr1000
************************************************************
Dead Time -------------------------  2.8E-08 
Number of Cycles Used -------------  4 
Starting Wavelength (Angstroms) ---  3331 
Final Wavelength (Angstoms) -------  3351 
Wavelength Increment (Angstroms) --  .25 
Filter Wheel #1 Position ---------- (1) Ground quartz diffuser (ND=2.32)
Filter Wheel #2 Position ---------- 



************************************************************
HL scan start time = 05:04:33
Dark Count =  1 


Time (GMT)  Wavelength (Ang)  Step Number  Raw Counts  Counts/Second

  305.31        3331.00           6582          68.00       292.07
  305.72        3331.25           6586          67.00       287.71
  305.75        3331.50           6589          58.00       248.48
  305.78        3331.75           6593          62.00       265.91
  305.81        3332.00           6597          67.00       287.71
  305.84        3332.25           6601          71.00       305.15
  305.87        3332.50           6604          73.00       313.87
  305.90        3332.75           6608          69.00       296.43
  305.93        3333.00           6612          71.00       305.15
  305.96        3333.25           6616          60.00       257.19
  305.98        3333.50           6619          66.00       283.35
  306.01        3333.75           6623          68.00       292.07
  306.04        3334.00           6627          70.00       300.79
  306.07        3334.25           6631          67.00       287.71
  306.10        3334.50           6634          70.00       300.79
  306.13        3334.75           6638          71.00       305.15
  306.16        3335.00           6642          81.00       348.74
  306.19        3335.25           6645          85.00       366.18
  306.22        3335.50           6649          97.00       418.49
  306.25        3335.75           6653         104.00       449.00
  306.28        3336.00           6657         173.00       749.80
  306.31        3336.25           6660         608.00      2646.23
  306.34        3336.50           6664        3490.00     15215.72
  306.37        3336.75           6668        7312.00     31898.58
  306.40        3337.00           6672       11352.00     49549.96
  306.43        3337.25           6675       14238.00     62170.03
  306.46        3337.50           6679       17274.00     75455.68
  306.49        3337.75           6683       20775.00     90788.48
  306.52        3338.00           6687       24810.00    108476.30
  306.55        3338.25           6690       28035.00    122626.10
  306.58        3338.50           6694       31411.00    137450.40
  306.61        3338.75           6698       34905.00    152805.90
  306.64        3339.00           6702       38692.00    169463.90
  306.67        3339.25           6705       41319.00    181028.60
  306.70        3339.50           6709       45393.00    198978.20
  306.73        3339.75           6713       49459.00    216910.60
  306.76        3340.00           6717       52916.00    232171.40
  306.79        3340.25           6720       55728.00    244594.50
  306.82        3340.50           6724       59545.00    261471.40
  306.85        3340.75           6728       62907.00    276349.80
  306.88        3341.00           6732       65040.00    285795.80
  306.91        3341.25           6735       65614.00    288338.60
  306.94        3341.50           6739       65758.00    288976.50
  306.97        3341.75           6743       64970.00    285485.70
  307.00        3342.00           6747       61623.00    270666.00
  307.03        3342.25           6750       59075.00    259392.40
  307.06        3342.50           6754       56092.00    246203.20
  307.09        3342.75           6758       52501.00    230338.70
  307.12        3343.00           6762       48744.00    213756.00
  307.15        3343.25           6765       45934.00    201363.20
  307.18        3343.50           6769       42470.00    186098.00
  307.21        3343.75           6773       39163.00    171536.80
  307.24        3344.00           6777       35567.00    155716.70
  307.27        3344.25           6780       32375.00    141685.60
  307.29        3344.50           6784       28161.00    123179.10
  307.33        3344.75           6788       24162.00    105634.60
  307.35        3345.00           6792       20522.00     89680.02
  307.38        3345.25           6795       17766.00     77609.63
  307.41        3345.50           6799       13802.00     60262.90
  307.44        3345.75           6803        9724.00     42434.87
  307.47        3346.00           6807        6443.00     28104.06
  307.50        3346.25           6810        3830.00     16699.18
  307.53        3346.50           6814        1040.00      4529.78
  307.56        3346.75           6818         246.00      1068.04
  307.59        3347.00           6822         130.00       562.35
  307.62        3347.25           6826         105.00       453.36
  307.65        3347.50           6829          99.00       427.21
  307.68        3347.75           6833          86.00       370.54
  307.71        3348.00           6837          95.00       409.77
  307.74        3348.25           6841          77.00       331.30
  307.77        3348.50           6844          68.00       292.07
  307.80        3348.75           6848          69.00       296.43
  307.83        3349.00           6852          65.00       278.99
  307.86        3349.25           6856          70.00       300.79
  307.89        3349.50           6859          76.00       326.94
  307.92        3349.75           6863          76.00       326.94
  307.95        3350.00           6867          75.00       322.58
  307.98        3350.25           6871          65.00       278.99
  308.01        3350.50           6874          71.00       305.15
  308.04        3350.75           6878          74.00       318.22
  308.07        3351.00           6882          80.00       344.38
HL scan finished at 05:09:34
end
************************************************************
  HL Scan of (1) Internal mercury lamp
************************************************************
Integration time is 0.2294 seconds per sample
dh110818Delft 52.017-4.35 3.340665pr1000
************************************************************
Dead Time -------------------------  2.8E-08 
Number of Cycles Used -------------  4 
Starting Wavelength (Angstroms) ---  3331 
Final Wavelength (Angstoms) -------  3351 
Wavelength Increment (Angstroms) --  .25 
Filter Wheel #1 Position ---------- (1) Ground quartz diffuser (ND=2.32)
Filter Wheel #2 Position ---------- 



************************************************************
HL scan start time = 06:51:48
Dark Count =  1.2 


Time (GMT)  Wavelength (Ang)  Step Number  Raw Counts  Counts/Second

  412.56        3331.00           6582          62.00       265.04
  412.97        3331.25           6586          66.00       282.48
  413.00        3331.50           6589          68.00       291.20
  413.03        3331.75           6593          65.00       278.12
  413.06        3332.00           6597          63.00       269.40
  413.09        3332.25           6601          65.00       278.12
  413.12        3332.50           6604          65.00       278.12
  413.15        3332.75           6608          68.00       291.20
  413.18        3333.00           6612          56.00       238.89
  413.21        3333.25           6616          68.00       291.20
  413.24        3333.50           6619          66.00       282.48
  413.27        3333.75           6623          67.00       286.84
  413.30        3334.00           6627          65.00       278.12
  413.33        3334.25           6631          72.00       308.63
  413.36        3334.50           6634          74.00       317.35
  413.39        3334.75           6638          79.00       339.15
  413.42        3335.00           6642          84.00       360.95
  413.45        3335.25           6645          96.00       413.26
  413.48        3335.50           6649         108.00       465.57
  413.51        3335.75           6653         109.00       469.93
  413.54        3336.00           6657         159.00       687.89
  413.57        3336.25           6660         893.00      3887.96
  413.60        3336.50           6664        3979.00     17348.44
  413.63        3336.75           6668        7343.00     32033.08
  413.66        3337.00           6672       10710.00     46742.92
  413.69        3337.25           6675       13652.00     59605.94
  413.72        3337.50           6679       17473.00     76325.99
  413.75        3337.75           6683       21069.00     92075.80
  413.78        3338.00           6687       24540.00    107291.30
  413.81        3338.25           6690       27506.00    120303.40
  413.84        3338.50           6694       31074.00    135969.10
  413.87        3338.75           6698       35424.00    155087.00
  413.90        3339.00           6702       39259.00    171958.50
  413.93        3339.25           6705       41807.00    183176.90
  413.96        3339.50           6709       45615.00    199956.00
  413.99        3339.75           6713       49253.00    216000.80
  414.02        3340.00           6717       52809.00    231698.00
  414.05        3340.25           6720       55179.00    242167.50
  414.07        3340.50           6724       58516.00    256919.20
  414.10        3340.75           6728       62041.00    272515.30
  414.13        3341.00           6732       64535.00    283558.10
  414.16        3341.25           6735       64991.00    285577.90
  414.19        3341.50           6739       65351.00    287172.60
  414.22        3341.75           6743       64665.00    284133.90
  414.25        3342.00           6747       61606.00    270589.90
  414.28        3342.25           6750       59419.00    260913.10
  414.31        3342.50           6754       55727.00    244589.20
  414.34        3342.75           6758       52261.00    229278.00
  414.37        3343.00           6762       48752.00    213790.40
  414.40        3343.25           6765       46053.00    201886.90
  414.43        3343.50           6769       42228.00    185031.10
  414.46        3343.75           6773       38663.00    169335.40
  414.49        3344.00           6777       34543.00    151213.40
  414.52        3344.25           6780       31717.00    138793.80
  414.55        3344.50           6784       27726.00    121269.00
  414.58        3344.75           6788       23963.00    104761.10
  414.61        3345.00           6792       20077.00     87729.62
  414.64        3345.25           6795       17443.00     76194.65
  414.67        3345.50           6799       14237.00     62164.78
  414.70        3345.75           6803       10375.00     45278.82
  414.73        3346.00           6807        6821.00     29753.63
  414.76        3346.25           6810        3683.00     16056.91
  414.79        3346.50           6814         891.00      3879.24
  414.82        3346.75           6818         211.00       914.58
  414.85        3347.00           6822         109.00       469.93
  414.88        3347.25           6826         105.00       452.49
  414.91        3347.50           6829          96.00       413.26
  414.94        3347.75           6833          88.00       378.38
  414.97        3348.00           6837          82.00       352.23
  415.00        3348.25           6841          81.00       347.87
  415.03        3348.50           6844          74.00       317.35
  415.06        3348.75           6848          80.00       343.51
  415.09        3349.00           6852          75.00       321.71
  415.12        3349.25           6856          67.00       286.84
  415.15        3349.50           6859          70.00       299.92
  415.17        3349.75           6863          70.00       299.92
  415.20        3350.00           6867          64.00       273.76
  415.23        3350.25           6871          75.00       321.71
  415.26        3350.50           6874          70.00       299.92
  415.29        3350.75           6878          76.00       326.07
  415.32        3351.00           6882          68.00       291.20
HL scan finished at 06:56:49
end
************************************************************
  HL Scan of (1) Internal mercury lamp
************************************************************
Integration time is 0.2294 seconds per sample
dh110818Delft 52.017-4.35 3.340665pr1000
************************************************************
Dead Time -------------------------  2.8E-08 
Number of Cycles Used -------------  4 
Starting Wavelength (Angstroms) ---  3331 
Final Wavelength (Angstoms) -------  3351 
Wavelength Increment (Angstroms) --  .25 
Filter Wheel #1 Position ---------- (1) Ground quartz diffuser (ND=2.32)
Filter Wheel #2 Position ---------- 



************************************************************
HL scan start time = 08:39:04
Dark Count =  1 


Time (GMT)  Wavelength (Ang)  Step Number  Raw Counts  Counts/Second

  519.83        3331.00           6582          60.00       257.19
  520.24        3331.25           6586          65.00       278.99
  520.27        3331.50           6589          71.00       305.15
  520.30        3331.75           6593          68.00       292.07
  520.33        3332.00           6597          59.00       252.84
  520.36        3332.25           6601          71.00       305.15
  520.39        3332.50           6604          62.00       265.91
  520.42        3332.75           6608          57.00       244.12
  520.45        3333.00           6612          68.00       292.07
  520.48        3333.25           6616          70.00       300.79
  520.51        3333.50           6619          64.00       274.63
  520.54        3333.75           6623          63.00       270.27
  520.57        3334.00           6627          69.00       296.43
  520.60        3334.25           6631          65.00       278.99
  520.63        3334.50           6634          67.00       287.71
  520.66        3334.75           6638          77.00       331.30
  520.69        3335.00           6642          81.00       348.74
  520.72        3335.25           6645          87.00       374.89
  520.75        3335.50           6649          97.00       418.49
  520.78        3335.75           6653         114.00       492.60
  520.81        3336.00           6657         158.00       684.41
  520.84        3336.25           6660         568.00      2471.84
  520.87        3336.50           6664        3644.00     15887.63
  520.90        3336.75           6668        7296.00     31828.70
  520.93        3337.00           6672       10564.00     46105.69
  520.96        3337.25           6675       13233.00     57774.30
  520.99        3337.50           6679       16882.00     73739.72
  521.02        3337.75           6683       20593.00     89991.08
  521.05        3338.00           6687       24827.00    108550.90
  521.08        3338.25           6690       28008.00    122507.60
  521.11        3338.50           6694       31757.00    138970.40
  521.14        3338.75           6698       35768.00    156600.60
  521.17        3339.00           6702       39491.00    172980.50
  521.20        3339.25           6705       41856.00    183393.50
  521.23        3339.50           6709       45377.00    198907.70
  521.26        3339.75           6713       48871.00    214316.20
  521.29        3340.00           6717       52344.00    229645.40
  521.31        3340.25           6720       55869.00    245217.60
  521.35        3340.50           6724       58933.00    258764.40
  521.38        3340.75           6728       62683.00    275358.10
  521.40        3341.00           6732       64616.00    283917.70
  521.43        3341.25           6735       65038.00    285786.90
  521.46        3341.50           6739       65038.00    285786.90
  521.49        3341.75           6743       64361.00    282788.30
  521.52        3342.00           6747       61685.00    270940.50
  521.55        3342.25           6750       59400.00    260830.00
  521.58        3342.50           6754       56104.00    246256.20
  521.61        3342.75           6758       52046.00    228329.60
  521.64        3343.00           6762       48178.00    211259.10
  521.67        3343.25           6765       45066.00    197536.80
  521.70        3343.50           6769       41581.00    182182.40
  521.73        3343.75           6773       38042.00    166603.60
  521.76        3344.00           6777       34028.00    148950.40
  521.79        3344.25           6780       31116.00    136154.50
  521.82        3344.50           6784       27634.00    120866.10
  521.85        3344.75           6788       24145.00    105560.00
  521.88        3345.00           6792       20508.00     89618.68
  521.91        3345.25           6795       17883.00     78121.88
  521.94        3345.50           6799       13866.00     60542.83
  521.97        3345.75           6803        9669.00     42194.55
  522.00        3346.00           6807        6253.00     27274.53
  522.03        3346.25           6810        3662.00     15966.16
  522.06        3346.50           6814        1000.00      4355.37
  522.09        3346.75           6818         203.00       880.58
  522.12        3347.00           6822         118.00       510.03
  522.15        3347.25           6826         116.00       501.31
  522.18        3347.50           6829          99.00       427.21
  522.21        3347.75           6833         101.00       435.93
  522.24        3348.00           6837          84.00       361.82
  522.27        3348.25           6841          83.00       357.46
  522.30        3348.50           6844          72.00       309.51
  522.33        3348.75           6848          73.00       313.87
  522.36        3349.00           6852          80.00       344.38
  522.39        3349.25           6856          63.00       270.27
  522.42        3349.50           6859          64.00       274.63
  522.44        3349.75           6863          74.00       318.22
  522.47        3350.00           6867          60.00       257.19
  522.50        3350.25           6871          61.00       261.55
  522.53        3350.50           6874          60.00       257.19
  522.56        3350.75           6878          71.00       305.15
  522.59        3351.00           6882          68.00       292.07
HL scan finished at 08:44:05
end
************************************************************
  HL Scan of (1) Internal mercury lamp
************************************************************
Integration time is 0.2294 seconds per sample
dh110818Delft 52.017-4.35 3.340665pr1000
************************************************************
Dead Time -------------------------  2.8E-08 
Number of Cycles Used -------------  4 
Starting Wavelength (Angstroms) ---  3331 
Final Wavelength (Angstoms) -------  3351 
Wavelength Increment (Angstroms) --  .25 
Filter Wheel #1 Position ---------- (1) Ground quartz diffuser (ND=2.32)
Filter Wheel #2 Position ---------- 



************************************************************
HL scan start time = 10:26:20
Dark Count =  .8 


Time (GMT)  Wavelength (Ang)  Step Number  Raw Counts  Counts/Second

  627.09        3331.00           6582          67.00       288.58
  627.51        3331.25           6586          64.00       275.50
  627.53        3331.50           6589          69.00       297.30
  627.56        3331.75           6593          73.00       314.74
  627.59        3332.00           6597          68.00       292.94
  627.62        3332.25           6601          73.00       314.74
  627.65        3332.50           6604          64.00       275.50
  627.68        3332.75           6608          63.00       271.14
  627.71        3333.00           6612          65.00       279.86
  627.74        3333.25           6616          67.00       288.58
  627.77        3333.50           6619          55.00       236.27
  627.80        3333.75           6623          68.00       292.94
  627.83        3334.00           6627          68.00       292.94
  627.86        3334.25           6631          76.00       327.81
  627.89        3334.50           6634          70.00       301.66
  627.92        3334.75           6638          85.00       367.05
  627.95        3335.00           6642          83.00       358.33
  627.98        3335.25           6645          82.00       353.97
  628.01        3335.50           6649          99.00       428.08
  628.04        3335.75           6653         106.00       458.59
  628.07        3336.00           6657         152.00       659.12
  628.10        3336.25           6660         449.00      1953.90
  628.13        3336.50           6664        3015.00     13144.33
  628.16        3336.75           6668        6852.00     29890.75
  628.19        3337.00           6672       10648.00     46473.69
  628.22        3337.25           6675       14144.00     61759.72
  628.25        3337.50           6679       17747.00     77527.31
  628.28        3337.75           6683       21394.00     93501.68
  628.31        3338.00           6687       25506.00    111530.00
  628.34        3338.25           6690       28475.00    124558.30
  628.37        3338.50           6694       32033.00    140183.90
  628.40        3338.75           6698       35398.00    154974.40
  628.43        3339.00           6702       38829.00    170067.70
  628.46        3339.25           6705       41635.00    182421.10
  628.49        3339.50           6709       45765.00    200619.00
  628.52        3339.75           6713       49697.00    217961.70
  628.55        3340.00           6717       53069.00    232848.00
  628.58        3340.25           6720       55802.00    244922.40
  628.61        3340.50           6724       59082.00    259424.30
  628.64        3340.75           6728       62409.00    274146.00
  628.67        3341.00           6732       64826.00    284848.70
  628.70        3341.25           6735       64990.00    285575.20
  628.73        3341.50           6739       65321.00    287041.50
  628.75        3341.75           6743       64743.00    284481.10
  628.79        3342.00           6747       61805.00    271472.50
  628.81        3342.25           6750       59126.00    259618.90
  628.84        3342.50           6754       55648.00    244241.80
  628.87        3342.75           6758       51674.00    226688.00
  628.90        3343.00           6762       47855.00    209835.20
  628.93        3343.25           6765       44864.00    196647.40
  628.96        3343.50           6769       41405.00    181408.20
  628.99        3343.75           6773       38347.00    167946.60
  629.02        3344.00           6777       34746.00    152107.60
  629.05        3344.25           6780       31841.00    139340.30
  629.08        3344.50           6784       27818.00    121674.50
  629.11        3344.75           6788       23866.00    104337.50
  629.14        3345.00           6792       20008.00     87429.11
  629.17        3345.25           6795       17396.00     75990.63
  629.20        3345.50           6799       13887.00     60635.56
  629.23        3345.75           6803       10252.00     44743.03
  629.26        3346.00           6807        6626.00     28903.94
  629.29        3346.25           6810        3829.00     16695.68
  629.32        3346.50           6814        1172.00      5106.22
  629.35        3346.75           6818         244.00      1060.19
  629.38        3347.00           6822         122.00       528.34
  629.41        3347.25           6826         111.00       480.39
  629.44        3347.50           6829          99.00       428.08
  629.47        3347.75           6833          94.00       406.28
  629.50        3348.00           6837          85.00       367.05
  629.53        3348.25           6841          82.00       353.97
  629.56        3348.50           6844          88.00       380.13
  629.59        3348.75           6848          67.00       288.58
  629.62        3349.00           6852          73.00       314.74
  629.65        3349.25           6856          72.00       310.38
  629.68        3349.50           6859          65.00       279.86
  629.71        3349.75           6863          68.00       292.94
  629.74        3350.00           6867          70.00       301.66
  629.77        3350.25           6871          64.00       275.50
  629.80        3350.50           6874          67.00       288.58
  629.83        3350.75           6878          66.00       284.22
  629.86        3351.00           6882          66.00       284.22
HL scan finished at 10:31:21
end
************************************************************
  HL Scan of (1) Internal mercury lamp
************************************************************
Integration time is 0.2294 seconds per sample
dh110818Delft 52.017-4.35 3.394313pr1000
************************************************************
Dead Time -------------------------  2.8E-08 
Number of Cycles Used -------------  4 
Starting Wavelength (Angstroms) ---  3331 
Final Wavelength (Angstoms) -------  3351 
Wavelength Increment (Angstroms) --  .25 
Filter Wheel #1 Position ---------- (1) Ground quartz diffuser (ND=2.32)
Filter Wheel #2 Position ---------- 



************************************************************
HL scan start time = 12:13:37
Dark Count =  1 


Time (GMT)  Wavelength (Ang)  Step Number  Raw Counts  Counts/Second

  734.38        3331.00           6582          64.00       274.63
  734.79        3331.25           6586          68.00       292.07
  734.82        3331.50           6589          61.00       261.55
  734.85        3331.75           6593          63.00       270.27
  734.88        3332.00           6597          58.00       248.48
  734.90        3332.25           6601          67.00       287.71
  734.94        3332.50           6604          67.00       287.71
  734.96        3332.75           6608          68.00       292.07
  734.99        3333.00           6612          70.00       300.79
  735.02        3333.25           6616          68.00       292.07
  735.05        3333.50           6619          64.00       274.63
  735.08        3333.75           6623          65.00       278.99
  735.11        3334.00           6627          65.00       278.99
  735.14        3334.25           6631          70.00       300.79
  735.17        3334.50           6634          71.00       305.15
  735.20        3334.75           6638          67.00       287.71
  735.23        3335.00           6642          89.00       383.61
  735.26        3335.25           6645          76.00       326.94
  735.29        3335.50           6649          91.00       392.33
  735.32        3335.75           6653         112.00       483.88
  735.35        3336.00           6657         165.00       714.92
  735.38        3336.25           6660         834.00      3631.58
  735.41        3336.50           6664        4173.00     18195.84
  735.44        3336.75           6668        7759.00     33850.73
  735.47        3337.00           6672       11616.00     50704.02
  735.50        3337.25           6675       14514.00     63377.40
  735.53        3337.50           6679       17729.00     77447.63
  735.56        3337.75           6683       21310.00     93132.71
  735.59        3338.00           6687       24774.00    108318.50
  735.62        3338.25           6690       27757.00    121405.90
  735.65        3338.50           6694       31704.00    138737.60
  735.68        3338.75           6698       35733.00    156446.70
  735.71        3339.00           6702       39363.00    172417.10
  735.74        3339.25           6705       41934.00    183737.10
  735.77        3339.50           6709       45199.00    198123.10
  735.80        3339.75           6713       49282.00    216129.70
  735.83        3340.00           6717       53189.00    233377.10
  735.86        3340.25           6720       55635.00    244183.50
  735.89        3340.50           6724       58998.00    259051.90
  735.92        3340.75           6728       62421.00    274198.30
  735.95        3341.00           6732       64893.00    285144.60
  735.98        3341.25           6735       65627.00    288396.20
  736.01        3341.50           6739       65664.00    288560.10
  736.04        3341.75           6743       64930.00    285308.50
  736.07        3342.00           6747       61899.00    271887.60
  736.10        3342.25           6750       58980.00    258972.20
  736.13        3342.50           6754       55774.00    244797.70
  736.16        3342.75           6758       52498.00    230325.50
  736.19        3343.00           6762       48819.00    214086.80
  736.21        3343.25           6765       45773.00    200653.40
  736.24        3343.50           6769       42173.00    184789.80
  736.27        3343.75           6773       38429.00    168306.60
  736.30        3344.00           6777       34691.00    151865.00
  736.33        3344.25           6780       31610.00    138324.60
  736.36        3344.50           6784       28115.00    122977.20
  736.39        3344.75           6788       24512.00    107169.40
  736.42        3345.00           6792       20543.00     89772.02
  736.45        3345.25           6795       17998.00     78625.40
  736.48        3345.50           6799       14450.00     63097.43
  736.51        3345.75           6803       10418.00     45467.61
  736.54        3346.00           6807        6478.00     28256.88
  736.57        3346.25           6810        3560.00     15521.13
  736.60        3346.50           6814         799.00      3478.98
  736.63        3346.75           6818         185.00       802.11
  736.66        3347.00           6822         126.00       544.91
  736.69        3347.25           6826         106.00       457.72
  736.72        3347.50           6829         100.00       431.57
  736.75        3347.75           6833          90.00       387.97
  736.78        3348.00           6837          89.00       383.61
  736.81        3348.25           6841          90.00       387.97
  736.84        3348.50           6844          80.00       344.38
  736.87        3348.75           6848          75.00       322.58
  736.90        3349.00           6852          70.00       300.79
  736.93        3349.25           6856          71.00       305.15
  736.96        3349.50           6859          59.00       252.84
  736.99        3349.75           6863          70.00       300.79
  737.02        3350.00           6867          73.00       313.87
  737.05        3350.25           6871          70.00       300.79
  737.08        3350.50           6874          69.00       296.43
  737.11        3350.75           6878          74.00       318.22
  737.14        3351.00           6882          63.00       270.27
HL scan finished at 12:18:38
end
************************************************************
  HL Scan of (1) Internal mercury lamp
************************************************************
Integration time is 0.2294 seconds per sample
dh110818Delft 52.017-4.35 3.394313pr1000
************************************************************
Dead Time -------------------------  2.8E-08 
Number of Cycles Used -------------  4 
Starting Wavelength (Angstroms) ---  3331 
Final Wavelength (Angstoms) -------  3351 
Wavelength Increment (Angstroms) --  .25 
Filter Wheel #1 Position ---------- (1) Ground quartz diffuser (ND=2.32)
Filter Wheel #2 Position ---------- 



************************************************************
HL scan start time = 14:00:53
Dark Count =  1 


Time (GMT)  Wavelength (Ang)  Step Number  Raw Counts  Counts/Second

  841.64        3331.00           6582          71.00       305.15
  842.05        3331.25           6586          74.00       318.22
  842.08        3331.50           6589          67.00       287.71
  842.11        3331.75           6593          61.00       261.55
  842.14        3332.00           6597          68.00       292.07
  842.17        3332.25           6601          58.00       248.48
  842.20        3332.50           6604          69.00       296.43
  842.23        3332.75           6608          67.00       287.71
  842.26        3333.00           6612          60.00       257.19
  842.29        3333.25           6616          69.00       296.43
  842.32        3333.50           6619          65.00       278.99
  842.35        3333.75           6623          63.00       270.27
  842.38        3334.00           6627          54.00       231.04
  842.41        3334.25           6631          61.00       261.55
  842.44        3334.50           6634          69.00       296.43
  842.47        3334.75           6638          73.00       313.87
  842.50        3335.00           6642          84.00       361.82
  842.53        3335.25           6645          96.00       414.13
  842.56        3335.50           6649         103.00       444.64
  842.59        3335.75           6653         109.00       470.80
  842.62        3336.00           6657         196.00       850.06
  842.65        3336.25           6660        1064.00      4634.43
  842.67        3336.50           6664        4316.00     18819.86
  842.70        3336.75           6668        7682.00     33514.44
  842.73        3337.00           6672       11004.00     48028.80
  842.76        3337.25           6675       13662.00     59650.55
  842.79        3337.50           6679       17483.00     76370.63
  842.82        3337.75           6683       21425.00     93636.63
  842.85        3338.00           6687       25451.00    111287.80
  842.88        3338.25           6690       28123.00    123012.30
  842.91        3338.50           6694       31677.00    138618.90
  842.94        3338.75           6698       35406.00    155008.70
  842.97        3339.00           6702       39398.00    172571.20
  843.00        3339.25           6705       41841.00    183327.50
  843.03        3339.50           6709       45220.00    198215.60
  843.06        3339.75           6713       49339.00    216381.10
  843.09        3340.00           6717       52901.00    232105.20
  843.12        3340.25           6720       55751.00    244696.10
  843.15        3340.50           6724       59678.00    262059.70
  843.18        3340.75           6728       63003.00    276774.80
  843.21        3341.00           6732       65250.00    286726.00
  843.24        3341.25           6735       66124.00    290598.20
  843.27        3341.50           6739       65970.00    289915.90
  843.30        3341.75           6743       65159.00    286322.90
  843.33        3342.00           6747       62641.00    275172.20
  843.36        3342.25           6750       60093.00    263895.70
  843.39        3342.50           6754       56945.00    249973.70
  843.42        3342.75           6758       52431.00    230029.60
  843.45        3343.00           6762       48654.00    213358.90
  843.48        3343.25           6765       45697.00    200318.30
  843.51        3343.50           6769       42193.00    184877.90
  843.54        3343.75           6773       39143.00    171448.80
  843.57        3344.00           6777       35080.00    153575.30
  843.60        3344.25           6780       32374.00    141681.30
  843.63        3344.50           6784       28862.00    126256.40
  843.66        3344.75           6788       24972.00    109186.80
  843.69        3345.00           6792       20909.00     91375.59
  843.72        3345.25           6795       17692.00     77285.65
  843.75        3345.50           6799       13589.00     59331.26
  843.78        3345.75           6803        9863.00     43042.26
  843.81        3346.00           6807        6243.00     27230.87
  843.84        3346.25           6810        3100.00     13514.27
  843.87        3346.50           6814         683.00      2973.22
  843.90        3346.75           6818         210.00       911.10
  843.93        3347.00           6822         112.00       483.88
  843.96        3347.25           6826         112.00       483.88
  843.99        3347.50           6829          94.00       405.41
  844.02        3347.75           6833          96.00       414.13
  844.05        3348.00           6837          86.00       370.54
  844.08        3348.25           6841          83.00       357.46
  844.11        3348.50           6844          78.00       335.66
  844.14        3348.75           6848          76.00       326.94
  844.17        3349.00           6852          67.00       287.71
  844.20        3349.25           6856          70.00       300.79
  844.22        3349.50           6859          69.00       296.43
  844.25        3349.75           6863          78.00       335.66
  844.28        3350.00           6867          66.00       283.35
  844.31        3350.25           6871          72.00       309.51
  844.34        3350.50           6874          80.00       344.38
  844.37        3350.75           6878          66.00       283.35
  844.40        3351.00           6882          65.00       278.99
HL scan finished at 14:05:54
end
************************************************************
  HL Scan of (1) Internal mercury lamp
************************************************************
Integration time is 0.2294 seconds per sample
dh110818Delft 52.017-4.35 3.447962pr1000
************************************************************
Dead Time -------------------------  2.8E-08 
Number of Cycles Used -------------  4 
Starting Wavelength (Angstroms) ---  3331 
Final Wavelength (Angstoms) -------  3351 
Wavelength Increment (Angstroms) --  .25 
Filter Wheel #1 Position ---------- (1) Ground quartz diffuser (ND=2.32)
Filter Wheel #2 Position ---------- 



************************************************************
HL scan start time = 15:48:09
Dark Count =  1 


Time (GMT)  Wavelength (Ang)  Step Number  Raw Counts  Counts/Second

  948.91        3331.00           6582          73.00       313.87
  949.32        3331.25           6586          56.00       239.76
  949.35        3331.50           6589          68.00       292.07
  949.38        3331.75           6593          61.00       261.55
  949.41        3332.00           6597          75.00       322.58
  949.44        3332.25           6601          64.00       274.63
  949.47        3332.50           6604          62.00       265.91
  949.50        3332.75           6608          68.00       292.07
  949.53        3333.00           6612          72.00       309.51
  949.56        3333.25           6616          64.00       274.63
  949.59        3333.50           6619          67.00       287.71
  949.62        3333.75           6623          73.00       313.87
  949.65        3334.00           6627          69.00       296.43
  949.68        3334.25           6631          66.00       283.35
  949.71        3334.50           6634          69.00       296.43
  949.74        3334.75           6638          85.00       366.18
  949.77        3335.00           6642          85.00       366.18
  949.80        3335.25           6645          83.00       357.46
  949.83        3335.50           6649          98.00       422.85
  949.86        3335.75           6653         111.00       479.52
  949.89        3336.00           6657         191.00       828.27
  949.92        3336.25           6660         737.00      3208.66
  949.95        3336.50           6664        3689.00     16083.97
  949.98        3336.75           6668        7716.00     33662.93
  950.01        3337.00           6672       11629.00     50760.85
  950.04        3337.25           6675       14677.00     64090.50
  950.07        3337.50           6679       17912.00     78248.85
  950.10        3337.75           6683       21453.00     93759.34
  950.12        3338.00           6687       25476.00    111397.50
  950.15        3338.25           6690       28440.00    124403.80
  950.19        3338.50           6694       32113.00    140534.50
  950.22        3338.75           6698       35812.00    156794.10
  950.24        3339.00           6702       39742.00    174085.40
  950.27        3339.25           6705       42222.00    185005.60
  950.30        3339.50           6709       46609.00    204339.30
  950.33        3339.75           6713       50598.00    221937.20
  950.36        3340.00           6717       54116.00    237471.80
  950.39        3340.25           6720       56899.00    249770.40
  950.42        3340.50           6724       60939.00    267639.00
  950.45        3340.75           6728       64090.00    281588.10
  950.48        3341.00           6732       66072.00    290367.80
  950.51        3341.25           6735       66599.00    292703.00
  950.54        3341.50           6739       66702.00    293159.40
  950.57        3341.75           6743       65619.00    288360.80
  950.60        3342.00           6747       62680.00    275344.80
  950.63        3342.25           6750       60264.00    264652.30
  950.66        3342.50           6754       56845.00    249531.60
  950.69        3342.75           6758       53205.00    233447.70
  950.72        3343.00           6762       49157.00    215578.10
  950.75        3343.25           6765       46219.00    202619.70
  950.78        3343.50           6769       43066.00    188723.50
  950.81        3343.75           6773       39909.00    174820.50
  950.84        3344.00           6777       35754.00    156539.00
  950.87        3344.25           6780       32757.00    143364.20
  950.90        3344.50           6784       28330.00    123921.00
  950.93        3344.75           6788       24180.00    105713.50
  950.96        3345.00           6792       20613.00     90078.69
  950.99        3345.25           6795       17877.00     78095.60
  951.02        3345.50           6799       13664.00     59659.30
  951.05        3345.75           6803        9796.00     42749.49
  951.08        3346.00           6807        6475.00     28243.78
  951.11        3346.25           6810        3747.00     16337.03
  951.14        3346.50           6814        1035.00      4507.98
  951.17        3346.75           6818         219.00       950.33
  951.20        3347.00           6822         128.00       553.63
  951.23        3347.25           6826         111.00       479.52
  951.26        3347.50           6829          95.00       409.77
  951.29        3347.75           6833          89.00       383.61
  951.32        3348.00           6837          83.00       357.46
  951.35        3348.25           6841          67.00       287.71
  951.38        3348.50           6844          76.00       326.94
  951.40        3348.75           6848          71.00       305.15
  951.43        3349.00           6852          75.00       322.58
  951.46        3349.25           6856          69.00       296.43
  951.49        3349.50           6859          69.00       296.43
  951.52        3349.75           6863          72.00       309.51
  951.55        3350.00           6867          71.00       305.15
  951.58        3350.25           6871          63.00       270.27
  951.61        3350.50           6874          64.00       274.63
  951.64        3350.75           6878          75.00       322.58
  951.67        3351.00           6882          69.00       296.43
HL scan finished at 15:53:10
end
************************************************************
  HL Scan of (1) Internal mercury lamp
************************************************************
Integration time is 0.2294 seconds per sample
dh110818Delft 52.017-4.35 3.50161pr1000
************************************************************
Dead Time -------------------------  2.8E-08 
Number of Cycles Used -------------  4 
Starting Wavelength (Angstroms) ---  3331 
Final Wavelength (Angstoms) -------  3351 
Wavelength Increment (Angstroms) --  .25 
Filter Wheel #1 Position ---------- (1) Ground quartz diffuser (ND=2.32)
Filter Wheel #2 Position ---------- 



************************************************************
HL scan start time = 17:35:25
Dark Count =  1 


Time (GMT)  Wavelength (Ang)  Step Number  Raw Counts  Counts/Second

 1056.18        3331.00           6582          63.00       270.27
 1056.59        3331.25           6586          73.00       313.87
 1056.62        3331.50           6589          74.00       318.22
 1056.65        3331.75           6593          68.00       292.07
 1056.68        3332.00           6597          65.00       278.99
 1056.71        3332.25           6601          71.00       305.15
 1056.74        3332.50           6604          73.00       313.87
 1056.77        3332.75           6608          61.00       261.55
 1056.80        3333.00           6612          70.00       300.79
 1056.83        3333.25           6616          72.00       309.51
 1056.86        3333.50           6619          60.00       257.19
 1056.89        3333.75           6623          73.00       313.87
 1056.92        3334.00           6627          69.00       296.43
 1056.95        3334.25           6631          63.00       270.27
 1056.98        3334.50           6634          72.00       309.51
 1057.01        3334.75           6638          74.00       318.22
 1057.04        3335.00           6642          85.00       366.18
 1057.07        3335.25           6645          98.00       422.85
 1057.10        3335.50           6649         108.00       466.44
 1057.13        3335.75           6653         121.00       523.11
 1057.16        3336.00           6657         220.00       954.69
 1057.19        3336.25           6660        1126.00      4904.77
 1057.21        3336.50           6664        4540.00     19797.37
 1057.24        3336.75           6668        7857.00     34278.74
 1057.27        3337.00           6672       11564.00     50476.70
 1057.30        3337.25           6675       14761.00     64458.00
 1057.33        3337.50           6679       18639.00     81432.21
 1057.36        3337.75           6683       22172.00     96910.38
 1057.39        3338.00           6687       26085.00    114069.10
 1057.42        3338.25           6690       29213.00    127797.40
 1057.45        3338.50           6694       33170.00    145179.20
 1057.48        3338.75           6698       37539.00    164390.50
 1057.51        3339.00           6702       41365.00    181231.20
 1057.54        3339.25           6705       44156.00    193526.20
 1057.57        3339.50           6709       48083.00    210840.00
 1057.60        3339.75           6713       51985.00    228060.20
 1057.63        3340.00           6717       55808.00    244948.00
 1057.66        3340.25           6720       58246.00    255726.00
 1057.69        3340.50           6724       61497.00    270108.40
 1057.72        3340.75           6728       65035.00    285773.60
 1057.75        3341.00           6732       67470.00    296563.10
 1057.78        3341.25           6735       67861.00    298296.30
 1057.81        3341.50           6739       68018.00    298992.20
 1057.84        3341.75           6743       67107.00    294954.30
 1057.87        3342.00           6747       64291.00    282478.30
 1057.90        3342.25           6750       61346.00    269440.10
 1057.93        3342.50           6754       57701.00    253316.10
 1057.96        3342.75           6758       54337.00    238448.10
 1057.99        3343.00           6762       50588.00    221893.10
 1058.02        3343.25           6765       47487.00    208211.20
 1058.05        3343.50           6769       43450.00    190415.30
 1058.08        3343.75           6773       39619.00    173543.90
 1058.11        3344.00           6777       35684.00    156231.20
 1058.14        3344.25           6780       32751.00    143337.90
 1058.17        3344.50           6784       28640.00    125281.80
 1058.20        3344.75           6788       24234.00    105950.30
 1058.23        3345.00           6792       20640.00     90196.99
 1058.26        3345.25           6795       17993.00     78603.50
 1058.29        3345.50           6799       14492.00     63281.17
 1058.32        3345.75           6803       10633.00     46407.26
 1058.35        3346.00           6807        6557.00     28601.80
 1058.38        3346.25           6810        3296.00     14369.34
 1058.41        3346.50           6814         683.00      2973.22
 1058.44        3346.75           6818         194.00       841.35
 1058.47        3347.00           6822         111.00       479.52
 1058.50        3347.25           6826         107.00       462.08
 1058.53        3347.50           6829          98.00       422.85
 1058.56        3347.75           6833          90.00       387.97
 1058.59        3348.00           6837          82.00       353.10
 1058.62        3348.25           6841          79.00       340.02
 1058.65        3348.50           6844          80.00       344.38
 1058.68        3348.75           6848          80.00       344.38
 1058.71        3349.00           6852          64.00       274.63
 1058.74        3349.25           6856          67.00       287.71
 1058.76        3349.50           6859          72.00       309.51
 1058.79        3349.75           6863          66.00       283.35
 1058.82        3350.00           6867          68.00       292.07
 1058.85        3350.25           6871          75.00       322.58
 1058.88        3350.50           6874          69.00       296.43
 1058.91        3350.75           6878          79.00       340.02
 1058.94        3351.00           6882          68.00       292.07
HL scan finished at 17:40:26
end
