************************************************************
  HL Scan of (1) Internal mercury lamp
************************************************************
Integration time is 0.2294 seconds per sample
dh260817Hanoi 21.021-105.808 3.447962pr1000
************************************************************
Dead Time -------------------------  3E-08 
Number of Cycles Used -------------  4 
Starting Wavelength (Angstroms) ---  3331 
Final Wavelength (Angstoms) -------  3351 
Wavelength Increment (Angstroms) --  .25 
Filter Wheel #1 Position ---------- (1) Ground quartz diffuser (ND=2.32)
Filter Wheel #2 Position ---------- 



************************************************************
HL scan start time = 22:14:54
Dark Count =  .3 


Time (GMT)  Wavelength (Ang)  Step Number  Raw Counts  Counts/Second

 1335.66        3331.00           6581          49.00       212.29
 1336.07        3331.25           6584          45.00       194.86
 1336.09        3331.50           6588          49.00       212.29
 1336.12        3331.75           6592          57.00       247.17
 1336.15        3332.00           6595          58.00       251.53
 1336.18        3332.25           6599          43.00       186.14
 1336.20        3332.50           6603          47.00       203.58
 1336.24        3332.75           6607          48.00       207.94
 1336.27        3333.00           6610          42.00       181.78
 1336.29        3333.25           6614          52.00       225.37
 1336.32        3333.50           6618          37.00       159.98
 1336.35        3333.75           6622          57.00       247.17
 1336.38        3334.00           6625          50.00       216.65
 1336.40        3334.25           6629          54.00       234.09
 1336.43        3334.50           6633          52.00       225.37
 1336.46        3334.75           6636          51.00       221.01
 1336.49        3335.00           6640          55.00       238.45
 1336.51        3335.25           6644          64.00       277.68
 1336.54        3335.50           6648          68.00       295.12
 1336.57        3335.75           6651          71.00       308.20
 1336.60        3336.00           6655          77.00       334.35
 1336.62        3336.25           6659         190.00       826.96
 1336.65        3336.50           6663        1674.00      7297.59
 1336.68        3336.75           6666        3963.00     17283.15
 1336.71        3337.00           6670        6637.00     28955.83
 1336.73        3337.25           6674        9184.00     40081.74
 1336.76        3337.50           6677       11048.00     48228.85
 1336.79        3337.75           6681       13685.00     59761.37
 1336.82        3338.00           6685       16238.00     70934.15
 1336.85        3338.25           6689       18718.00     81794.63
 1336.88        3338.50           6692       20604.00     90058.59
 1336.91        3338.75           6696       23094.00    100975.40
 1336.93        3339.00           6700       25818.00    112926.40
 1336.96        3339.25           6704       28879.00    126366.10
 1336.99        3339.50           6707       30705.00    134388.60
 1337.02        3339.75           6711       33259.00    145616.00
 1337.04        3340.00           6715       35792.00    156758.60
 1337.07        3340.25           6719       38267.00    167653.30
 1337.10        3340.50           6722       40211.00    176215.50
 1337.13        3340.75           6726       42522.00    186399.90
 1337.16        3341.00           6730       44650.00    195783.40
 1337.18        3341.25           6733       45584.00    199903.60
 1337.21        3341.50           6737       46044.00    201933.20
 1337.24        3341.75           6741       45785.00    200790.40
 1337.27        3342.00           6745       44643.00    195752.60
 1337.29        3342.25           6748       42872.00    187942.90
 1337.32        3342.50           6752       40515.00    177554.90
 1337.35        3342.75           6756       37800.00    165597.00
 1337.38        3343.00           6760       34949.00    153049.40
 1337.41        3343.25           6763       33294.00    145769.90
 1337.44        3343.50           6767       31018.00    135764.10
 1337.47        3343.75           6771       28554.00    124938.60
 1337.49        3344.00           6775       25876.00    113180.90
 1337.52        3344.25           6778       23841.00    104251.90
 1337.55        3344.50           6782       20965.00     91640.87
 1337.58        3344.75           6786       18292.00     79928.57
 1337.61        3345.00           6790       15711.00     68627.20
 1337.63        3345.25           6793       13812.00     60316.99
 1337.66        3345.50           6797       11279.00     49238.76
 1337.69        3345.75           6801        8669.00     37831.49
 1337.72        3346.00           6805        6286.00     27423.16
 1337.74        3346.25           6808        4367.00     19046.19
 1337.77        3346.50           6812        1824.00      7951.77
 1337.81        3346.75           6816         329.00      1432.93
 1337.83        3347.00           6819         117.00       508.73
 1337.86        3347.25           6823          83.00       360.51
 1337.89        3347.50           6827          71.00       308.20
 1337.92        3347.75           6831          64.00       277.68
 1337.95        3348.00           6834          59.00       255.89
 1337.98        3348.25           6838          56.00       242.81
 1338.01        3348.50           6842          60.00       260.25
 1338.03        3348.75           6846          58.00       251.53
 1338.06        3349.00           6849          54.00       234.09
 1338.09        3349.25           6853          51.00       221.01
 1338.12        3349.50           6857          50.00       216.65
 1338.15        3349.75           6861          51.00       221.01
 1338.17        3350.00           6864          55.00       238.45
 1338.20        3350.25           6868          51.00       221.01
 1338.23        3350.50           6872          56.00       242.81
 1338.26        3350.75           6876          60.00       260.25
 1338.28        3351.00           6879          53.00       229.73
HL scan finished at 22:19:46
end
