************************************************************
  HL Scan of (1) Internal mercury lamp
************************************************************
Integration time is 0.2294 seconds per sample
dh280817Hanoi 21.021-105.808 3.555258pr1000
************************************************************
Dead Time -------------------------  3E-08 
Number of Cycles Used -------------  4 
Starting Wavelength (Angstroms) ---  3331 
Final Wavelength (Angstoms) -------  3351 
Wavelength Increment (Angstroms) --  .25 
Filter Wheel #1 Position ---------- (1) Ground quartz diffuser (ND=2.32)
Filter Wheel #2 Position ---------- 



************************************************************
HL scan start time = 22:17:20
Dark Count =  .3 


Time (GMT)  Wavelength (Ang)  Step Number  Raw Counts  Counts/Second

 1338.10        3331.00           6581          47.00       203.58
 1338.51        3331.25           6584          55.00       238.45
 1338.54        3331.50           6588          50.00       216.65
 1338.57        3331.75           6592          50.00       216.65
 1338.60        3332.00           6595          49.00       212.29
 1338.63        3332.25           6599          53.00       229.73
 1338.66        3332.50           6603          53.00       229.73
 1338.69        3332.75           6607          53.00       229.73
 1338.72        3333.00           6610          46.00       199.22
 1338.74        3333.25           6614          52.00       225.37
 1338.77        3333.50           6618          45.00       194.86
 1338.80        3333.75           6622          52.00       225.37
 1338.83        3334.00           6625          56.00       242.81
 1338.86        3334.25           6629          55.00       238.45
 1338.89        3334.50           6633          55.00       238.45
 1338.92        3334.75           6636          57.00       247.17
 1338.95        3335.00           6640          56.00       242.81
 1338.98        3335.25           6644          64.00       277.68
 1339.01        3335.50           6648          67.00       290.76
 1339.04        3335.75           6651          83.00       360.51
 1339.07        3336.00           6655          82.00       356.15
 1339.10        3336.25           6659         151.00       656.94
 1339.13        3336.50           6663        1368.00      5963.14
 1339.16        3336.75           6666        3693.00     16104.99
 1339.19        3337.00           6670        6654.00     29030.07
 1339.22        3337.25           6674        9281.00     40505.60
 1339.25        3337.50           6677       11132.00     48596.08
 1339.28        3337.75           6681       13779.00     60172.61
 1339.31        3338.00           6685       16930.00     73963.85
 1339.34        3338.25           6689       19559.00     85479.16
 1339.37        3338.50           6692       21316.00     93179.46
 1339.39        3338.75           6696       23965.00    104795.80
 1339.43        3339.00           6700       26766.00    117087.60
 1339.45        3339.25           6704       29814.00    130473.50
 1339.48        3339.50           6707       32082.00    140441.00
 1339.51        3339.75           6711       34547.00    151280.90
 1339.54        3340.00           6715       37252.00    163184.40
 1339.57        3340.25           6719       39862.00    174678.00
 1339.60        3340.50           6722       42068.00    184398.70
 1339.63        3340.75           6726       44716.00    196074.60
 1339.66        3341.00           6730       46598.00    204377.90
 1339.69        3341.25           6733       48044.00    210760.40
 1339.72        3341.50           6737       48484.00    212703.00
 1339.75        3341.75           6741       48369.00    212195.30
 1339.78        3342.00           6745       47595.00    208778.30
 1339.81        3342.25           6748       45618.00    200053.60
 1339.84        3342.50           6752       42900.00    188066.40
 1339.87        3342.75           6756       40014.00    175347.60
 1339.90        3343.00           6760       37131.00    162651.80
 1339.93        3343.25           6763       35527.00    155592.50
 1339.96        3343.50           6767       32889.00    143989.00
 1339.99        3343.75           6771       30450.00    133268.00
 1340.02        3344.00           6775       27904.00    122084.10
 1340.05        3344.25           6778       25524.00    111636.10
 1340.08        3344.50           6782       22585.00     98743.25
 1340.11        3344.75           6786       19763.00     86373.04
 1340.14        3345.00           6790       16906.00     73858.77
 1340.17        3345.25           6793       15088.00     65900.43
 1340.20        3345.50           6797       12248.00     53475.87
 1340.23        3345.75           6801        9541.00     41641.79
 1340.26        3346.00           6805        6977.00     30440.60
 1340.29        3346.25           6808        4982.00     21730.38
 1340.32        3346.50           6812        2398.00     10455.33
 1340.34        3346.75           6816         497.00      2165.35
 1340.37        3347.00           6819         144.00       626.43
 1340.40        3347.25           6823          87.00       377.95
 1340.43        3347.50           6827          83.00       360.51
 1340.46        3347.75           6831          72.00       312.56
 1340.49        3348.00           6834          64.00       277.68
 1340.52        3348.25           6838          68.00       295.12
 1340.55        3348.50           6842          63.00       273.32
 1340.58        3348.75           6846          56.00       242.81
 1340.61        3349.00           6849          52.00       225.37
 1340.64        3349.25           6853          53.00       229.73
 1340.67        3349.50           6857          53.00       229.73
 1340.70        3349.75           6861          54.00       234.09
 1340.73        3350.00           6864          54.00       234.09
 1340.76        3350.25           6868          63.00       273.32
 1340.79        3350.50           6872          64.00       277.68
 1340.82        3350.75           6876          52.00       225.37
 1340.85        3351.00           6879          58.00       251.53
HL scan finished at 22:22:20
end
