************************************************************
  HL Scan of (1) Internal mercury lamp
************************************************************
Integration time is 0.2294 seconds per sample
dh300817Hanoi 21.021-105.808 3.50161pr1000
************************************************************
Dead Time -------------------------  3E-08 
Number of Cycles Used -------------  4 
Starting Wavelength (Angstroms) ---  3331 
Final Wavelength (Angstoms) -------  3351 
Wavelength Increment (Angstroms) --  .25 
Filter Wheel #1 Position ---------- (1) Ground quartz diffuser (ND=2.32)
Filter Wheel #2 Position ---------- 



************************************************************
HL scan start time = 17:34:40
Dark Count =  .1 


Time (GMT)  Wavelength (Ang)  Step Number  Raw Counts  Counts/Second

 1055.42        3331.00           6581          61.00       265.48
 1055.83        3331.25           6584          53.00       230.60
 1055.86        3331.50           6588          57.00       248.04
 1055.89        3331.75           6592          46.00       200.09
 1055.91        3332.00           6595          52.00       226.24
 1055.94        3332.25           6599          47.00       204.45
 1055.97        3332.50           6603          56.00       243.68
 1056.00        3332.75           6607          60.00       261.12
 1056.02        3333.00           6610          55.00       239.32
 1056.05        3333.25           6614          50.00       217.53
 1056.08        3333.50           6618          46.00       200.09
 1056.11        3333.75           6622          54.00       234.96
 1056.13        3334.00           6625          49.00       213.17
 1056.16        3334.25           6629          54.00       234.96
 1056.19        3334.50           6633          54.00       234.96
 1056.22        3334.75           6636          56.00       243.68
 1056.24        3335.00           6640          52.00       226.24
 1056.27        3335.25           6644          74.00       322.15
 1056.30        3335.50           6648          77.00       335.23
 1056.33        3335.75           6651          75.00       326.51
 1056.35        3336.00           6655         101.00       439.85
 1056.38        3336.25           6659         170.00       740.64
 1056.41        3336.50           6663        1619.00      7058.60
 1056.44        3336.75           6666        3768.00     16433.12
 1056.46        3337.00           6670        6281.00     27402.20
 1056.49        3337.25           6674        9084.00     39645.65
 1056.52        3337.50           6677       11211.00     48942.35
 1056.55        3337.75           6681       14216.00     62085.46
 1056.57        3338.00           6685       17585.00     76832.96
 1056.60        3338.25           6689       20543.00     89792.12
 1056.63        3338.50           6692       22760.00     99511.55
 1056.66        3338.75           6696       25775.00    112738.60
 1056.68        3339.00           6700       28646.00    125343.60
 1056.72        3339.25           6704       31396.00    137426.40
 1056.74        3339.50           6707       33395.00    146214.90
 1056.77        3339.75           6711       35828.00    156917.90
 1056.80        3340.00           6715       38783.00    169926.40
 1056.83        3340.25           6719       42184.00    184910.90
 1056.86        3340.50           6722       44557.00    195374.10
 1056.88        3340.75           6726       46971.00    206024.90
 1056.91        3341.00           6730       49440.00    216925.40
 1056.94        3341.25           6733       50788.00    222879.80
 1056.97        3341.50           6737       51080.00    224169.90
 1056.99        3341.75           6741       50967.00    223670.60
 1057.02        3342.00           6745       50211.00    220330.80
 1057.05        3342.25           6748       48389.00    212284.50
 1057.08        3342.50           6752       45568.00    199833.90
 1057.11        3342.75           6756       42811.00    187674.90
 1057.13        3343.00           6760       39560.00    173348.60
 1057.16        3343.25           6763       37505.00    164299.10
 1057.19        3343.50           6767       34453.00    150868.30
 1057.22        3343.75           6771       31895.00    139619.80
 1057.24        3344.00           6775       29057.00    127148.90
 1057.27        3344.25           6778       26839.00    117408.90
 1057.30        3344.50           6782       24161.00    105656.50
 1057.33        3344.75           6786       21037.00     91957.35
 1057.35        3345.00           6790       18308.00     79999.53
 1057.38        3345.25           6793       15956.00     69700.53
 1057.41        3345.50           6797       12755.00     55694.12
 1057.44        3345.75           6801        9934.00     43360.21
 1057.47        3346.00           6805        7077.00     30878.20
 1057.49        3346.25           6808        5025.00     21918.94
 1057.52        3346.50           6812        2354.00     10264.28
 1057.55        3346.75           6816         510.00      2222.90
 1057.58        3347.00           6819         190.00       827.83
 1057.60        3347.25           6823          92.00       400.62
 1057.63        3347.50           6827          74.00       322.15
 1057.66        3347.75           6831          83.00       361.38
 1057.69        3348.00           6834          69.00       300.35
 1057.71        3348.25           6838          64.00       278.56
 1057.74        3348.50           6842          66.00       287.27
 1057.77        3348.75           6846          58.00       252.40
 1057.80        3349.00           6849          60.00       261.12
 1057.83        3349.25           6853          59.00       256.76
 1057.86        3349.50           6857          56.00       243.68
 1057.89        3349.75           6861          53.00       230.60
 1057.92        3350.00           6864          60.00       261.12
 1057.95        3350.25           6868          59.00       256.76
 1057.98        3350.50           6872          53.00       230.60
 1058.01        3350.75           6876          53.00       230.60
 1058.04        3351.00           6879          56.00       243.68
HL scan finished at 17:39:31
end
************************************************************
  HL Scan of (1) Internal mercury lamp
************************************************************
Integration time is 0.2294 seconds per sample
dh300817Hanoi 21.021-105.808 3.447962pr1000
************************************************************
Dead Time -------------------------  3E-08 
Number of Cycles Used -------------  4 
Starting Wavelength (Angstroms) ---  3331 
Final Wavelength (Angstoms) -------  3351 
Wavelength Increment (Angstroms) --  .25 
Filter Wheel #1 Position ---------- (1) Ground quartz diffuser (ND=2.32)
Filter Wheel #2 Position ---------- 



************************************************************
HL scan start time = 22:16:26
Dark Count =  .1 


Time (GMT)  Wavelength (Ang)  Step Number  Raw Counts  Counts/Second

 1337.19        3331.00           6581          51.00       221.88
 1337.60        3331.25           6584          47.00       204.45
 1337.63        3331.50           6588          50.00       217.53
 1337.65        3331.75           6592          46.00       200.09
 1337.68        3332.00           6595          53.00       230.60
 1337.71        3332.25           6599          52.00       226.24
 1337.74        3332.50           6603          50.00       217.53
 1337.76        3332.75           6607          48.00       208.81
 1337.79        3333.00           6610          47.00       204.45
 1337.82        3333.25           6614          50.00       217.53
 1337.85        3333.50           6618          50.00       217.53
 1337.87        3333.75           6622          55.00       239.32
 1337.90        3334.00           6625          50.00       217.53
 1337.93        3334.25           6629          52.00       226.24
 1337.96        3334.50           6633          50.00       217.53
 1337.98        3334.75           6636          50.00       217.53
 1338.01        3335.00           6640          60.00       261.12
 1338.04        3335.25           6644          66.00       287.27
 1338.07        3335.50           6648          70.00       304.71
 1338.09        3335.75           6651          85.00       370.10
 1338.12        3336.00           6655          93.00       404.97
 1338.15        3336.25           6659         417.00      1817.45
 1338.17        3336.50           6663        2326.00     10142.14
 1338.20        3336.75           6666        4158.00     18134.97
 1338.23        3337.00           6670        6771.00     29541.86
 1338.26        3337.25           6674        9141.00     39894.72
 1338.29        3337.50           6677       11068.00     48317.15
 1338.31        3337.75           6681       13118.00     57281.88
 1338.34        3338.00           6685       15571.00     68015.28
 1338.37        3338.25           6689       18303.00     79977.63
 1338.40        3338.50           6692       20556.00     89849.10
 1338.42        3338.75           6696       23284.00    101809.60
 1338.45        3339.00           6700       25634.00    112119.70
 1338.48        3339.25           6704       27934.00    122216.70
 1338.51        3339.50           6707       29712.00    130026.30
 1338.53        3339.75           6711       32617.00    142793.90
 1338.56        3340.00           6715       35135.00    153868.60
 1338.59        3340.25           6719       37139.00    162687.90
 1338.62        3340.50           6722       39049.00    171097.90
 1338.64        3340.75           6726       41377.00    181354.10
 1338.67        3341.00           6730       43743.00    191784.20
 1338.70        3341.25           6733       44803.00    196459.20
 1338.73        3341.50           6737       45091.00    197729.60
 1338.75        3341.75           6741       44746.00    196207.80
 1338.78        3342.00           6745       43713.00    191651.90
 1338.81        3342.25           6748       41776.00    183112.60
 1338.84        3342.50           6752       39493.00    173053.50
 1338.86        3342.75           6756       37094.00    162489.80
 1338.89        3343.00           6760       34821.00    152487.20
 1338.92        3343.25           6763       32773.00    143479.80
 1338.95        3343.50           6767       30039.00    131463.00
 1338.97        3343.75           6771       27309.00    119472.40
 1339.00        3344.00           6775       24792.00    108424.90
 1339.03        3344.25           6778       23176.00    101335.90
 1339.06        3344.50           6782       20749.00     90694.99
 1339.09        3344.75           6786       17988.00     78597.93
 1339.12        3345.00           6790       15334.00     66977.96
 1339.14        3345.25           6793       13796.00     60247.86
 1339.17        3345.50           6797       11258.00     49147.83
 1339.20        3345.75           6801        8623.00     37631.39
 1339.23        3346.00           6805        5734.00     25013.97
 1339.25        3346.25           6808        3513.00     15320.47
 1339.28        3346.50           6812        1128.00      4917.47
 1339.31        3346.75           6816         248.00      1080.68
 1339.34        3347.00           6819          96.00       418.05
 1339.36        3347.25           6823          77.00       335.23
 1339.39        3347.50           6827          83.00       361.38
 1339.42        3347.75           6831          63.00       274.20
 1339.45        3348.00           6834          64.00       278.56
 1339.47        3348.25           6838          61.00       265.48
 1339.50        3348.50           6842          58.00       252.40
 1339.53        3348.75           6846          54.00       234.96
 1339.56        3349.00           6849          55.00       239.32
 1339.58        3349.25           6853          53.00       230.60
 1339.61        3349.50           6857          45.00       195.73
 1339.64        3349.75           6861          55.00       239.32
 1339.67        3350.00           6864          49.00       213.17
 1339.69        3350.25           6868          48.00       208.81
 1339.72        3350.50           6872          48.00       208.81
 1339.75        3350.75           6876          55.00       239.32
 1339.77        3351.00           6879          50.00       217.53
HL scan finished at 22:21:15
end
