************************************************************
  HL Scan of (1) Internal mercury lamp
************************************************************
Integration time is 0.2294 seconds per sample
dh310817Hanoi 21.021-105.808 3.555258pr1000
************************************************************
Dead Time -------------------------  3E-08 
Number of Cycles Used -------------  4 
Starting Wavelength (Angstroms) ---  3331 
Final Wavelength (Angstoms) -------  3351 
Wavelength Increment (Angstroms) --  .25 
Filter Wheel #1 Position ---------- (1) Ground quartz diffuser (ND=2.32)
Filter Wheel #2 Position ---------- 



************************************************************
HL scan start time = 22:16:53
Dark Count =  .2 


Time (GMT)  Wavelength (Ang)  Step Number  Raw Counts  Counts/Second

 1337.63        3331.00           6581          57.00       247.60
 1338.04        3331.25           6584          54.00       234.53
 1338.07        3331.50           6588          45.00       195.29
 1338.10        3331.75           6592          48.00       208.37
 1338.13        3332.00           6595          49.00       212.73
 1338.15        3332.25           6599          53.00       230.17
 1338.18        3332.50           6603          49.00       212.73
 1338.21        3332.75           6607          49.00       212.73
 1338.24        3333.00           6610          47.00       204.01
 1338.27        3333.25           6614          52.00       225.81
 1338.29        3333.50           6618          51.00       221.45
 1338.32        3333.75           6622          50.00       217.09
 1338.35        3334.00           6625          50.00       217.09
 1338.38        3334.25           6629          51.00       221.45
 1338.40        3334.50           6633          62.00       269.40
 1338.43        3334.75           6636          60.00       260.68
 1338.46        3335.00           6640          63.00       273.76
 1338.49        3335.25           6644          65.00       282.48
 1338.51        3335.50           6648          77.00       334.79
 1338.54        3335.75           6651          88.00       382.74
 1338.57        3336.00           6655          89.00       387.10
 1338.60        3336.25           6659         226.00       984.34
 1338.63        3336.50           6663        2073.00      9038.20
 1338.66        3336.75           6666        4139.00     18051.62
 1338.69        3337.00           6670        6675.00     29122.21
 1338.71        3337.25           6674        9098.00     39706.38
 1338.74        3337.50           6677       10992.00     47984.46
 1338.77        3337.75           6681       14030.00     61271.20
 1338.80        3338.00           6685       16628.00     72642.01
 1338.82        3338.25           6689       19290.00     84300.99
 1338.85        3338.50           6692       21513.00     94043.51
 1338.88        3338.75           6696       24159.00    105647.30
 1338.91        3339.00           6700       27164.00    118835.30
 1338.94        3339.25           6704       30243.00    132358.90
 1338.96        3339.50           6707       32063.00    140357.90
 1338.99        3339.75           6711       34819.00    152477.90
 1339.02        3340.00           6715       37726.00    165271.60
 1339.05        3340.25           6719       40387.00    176991.40
 1339.08        3340.50           6722       42023.00    184200.80
 1339.11        3340.75           6726       44634.00    195713.30
 1339.14        3341.00           6730       47045.00    206351.10
 1339.17        3341.25           6733       48378.00    212235.40
 1339.20        3341.50           6737       48682.00    213577.70
 1339.22        3341.75           6741       48460.00    212597.50
 1339.25        3342.00           6745       47428.00    208041.60
 1339.28        3342.25           6748       45644.00    200168.80
 1339.31        3342.50           6752       43176.00    189283.70
 1339.34        3342.75           6756       40532.00    177630.20
 1339.36        3343.00           6760       37932.00    166178.60
 1339.39        3343.25           6763       36202.00    158563.30
 1339.42        3343.50           6767       33241.00    145537.30
 1339.45        3343.75           6771       30680.00    134279.20
 1339.47        3344.00           6775       27783.00    121553.20
 1339.50        3344.25           6778       25625.00    112079.80
 1339.53        3344.50           6782       22526.00     98484.98
 1339.56        3344.75           6786       19834.00     86684.60
 1339.59        3345.00           6790       16826.00     73508.93
 1339.61        3345.25           6793       14748.00     64412.93
 1339.64        3345.50           6797       11961.00     52221.24
 1339.67        3345.75           6801        9605.00     41921.92
 1339.70        3346.00           6805        6775.00     29558.89
 1339.73        3346.25           6808        4842.00     21119.74
 1339.75        3346.50           6812        2150.00      9374.04
 1339.78        3346.75           6816         435.00      1895.49
 1339.81        3347.00           6819         142.00       618.15
 1339.84        3347.25           6823          87.00       378.38
 1339.86        3347.50           6827          75.00       326.07
 1339.89        3347.75           6831          72.00       312.99
 1339.92        3348.00           6834          64.00       278.12
 1339.95        3348.25           6838          67.00       291.20
 1339.98        3348.50           6842          63.00       273.76
 1340.01        3348.75           6846          67.00       291.20
 1340.04        3349.00           6849          61.00       265.04
 1340.06        3349.25           6853          56.00       243.25
 1340.09        3349.50           6857          48.00       208.37
 1340.12        3349.75           6861          56.00       243.25
 1340.15        3350.00           6864          49.00       212.73
 1340.17        3350.25           6868          55.00       238.89
 1340.20        3350.50           6872          50.00       217.09
 1340.23        3350.75           6876          55.00       238.89
 1340.26        3351.00           6879          52.00       225.81
HL scan finished at 22:21:44
end
