************************************************************
  HL Scan of (1) Internal mercury lamp
************************************************************
Integration time is 0.2294 seconds per sample
dh290817Hanoi 21.021-105.808 3.340665pr1000
************************************************************
Dead Time -------------------------  3E-08 
Number of Cycles Used -------------  4 
Starting Wavelength (Angstroms) ---  3331 
Final Wavelength (Angstoms) -------  3351 
Wavelength Increment (Angstroms) --  .25 
Filter Wheel #1 Position ---------- (1) Ground quartz diffuser (ND=2.32)
Filter Wheel #2 Position ---------- 



************************************************************
HL scan start time = 22:16:01
Dark Count =  .1 


Time (GMT)  Wavelength (Ang)  Step Number  Raw Counts  Counts/Second

 1336.77        3331.00           6581          43.00       187.01
 1337.18        3331.25           6584          49.00       213.17
 1337.21        3331.50           6588          51.00       221.88
 1337.24        3331.75           6592          54.00       234.96
 1337.26        3332.00           6595          51.00       221.88
 1337.29        3332.25           6599          53.00       230.60
 1337.32        3332.50           6603          49.00       213.17
 1337.35        3332.75           6607          50.00       217.53
 1337.37        3333.00           6610          52.00       226.24
 1337.40        3333.25           6614          51.00       221.88
 1337.43        3333.50           6618          51.00       221.88
 1337.46        3333.75           6622          45.00       195.73
 1337.48        3334.00           6625          48.00       208.81
 1337.51        3334.25           6629          51.00       221.88
 1337.54        3334.50           6633          55.00       239.32
 1337.57        3334.75           6636          50.00       217.53
 1337.59        3335.00           6640          61.00       265.48
 1337.62        3335.25           6644          58.00       252.40
 1337.65        3335.50           6648          68.00       295.99
 1337.68        3335.75           6651          80.00       348.30
 1337.70        3336.00           6655          82.00       357.02
 1337.73        3336.25           6659         214.00       932.46
 1337.76        3336.50           6663        1701.00      7416.21
 1337.79        3336.75           6666        3480.00     15176.48
 1337.81        3337.00           6670        5726.00     24979.05
 1337.84        3337.25           6674        8122.00     35442.63
 1337.87        3337.50           6677       10082.00     44007.06
 1337.90        3337.75           6681       12662.00     55287.36
 1337.93        3338.00           6685       14840.00     64815.97
 1337.95        3338.25           6689       17535.00     76614.00
 1337.98        3338.50           6692       19379.00     84691.36
 1338.01        3338.75           6696       22114.00     96678.86
 1338.03        3339.00           6700       25055.00    109578.90
 1338.06        3339.25           6704       27432.00    120012.40
 1338.09        3339.50           6707       29300.00    128216.30
 1338.12        3339.75           6711       31866.00    139492.30
 1338.15        3340.00           6715       34109.00    149355.20
 1338.17        3340.25           6719       36513.00    159932.50
 1338.20        3340.50           6722       38270.00    167667.30
 1338.23        3340.75           6726       40411.00    177097.50
 1338.26        3341.00           6730       42656.00    186991.60
 1338.28        3341.25           6733       43832.00    192176.70
 1338.31        3341.50           6737       44259.00    194059.80
 1338.34        3341.75           6741       44252.00    194028.90
 1338.37        3342.00           6745       43278.00    189733.80
 1338.39        3342.25           6748       42004.00    184117.50
 1338.42        3342.50           6752       39607.00    173555.60
 1338.45        3342.75           6756       37016.00    162146.50
 1338.48        3343.00           6760       34824.00    152500.40
 1338.51        3343.25           6763       33045.00    144675.80
 1338.53        3343.50           6767       30410.00    133093.10
 1338.56        3343.75           6771       27808.00    121663.40
 1338.59        3344.00           6775       25345.00    110851.50
 1338.62        3344.25           6778       23244.00    101634.20
 1338.64        3344.50           6782       20634.00     90190.96
 1338.67        3344.75           6786       18027.00     78768.75
 1338.70        3345.00           6790       15271.00     66702.22
 1338.73        3345.25           6793       13595.00     59368.51
 1338.75        3345.50           6797       11248.00     49104.11
 1338.78        3345.75           6801        8923.00     38942.16
 1338.81        3346.00           6805        6346.00     27686.02
 1338.84        3346.25           6808        4259.00     18575.74
 1338.86        3346.50           6812        1765.00      7695.33
 1338.89        3346.75           6816         371.00      1616.91
 1338.92        3347.00           6819         140.00       609.86
 1338.95        3347.25           6823          81.00       352.66
 1338.97        3347.50           6827          69.00       300.35
 1339.00        3347.75           6831          72.00       313.43
 1339.03        3348.00           6834          65.00       282.91
 1339.06        3348.25           6838          54.00       234.96
 1339.09        3348.50           6842          53.00       230.60
 1339.12        3348.75           6846          53.00       230.60
 1339.14        3349.00           6849          56.00       243.68
 1339.17        3349.25           6853          60.00       261.12
 1339.20        3349.50           6857          50.00       217.53
 1339.23        3349.75           6861          52.00       226.24
 1339.25        3350.00           6864          51.00       221.88
 1339.28        3350.25           6868          52.00       226.24
 1339.31        3350.50           6872          48.00       208.81
 1339.34        3350.75           6876          58.00       252.40
 1339.37        3351.00           6879          58.00       252.40
HL scan finished at 22:20:51
end
