************************************************************
  HL Scan of (1) Internal mercury lamp
************************************************************
Integration time is 0.2294 seconds per sample
dh181017Izana 28.3081 16.4992 2.428648pr770
************************************************************
Dead Time -------------------------  3E-08 
Number of Cycles Used -------------  4 
Starting Wavelength (Angstroms) ---  3331 
Final Wavelength (Angstoms) -------  3351 
Wavelength Increment (Angstroms) --  .25 
Filter Wheel #1 Position ---------- (1) Ground quartz diffuser (ND=2.32)
Filter Wheel #2 Position ---------- 



************************************************************
HL scan start time = 20:50:32
Dark Count =  .1 


Time (GMT)  Wavelength (Ang)  Step Number  Raw Counts  Counts/Second

 1251.30        3331.00           6581          44.00       191.37
 1251.72        3331.25           6584          39.00       169.57
 1251.75        3331.50           6588          39.00       169.57
 1251.77        3331.75           6592          38.00       165.21
 1251.80        3332.00           6595          40.00       173.93
 1251.83        3332.25           6599          38.00       165.21
 1251.86        3332.50           6603          38.00       165.21
 1251.89        3332.75           6607          42.00       182.65
 1251.91        3333.00           6610          41.00       178.29
 1251.94        3333.25           6614          37.00       160.86
 1251.97        3333.50           6618          39.00       169.57
 1252.00        3333.75           6622          35.00       152.14
 1252.02        3334.00           6625          44.00       191.37
 1252.05        3334.25           6629          41.00       178.29
 1252.09        3334.50           6633          37.00       160.86
 1252.12        3334.75           6636          41.00       178.29
 1252.14        3335.00           6640          47.00       204.45
 1252.17        3335.25           6644          49.00       213.17
 1252.20        3335.50           6648          49.00       213.17
 1252.23        3335.75           6651          60.00       261.12
 1252.26        3336.00           6655          66.00       287.27
 1252.29        3336.25           6659         319.00      1390.21
 1252.32        3336.50           6663        1317.00      5741.62
 1252.35        3336.75           6666        2217.00      9666.71
 1252.37        3337.00           6670        3312.00     14443.49
 1252.40        3337.25           6674        4505.00     19649.33
 1252.43        3337.50           6677        5294.00     23093.15
 1252.46        3337.75           6681        6810.00     29712.18
 1252.49        3338.00           6685        8288.00     36167.82
 1252.51        3338.25           6689        9602.00     41909.24
 1252.54        3338.50           6692       10394.00     45370.79
 1252.57        3338.75           6696       11726.00     51194.09
 1252.60        3339.00           6700       13004.00     56783.23
 1252.62        3339.25           6704       14408.00     62925.57
 1252.65        3339.50           6707       15102.00     65962.57
 1252.68        3339.75           6711       16457.00     71893.78
 1252.71        3340.00           6715       17682.00     77257.76
 1252.74        3340.25           6719       18833.00     82299.29
 1252.76        3340.50           6722       19894.00     86947.96
 1252.80        3340.75           6726       21381.00     93465.28
 1252.83        3341.00           6730       22309.00     97533.88
 1252.86        3341.25           6733       22791.00     99647.49
 1252.88        3341.50           6737       22725.00     99358.07
 1252.91        3341.75           6741       22692.00     99213.34
 1252.94        3342.00           6745       22085.00     96551.71
 1252.97        3342.25           6748       21267.00     92965.55
 1253.00        3342.50           6752       19883.00     86899.76
 1253.02        3342.75           6756       18554.00     81077.10
 1253.05        3343.00           6760       17319.00     75668.09
 1253.08        3343.25           6763       16392.00     71609.21
 1253.11        3343.50           6767       15186.00     66330.21
 1253.13        3343.75           6771       13926.00     60816.62
 1253.16        3344.00           6775       12549.00     54793.14
 1253.19        3344.25           6778       11583.00     50568.82
 1253.22        3344.50           6782       10297.00     44946.80
 1253.25        3344.75           6786        9103.00     39728.67
 1253.28        3345.00           6790        7767.00     33891.90
 1253.31        3345.25           6793        6725.00     29340.99
 1253.34        3345.50           6797        5229.00     22809.41
 1253.37        3345.75           6801        3945.00     17205.48
 1253.39        3346.00           6805        2641.00     11516.19
 1253.42        3346.25           6808        1681.00      7328.99
 1253.45        3346.50           6812         455.00      1983.12
 1253.49        3346.75           6816         108.00       470.36
 1253.52        3347.00           6819          64.00       278.56
 1253.55        3347.25           6823          50.00       217.53
 1253.58        3347.50           6827          48.00       208.81
 1253.61        3347.75           6831          52.00       226.24
 1253.64        3348.00           6834          43.00       187.01
 1253.67        3348.25           6838          50.00       217.53
 1253.69        3348.50           6842          49.00       213.17
 1253.72        3348.75           6846          44.00       191.37
 1253.75        3349.00           6849          39.00       169.57
 1253.78        3349.25           6853          41.00       178.29
 1253.80        3349.50           6857          42.00       182.65
 1253.83        3349.75           6861          33.00       143.42
 1253.86        3350.00           6864          43.00       187.01
 1253.89        3350.25           6868          44.00       191.37
 1253.92        3350.50           6872          40.00       173.93
 1253.95        3350.75           6876          41.00       178.29
 1253.98        3351.00           6879          41.00       178.29
HL scan finished at 20:55:28
end
************************************************************
  HL Scan of (1) Internal mercury lamp
************************************************************
Integration time is 0.2294 seconds per sample
dh181017Izana 28.3081 16.4992 2.428648pr770
************************************************************
Dead Time -------------------------  3E-08 
Number of Cycles Used -------------  4 
Starting Wavelength (Angstroms) ---  3331 
Final Wavelength (Angstoms) -------  3351 
Wavelength Increment (Angstroms) --  .25 
Filter Wheel #1 Position ---------- (1) Ground quartz diffuser (ND=2.32)
Filter Wheel #2 Position ---------- 



************************************************************
HL scan start time = 21:38:08
Dark Count =  .2 


Time (GMT)  Wavelength (Ang)  Step Number  Raw Counts  Counts/Second

 1298.90        3331.00           6581          42.00       182.22
 1299.31        3331.25           6584          41.00       177.86
 1299.34        3331.50           6588          44.00       190.93
 1299.36        3331.75           6592          37.00       160.42
 1299.39        3332.00           6595          45.00       195.29
 1299.42        3332.25           6599          44.00       190.93
 1299.45        3332.50           6603          42.00       182.22
 1299.47        3332.75           6607          43.00       186.57
 1299.50        3333.00           6610          42.00       182.22
 1299.53        3333.25           6614          44.00       190.93
 1299.56        3333.50           6618          43.00       186.57
 1299.58        3333.75           6622          40.00       173.50
 1299.61        3334.00           6625          41.00       177.86
 1299.64        3334.25           6629          42.00       182.22
 1299.67        3334.50           6633          49.00       212.73
 1299.70        3334.75           6636          52.00       225.81
 1299.73        3335.00           6640          45.00       195.29
 1299.76        3335.25           6644          51.00       221.45
 1299.78        3335.50           6648          55.00       238.89
 1299.81        3335.75           6651          61.00       265.04
 1299.84        3336.00           6655          63.00       273.76
 1299.87        3336.25           6659         206.00       897.15
 1299.89        3336.50           6663        1262.00      5501.34
 1299.92        3336.75           6666        2349.00     10242.03
 1299.95        3337.00           6670        3641.00     15878.53
 1299.98        3337.25           6674        4868.00     21233.22
 1300.01        3337.50           6677        5799.00     25297.31
 1300.06        3337.75           6681        7350.00     32070.08
 1300.09        3338.00           6685        8836.00     38561.59
 1300.13        3338.25           6689       10168.00     44382.51
 1300.17        3338.50           6692       11022.00     48115.61
 1300.21        3338.75           6696       12423.00     54241.64
 1300.24        3339.00           6700       13862.00     60536.17
 1300.28        3339.25           6704       15358.00     67082.56
 1300.32        3339.50           6707       16403.00     71656.93
 1300.35        3339.75           6711       17638.00     77064.63
 1300.39        3340.00           6715       19009.00     83069.88
 1300.43        3340.25           6719       20585.00     89975.78
 1300.46        3340.50           6722       21556.00     94232.02
 1300.49        3340.75           6726       22670.00     99116.44
 1300.52        3341.00           6730       23744.00    103826.80
 1300.54        3341.25           6733       24257.00    106077.20
 1300.58        3341.50           6737       24199.00    105822.80
 1300.61        3341.75           6741       24217.00    105901.70
 1300.64        3342.00           6745       23424.00    102423.20
 1300.67        3342.25           6748       22539.00     98541.99
 1300.69        3342.50           6752       21182.00     92592.51
 1300.72        3342.75           6756       19817.00     86610.10
 1300.75        3343.00           6760       18494.00     80813.83
 1300.78        3343.25           6763       17625.00     77007.71
 1300.80        3343.50           6767       16349.00     71420.53
 1300.83        3343.75           6771       15154.00     66189.72
 1300.87        3344.00           6775       13563.00     59228.07
 1300.90        3344.25           6778       12322.00     53799.93
 1300.93        3344.50           6782       10760.00     46970.24
 1300.95        3344.75           6786        9462.00     41296.99
 1300.98        3345.00           6790        8024.00     35014.09
 1301.01        3345.25           6793        6944.00     30296.93
 1301.04        3345.50           6797        5561.00     24258.27
 1301.07        3345.75           6801        4315.00     18819.69
 1301.10        3346.00           6805        2960.00     12907.35
 1301.13        3346.25           6808        1963.00      8558.43
 1301.16        3346.50           6812         763.00      3325.53
 1301.19        3346.75           6816         145.00       631.22
 1301.21        3347.00           6819          60.00       260.68
 1301.24        3347.25           6823          57.00       247.60
 1301.27        3347.50           6827          59.00       256.32
 1301.30        3347.75           6831          47.00       204.01
 1301.32        3348.00           6834          50.00       217.09
 1301.35        3348.25           6838          48.00       208.37
 1301.38        3348.50           6842          49.00       212.73
 1301.41        3348.75           6846          42.00       182.22
 1301.43        3349.00           6849          38.00       164.78
 1301.46        3349.25           6853          44.00       190.93
 1301.49        3349.50           6857          43.00       186.57
 1301.52        3349.75           6861          42.00       182.22
 1301.55        3350.00           6864          40.00       173.50
 1301.57        3350.25           6868          40.00       173.50
 1301.60        3350.50           6872          38.00       164.78
 1301.63        3350.75           6876          44.00       190.93
 1301.66        3351.00           6879          36.00       156.06
HL scan finished at 21:43:08
end
