************************************************************
  HL Scan of (1) Internal mercury lamp
************************************************************
Integration time is 0.2294 seconds per sample
dh191017Izana 28.3081 16.4992 2.535944pr770
************************************************************
Dead Time -------------------------  3E-08 
Number of Cycles Used -------------  4 
Starting Wavelength (Angstroms) ---  3331 
Final Wavelength (Angstoms) -------  3351 
Wavelength Increment (Angstroms) --  .25 
Filter Wheel #1 Position ---------- (1) Ground quartz diffuser (ND=2.32)
Filter Wheel #2 Position ---------- 



************************************************************
HL scan start time = 01:00:19
Dark Count =  .1 


Time (GMT)  Wavelength (Ang)  Step Number  Raw Counts  Counts/Second

   61.08        3331.00           6581          46.00       200.09
   61.49        3331.25           6584          39.00       169.57
   61.52        3331.50           6588          43.00       187.01
   61.55        3331.75           6592          46.00       200.09
   61.58        3332.00           6595          45.00       195.73
   61.60        3332.25           6599          40.00       173.93
   61.63        3332.50           6603          47.00       204.45
   61.66        3332.75           6607          40.00       173.93
   61.69        3333.00           6610          45.00       195.73
   61.72        3333.25           6614          39.00       169.57
   61.75        3333.50           6618          48.00       208.81
   61.77        3333.75           6622          41.00       178.29
   61.80        3334.00           6625          46.00       200.09
   61.83        3334.25           6629          47.00       204.45
   61.86        3334.50           6633          49.00       213.17
   61.88        3334.75           6636          42.00       182.65
   61.91        3335.00           6640          43.00       187.01
   61.94        3335.25           6644          51.00       221.88
   61.97        3335.50           6648          56.00       243.68
   61.99        3335.75           6651          56.00       243.68
   62.02        3336.00           6655          69.00       300.35
   62.05        3336.25           6659         180.00       784.24
   62.08        3336.50           6663        1212.00      5283.75
   62.10        3336.75           6666        2290.00      9985.12
   62.13        3337.00           6670        3783.00     16498.57
   62.16        3337.25           6674        5475.00     23883.28
   62.19        3337.50           6677        6738.00     29397.76
   62.21        3337.75           6681        8600.00     37530.90
   62.24        3338.00           6685       10424.00     45501.92
   62.27        3338.25           6689       12123.00     52930.11
   62.30        3338.50           6692       13462.00     58786.67
   62.33        3338.75           6696       15203.00     66404.61
   62.36        3339.00           6700       16645.00     72716.88
   62.39        3339.25           6704       18273.00     79846.22
   62.41        3339.50           6707       19442.00     84967.40
   62.44        3339.75           6711       21066.00     92084.47
   62.47        3340.00           6715       22830.00     99818.52
   62.50        3340.25           6719       24559.00    107402.60
   62.52        3340.50           6722       25717.00    112484.00
   62.55        3340.75           6726       27211.00    119042.10
   62.58        3341.00           6730       28594.00    125115.20
   62.61        3341.25           6733       29293.00    128185.60
   62.64        3341.50           6737       29306.00    128242.70
   62.67        3341.75           6741       29326.00    128330.50
   62.70        3342.00           6745       28749.00    125796.00
   62.73        3342.25           6748       27608.00    120785.20
   62.75        3342.50           6752       25889.00    113238.90
   62.78        3342.75           6756       24242.00    106011.90
   62.81        3343.00           6760       22406.00     97959.21
   62.84        3343.25           6763       21194.00     92645.54
   62.87        3343.50           6767       19640.00     85834.96
   62.89        3343.75           6771       17836.00     77932.21
   62.92        3344.00           6775       16247.00     70974.41
   62.95        3344.25           6778       14861.00     64907.89
   62.98        3344.50           6782       13419.00     58598.57
   63.01        3344.75           6786       11753.00     51312.15
   63.03        3345.00           6790       10065.00     43932.76
   63.06        3345.25           6793        8769.00     38269.29
   63.09        3345.50           6797        6934.00     30253.69
   63.12        3345.75           6801        5341.00     23298.32
   63.14        3346.00           6805        3721.00     16228.04
   63.17        3346.25           6808        2621.00     11428.94
   63.20        3346.50           6812        1011.00      4407.30
   63.23        3346.75           6816         227.00       989.13
   63.25        3347.00           6819          95.00       413.69
   63.28        3347.25           6823          66.00       287.27
   63.31        3347.50           6827          67.00       291.63
   63.34        3347.75           6831          58.00       252.40
   63.37        3348.00           6834          50.00       217.53
   63.39        3348.25           6838          48.00       208.81
   63.42        3348.50           6842          43.00       187.01
   63.45        3348.75           6846          42.00       182.65
   63.48        3349.00           6849          42.00       182.65
   63.50        3349.25           6853          49.00       213.17
   63.53        3349.50           6857          44.00       191.37
   63.56        3349.75           6861          33.00       143.42
   63.59        3350.00           6864          46.00       200.09
   63.61        3350.25           6868          38.00       165.21
   63.64        3350.50           6872          41.00       178.29
   63.67        3350.75           6876          45.00       195.73
   63.70        3351.00           6879          46.00       200.09
HL scan finished at 01:05:10
end
************************************************************
  HL Scan of (1) Internal mercury lamp
************************************************************
Integration time is 0.2294 seconds per sample
dh191017Izana 28.3081 16.4992 2.482296pr770
************************************************************
Dead Time -------------------------  3E-08 
Number of Cycles Used -------------  4 
Starting Wavelength (Angstroms) ---  3331 
Final Wavelength (Angstoms) -------  3351 
Wavelength Increment (Angstroms) --  .25 
Filter Wheel #1 Position ---------- (1) Ground quartz diffuser (ND=2.32)
Filter Wheel #2 Position ---------- 



************************************************************
HL scan start time = 04:30:28
Dark Count =  .1 


Time (GMT)  Wavelength (Ang)  Step Number  Raw Counts  Counts/Second

  271.23        3331.00           6581          42.00       182.65
  271.64        3331.25           6584          43.00       187.01
  271.67        3331.50           6588          44.00       191.37
  271.70        3331.75           6592          44.00       191.37
  271.72        3332.00           6595          45.00       195.73
  271.75        3332.25           6599          45.00       195.73
  271.78        3332.50           6603          49.00       213.17
  271.81        3332.75           6607          46.00       200.09
  271.84        3333.00           6610          49.00       213.17
  271.87        3333.25           6614          46.00       200.09
  271.90        3333.50           6618          53.00       230.60
  271.93        3333.75           6622          40.00       173.93
  271.95        3334.00           6625          44.00       191.37
  271.98        3334.25           6629          51.00       221.88
  272.01        3334.50           6633          50.00       217.53
  272.05        3334.75           6636          45.00       195.73
  272.08        3335.00           6640          48.00       208.81
  272.10        3335.25           6644          54.00       234.96
  272.13        3335.50           6648          55.00       239.32
  272.16        3335.75           6651          62.00       269.84
  272.19        3336.00           6655          68.00       295.99
  272.21        3336.25           6659         431.00      1878.48
  272.24        3336.50           6663        1676.00      7307.18
  272.27        3336.75           6666        2928.00     12768.19
  272.30        3337.00           6670        4551.00     19850.09
  272.32        3337.25           6674        6167.00     26904.44
  272.35        3337.50           6677        7293.00     31821.56
  272.39        3337.75           6681        8821.00     38496.49
  272.42        3338.00           6685       10386.00     45335.82
  272.44        3338.25           6689       12235.00     53419.90
  272.47        3338.50           6692       13487.00     58896.05
  272.50        3338.75           6696       15289.00     66781.00
  272.53        3339.00           6700       16939.00     74004.13
  272.56        3339.25           6704       18493.00     80809.88
  272.59        3339.50           6707       19749.00     86312.57
  272.62        3339.75           6711       21424.00     93653.79
  272.64        3340.00           6715       23013.00    100621.10
  272.67        3340.25           6719       24348.00    106476.90
  272.70        3340.50           6722       25728.00    112532.30
  272.73        3340.75           6726       27268.00    119292.40
  272.76        3341.00           6730       28818.00    126099.10
  272.79        3341.25           6733       29165.00    127623.30
  272.82        3341.50           6737       29217.00    127851.70
  272.84        3341.75           6741       29079.00    127245.50
  272.87        3342.00           6745       28003.00    122519.70
  272.90        3342.25           6748       26778.00    117141.10
  272.93        3342.50           6752       25098.00    109767.60
  272.95        3342.75           6756       23734.00    103783.40
  272.98        3343.00           6760       22256.00     97301.49
  273.01        3343.25           6763       21040.00     91970.50
  273.04        3343.50           6767       19345.00     84542.41
  273.07        3343.75           6771       17522.00     76557.06
  273.09        3344.00           6775       15954.00     69691.77
  273.12        3344.25           6778       14563.00     63603.82
  273.15        3344.50           6782       12910.00     56372.07
  273.18        3344.75           6786       11199.00     48889.88
  273.20        3345.00           6790        9604.00     41917.99
  273.23        3345.25           6793        8529.00     37220.70
  273.26        3345.50           6797        6930.00     30236.22
  273.29        3345.75           6801        5163.00     22521.32
  273.32        3346.00           6805        3430.00     14958.32
  273.34        3346.25           6808        2005.00      8742.05
  273.37        3346.50           6812         557.00      2427.81
  273.40        3346.75           6816         137.00       596.78
  273.43        3347.00           6819          84.00       365.74
  273.46        3347.25           6823          55.00       239.32
  273.49        3347.50           6827          61.00       265.48
  273.51        3347.75           6831          56.00       243.68
  273.54        3348.00           6834          48.00       208.81
  273.57        3348.25           6838          43.00       187.01
  273.59        3348.50           6842          49.00       213.17
  273.62        3348.75           6846          54.00       234.96
  273.65        3349.00           6849          45.00       195.73
  273.68        3349.25           6853          44.00       191.37
  273.71        3349.50           6857          40.00       173.93
  273.73        3349.75           6861          48.00       208.81
  273.76        3350.00           6864          46.00       200.09
  273.79        3350.25           6868          43.00       187.01
  273.82        3350.50           6872          41.00       178.29
  273.84        3350.75           6876          44.00       191.37
  273.87        3351.00           6879          45.00       195.73
HL scan finished at 04:35:21
end
