************************************************************
  HL Scan of (1) Internal mercury lamp
************************************************************
Integration time is 0.2294 seconds per sample
dh171017Izana 28.3081 16.4992 2.589593pr770
************************************************************
Dead Time -------------------------  3E-08 
Number of Cycles Used -------------  4 
Starting Wavelength (Angstroms) ---  3331 
Final Wavelength (Angstoms) -------  3351 
Wavelength Increment (Angstroms) --  .25 
Filter Wheel #1 Position ---------- (1) Ground quartz diffuser (ND=2.32)
Filter Wheel #2 Position ---------- 



************************************************************
HL scan start time = 22:18:13
Dark Count =  .1 


Time (GMT)  Wavelength (Ang)  Step Number  Raw Counts  Counts/Second

 1338.98        3331.00           6581          43.00       187.01
 1339.39        3331.25           6584          51.00       221.88
 1339.42        3331.50           6588          47.00       204.45
 1339.45        3331.75           6592          50.00       217.53
 1339.48        3332.00           6595          44.00       191.37
 1339.51        3332.25           6599          42.00       182.65
 1339.53        3332.50           6603          50.00       217.53
 1339.56        3332.75           6607          43.00       187.01
 1339.59        3333.00           6610          41.00       178.29
 1339.62        3333.25           6614          50.00       217.53
 1339.64        3333.50           6618          50.00       217.53
 1339.67        3333.75           6622          49.00       213.17
 1339.70        3334.00           6625          46.00       200.09
 1339.73        3334.25           6629          54.00       234.96
 1339.75        3334.50           6633          50.00       217.53
 1339.78        3334.75           6636          60.00       261.12
 1339.81        3335.00           6640          59.00       256.76
 1339.84        3335.25           6644          62.00       269.84
 1339.86        3335.50           6648          64.00       278.56
 1339.89        3335.75           6651          75.00       326.51
 1339.92        3336.00           6655          87.00       378.82
 1339.95        3336.25           6659         345.00      1503.56
 1339.97        3336.50           6663        1679.00      7320.26
 1340.00        3336.75           6666        3157.00     13767.24
 1340.04        3337.00           6670        5238.00     22848.70
 1340.08        3337.25           6674        7221.00     31507.10
 1340.12        3337.50           6677        8631.00     37666.34
 1340.16        3337.75           6681       10844.00     47337.89
 1340.20        3338.00           6685       12729.00     55580.40
 1340.23        3338.25           6689       15121.00     66045.73
 1340.26        3338.50           6692       16793.00     73364.87
 1340.30        3338.75           6696       18722.00     81813.03
 1340.34        3339.00           6700       20774.00     90804.58
 1340.38        3339.25           6704       23075.00    100893.00
 1340.41        3339.50           6707       24446.00    106906.90
 1340.44        3339.75           6711       26298.00    115034.10
 1340.47        3340.00           6715       28044.00    122699.70
 1340.50        3340.25           6719       29806.00    130439.30
 1340.53        3340.50           6722       31516.00    137953.80
 1340.56        3340.75           6726       33556.00    146923.00
 1340.59        3341.00           6730       35453.00    155267.80
 1340.63        3341.25           6733       35835.00    156948.70
 1340.66        3341.50           6737       35934.00    157384.30
 1340.69        3341.75           6741       35722.00    156451.40
 1340.72        3342.00           6745       34569.00    151378.60
 1340.75        3342.25           6748       33331.00    145933.50
 1340.78        3342.50           6752       31462.00    137716.50
 1340.81        3342.75           6756       29523.00    129196.00
 1340.83        3343.00           6760       27382.00    119792.90
 1340.86        3343.25           6763       25702.00    112418.20
 1340.89        3343.50           6767       23567.00    103050.90
 1340.92        3343.75           6771       21683.00     94789.22
 1340.94        3344.00           6775       19589.00     85611.50
 1340.97        3344.25           6778       17807.00     77805.21
 1341.00        3344.50           6782       15692.00     68544.91
 1341.03        3344.75           6786       13735.00     59980.99
 1341.05        3345.00           6790       11900.00     51954.94
 1341.08        3345.25           6793       10478.00     45737.96
 1341.11        3345.50           6797        8375.00     36547.90
 1341.15        3345.75           6801        6317.00     27559.39
 1341.18        3346.00           6805        4148.00     18091.33
 1341.20        3346.25           6808        2552.00     11127.95
 1341.23        3346.50           6812         903.00      3936.38
 1341.26        3346.75           6816         212.00       923.74
 1341.29        3347.00           6819          98.00       426.77
 1341.31        3347.25           6823          61.00       265.48
 1341.34        3347.50           6827          64.00       278.56
 1341.37        3347.75           6831          57.00       248.04
 1341.40        3348.00           6834          55.00       239.32
 1341.42        3348.25           6838          50.00       217.53
 1341.45        3348.50           6842          48.00       208.81
 1341.48        3348.75           6846          54.00       234.96
 1341.51        3349.00           6849          50.00       217.53
 1341.53        3349.25           6853          49.00       213.17
 1341.56        3349.50           6857          48.00       208.81
 1341.59        3349.75           6861          52.00       226.24
 1341.62        3350.00           6864          46.00       200.09
 1341.64        3350.25           6868          54.00       234.96
 1341.67        3350.50           6872          47.00       204.45
 1341.70        3350.75           6876          46.00       200.09
 1341.73        3351.00           6879          49.00       213.17
HL scan finished at 22:23:12
end
