************************************************************
  HL Scan of (1) Internal mercury lamp
************************************************************
Integration time is 0.2294 seconds per sample
dh301018Senai 1.6385-103.6656 3.823498pr1000
************************************************************
Dead Time -------------------------  2.8E-08 
Number of Cycles Used -------------  4 
Starting Wavelength (Angstroms) ---  3331 
Final Wavelength (Angstoms) -------  3351 
Wavelength Increment (Angstroms) --  .25 
Filter Wheel #1 Position ---------- (1) Ground quartz diffuser (ND=2.32)
Filter Wheel #2 Position ---------- 



************************************************************
HL scan start time = 06:34:43
Dark Count =  1.2 


Time (GMT)  Wavelength (Ang)  Step Number  Raw Counts  Counts/Second

  395.48        3331.00           6582         108.00       465.57
  395.89        3331.25           6586         106.00       456.85
  395.92        3331.50           6589         108.00       465.57
  395.94        3331.75           6593         105.00       452.49
  395.97        3332.00           6597         105.00       452.49
  396.00        3332.25           6601          88.00       378.38
  396.03        3332.50           6604         111.00       478.65
  396.06        3332.75           6608         106.00       456.85
  396.08        3333.00           6612         108.00       465.57
  396.11        3333.25           6616         111.00       478.65
  396.14        3333.50           6619         108.00       465.57
  396.17        3333.75           6623          94.00       404.54
  396.20        3334.00           6627         105.00       452.49
  396.23        3334.25           6631         103.00       443.77
  396.25        3334.50           6634         102.00       439.41
  396.28        3334.75           6638         115.00       496.08
  396.31        3335.00           6642         107.00       461.21
  396.34        3335.25           6645         120.00       517.88
  396.37        3335.50           6649         123.00       530.96
  396.39        3335.75           6653         142.00       613.79
  396.42        3336.00           6657         188.00       814.32
  396.45        3336.25           6660         493.00      2143.98
  396.48        3336.50           6664        3030.00     13208.02
  396.51        3336.75           6668        6882.00     30019.99
  396.54        3337.00           6672       10458.00     45641.55
  396.56        3337.25           6675       12759.00     55700.58
  396.59        3337.50           6679       15955.00     69681.60
  396.62        3337.75           6683       19478.00     85105.80
  396.65        3338.00           6687       22794.00     99635.91
  396.68        3338.25           6690       25359.00    110883.40
  396.71        3338.50           6694       28487.00    124609.30
  396.73        3338.75           6698       31809.00    139198.00
  396.76        3339.00           6702       35177.00    154000.90
  396.79        3339.25           6705       37971.00    166290.40
  396.82        3339.50           6709       41680.00    182617.50
  396.85        3339.75           6713       44578.00    195385.10
  396.88        3340.00           6717       47867.00    209886.30
  396.90        3340.25           6720       50471.00    221375.80
  396.93        3340.50           6724       53763.00    235911.50
  396.96        3340.75           6728       56702.00    248898.60
  396.99        3341.00           6732       58946.00    258821.00
  397.02        3341.25           6735       59244.00    260139.00
  397.05        3341.50           6739       59148.00    259714.40
  397.07        3341.75           6743       59000.00    259059.80
  397.10        3342.00           6747       56065.00    246083.00
  397.13        3342.25           6750       53566.00    235041.40
  397.16        3342.50           6754       50738.00    222554.30
  397.19        3342.75           6758       47037.00    206225.80
  397.22        3343.00           6762       43400.00    190194.10
  397.24        3343.25           6765       41331.00    181080.60
  397.27        3343.50           6769       38431.00    168314.50
  397.30        3343.75           6773       35089.00    153614.00
  397.33        3344.00           6777       31827.00    139277.10
  397.36        3344.25           6780       28863.00    126259.90
  397.39        3344.50           6784       25204.00    110203.50
  397.41        3344.75           6788       21785.00     95213.40
  397.44        3345.00           6792       18553.00     81054.73
  397.47        3345.25           6795       16077.00     70215.51
  397.50        3345.50           6799       12737.00     55604.39
  397.53        3345.75           6803        9367.00     40874.13
  397.56        3346.00           6807        6298.00     27470.12
  397.58        3346.25           6810        3783.00     16493.23
  397.61        3346.50           6814        1149.00      5004.19
  397.64        3346.75           6818         269.00      1167.43
  397.67        3347.00           6822         163.00       705.33
  397.70        3347.25           6826         148.00       639.94
  397.73        3347.50           6829         140.00       605.07
  397.75        3347.75           6833         124.00       535.32
  397.78        3348.00           6837         120.00       517.88
  397.81        3348.25           6841         116.00       500.44
  397.84        3348.50           6844         122.00       526.60
  397.87        3348.75           6848         121.00       522.24
  397.89        3349.00           6852         112.00       483.01
  397.92        3349.25           6856         111.00       478.65
  397.95        3349.50           6859         122.00       526.60
  397.98        3349.75           6863         105.00       452.49
  398.01        3350.00           6867         112.00       483.01
  398.04        3350.25           6871         104.00       448.13
  398.06        3350.50           6874         115.00       496.08
  398.09        3350.75           6878         117.00       504.80
  398.12        3351.00           6882         115.00       496.08
HL scan finished at 06:39:36
end
************************************************************
  HL Scan of (1) Internal mercury lamp
************************************************************
Integration time is 0.2294 seconds per sample
dh301018Senai 1.6385-103.6656 3.50161pr1000
************************************************************
Dead Time -------------------------  2.8E-08 
Number of Cycles Used -------------  4 
Starting Wavelength (Angstroms) ---  3331 
Final Wavelength (Angstoms) -------  3351 
Wavelength Increment (Angstroms) --  .25 
Filter Wheel #1 Position ---------- (1) Ground quartz diffuser (ND=2.32)
Filter Wheel #2 Position ---------- 



************************************************************
HL scan start time = 11:45:24
Dark Count =  .5 


Time (GMT)  Wavelength (Ang)  Step Number  Raw Counts  Counts/Second

  706.17        3331.00           6582          48.00       207.06
  706.57        3331.25           6586          53.00       228.86
  706.60        3331.50           6589          58.00       250.66
  706.63        3331.75           6593          51.00       220.14
  706.66        3332.00           6597          54.00       233.22
  706.69        3332.25           6601          65.00       281.17
  706.72        3332.50           6604          55.00       237.58
  706.74        3332.75           6608          57.00       246.30
  706.77        3333.00           6612          47.00       202.70
  706.80        3333.25           6616          48.00       207.06
  706.83        3333.50           6619          55.00       237.58
  706.86        3333.75           6623          60.00       259.37
  706.89        3334.00           6627          53.00       228.86
  706.91        3334.25           6631          58.00       250.66
  706.94        3334.50           6634          47.00       202.70
  706.97        3334.75           6638          58.00       250.66
  707.00        3335.00           6642          62.00       268.09
  707.03        3335.25           6645          73.00       316.04
  707.06        3335.50           6649          73.00       316.04
  707.08        3335.75           6653          75.00       324.76
  707.11        3336.00           6657         122.00       529.65
  707.14        3336.25           6660         583.00      2539.41
  707.17        3336.50           6664        3049.00     13293.96
  707.20        3336.75           6668        5715.00     24928.03
  707.23        3337.00           6672        9051.00     39496.58
  707.25        3337.25           6675       11400.00     49761.97
  707.28        3337.50           6679       14564.00     63598.33
  707.31        3337.75           6683       18336.00     80107.56
  707.34        3338.00           6687       21614.00     94467.06
  707.37        3338.25           6690       23939.00    104658.90
  707.40        3338.50           6694       27239.00    119134.80
  707.43        3338.75           6698       30609.00    133929.80
  707.45        3339.00           6702       33518.00    146710.90
  707.48        3339.25           6705       35547.00    155631.00
  707.51        3339.50           6709       38430.00    168313.20
  707.54        3339.75           6713       41666.00    182559.00
  707.57        3340.00           6717       45099.00    197684.50
  707.60        3340.25           6720       47530.00    208403.10
  707.62        3340.50           6724       50794.00    222804.60
  707.65        3340.75           6728       53548.00    234964.90
  707.68        3341.00           6732       55135.00    241976.20
  707.71        3341.25           6735       55335.00    242859.90
  707.74        3341.50           6739       55570.00    243898.40
  707.77        3341.75           6743       55304.00    242722.90
  707.80        3342.00           6747       53089.00    232937.60
  707.83        3342.25           6750       50450.00    221286.20
  707.85        3342.50           6754       47355.00    207631.30
  707.88        3342.75           6758       44252.00    193951.50
  707.91        3343.00           6762       40784.00    178675.00
  707.94        3343.25           6765       38437.00    168344.00
  707.97        3343.50           6769       35421.00    155076.90
  708.00        3343.75           6773       32004.00    140057.80
  708.02        3344.00           6777       29189.00    127694.20
  708.05        3344.25           6780       26918.00    117726.10
  708.08        3344.50           6784       24012.00    104979.00
  708.11        3344.75           6788       20933.00     91482.94
  708.14        3345.00           6792       17275.00     75462.25
  708.17        3345.25           6795       14727.00     64311.43
  708.20        3345.50           6799       11503.00     50212.22
  708.22        3345.75           6803        8485.00     37023.98
  708.25        3346.00           6807        5569.00     24290.71
  708.28        3346.25           6810        3273.00     14271.18
  708.31        3346.50           6814         812.00      3537.84
  708.34        3346.75           6818         187.00       813.01
  708.37        3347.00           6822          93.00       403.23
  708.39        3347.25           6826          95.00       411.95
  708.42        3347.50           6829          85.00       368.36
  708.45        3347.75           6833          74.00       320.40
  708.48        3348.00           6837          82.00       355.28
  708.51        3348.25           6841          67.00       289.89
  708.54        3348.50           6844          55.00       237.58
  708.56        3348.75           6848          59.00       255.01
  708.59        3349.00           6852          54.00       233.22
  708.62        3349.25           6856          56.00       241.94
  708.65        3349.50           6859          59.00       255.01
  708.68        3349.75           6863          48.00       207.06
  708.70        3350.00           6867          54.00       233.22
  708.73        3350.25           6871          62.00       268.09
  708.76        3350.50           6874          56.00       241.94
  708.79        3350.75           6878          51.00       220.14
  708.82        3351.00           6882          51.00       220.14
HL scan finished at 11:50:18
end
