************************************************************
  HL Scan of (1) Internal mercury lamp
************************************************************
Integration time is 0.2294 seconds per sample
dh031118Kota Bharu 6.16371-102.3 3.340665pr1000
************************************************************
Dead Time -------------------------  2.8E-08 
Number of Cycles Used -------------  4 
Starting Wavelength (Angstroms) ---  3331 
Final Wavelength (Angstoms) -------  3351 
Wavelength Increment (Angstroms) --  .25 
Filter Wheel #1 Position ---------- (1) Ground quartz diffuser (ND=2.32)
Filter Wheel #2 Position ---------- 



************************************************************
HL scan start time = 22:49:18
Dark Count =  .3 


Time (GMT)  Wavelength (Ang)  Step Number  Raw Counts  Counts/Second

 1370.07        3331.00           6582          53.00       229.73
 1370.48        3331.25           6586          55.00       238.45
 1370.51        3331.50           6589          56.00       242.81
 1370.54        3331.75           6593          47.00       203.58
 1370.57        3332.00           6597          53.00       229.73
 1370.59        3332.25           6601          49.00       212.29
 1370.62        3332.50           6604          58.00       251.53
 1370.65        3332.75           6608          45.00       194.86
 1370.68        3333.00           6612          50.00       216.65
 1370.71        3333.25           6616          52.00       225.37
 1370.74        3333.50           6619          54.00       234.09
 1370.77        3333.75           6623          53.00       229.73
 1370.79        3334.00           6627          53.00       229.73
 1370.82        3334.25           6631          56.00       242.81
 1370.85        3334.50           6634          57.00       247.17
 1370.88        3334.75           6638          58.00       251.53
 1370.91        3335.00           6642          75.00       325.64
 1370.94        3335.25           6645          75.00       325.64
 1370.97        3335.50           6649          81.00       351.79
 1371.00        3335.75           6653          83.00       360.51
 1371.03        3336.00           6657         152.00       661.30
 1371.06        3336.25           6660         647.00      2819.32
 1371.08        3336.50           6664        3047.00     13286.11
 1371.11        3336.75           6668        6107.00     26640.18
 1371.14        3337.00           6672        9460.00     41284.41
 1371.17        3337.25           6675       12107.00     52853.67
 1371.20        3337.50           6679       15030.00     65637.96
 1371.23        3337.75           6683       18097.00     79061.93
 1371.26        3338.00           6687       21381.00     93446.89
 1371.29        3338.25           6690       23705.00    103633.80
 1371.31        3338.50           6694       26649.00    116546.70
 1371.34        3338.75           6698       29539.00    129231.80
 1371.37        3339.00           6702       32312.00    141411.90
 1371.40        3339.25           6705       34688.00    151854.90
 1371.43        3339.50           6709       37942.00    166166.70
 1371.46        3339.75           6713       41189.00    180459.30
 1371.49        3340.00           6717       44171.00    193595.40
 1371.52        3340.25           6720       46440.00    203597.20
 1371.55        3340.50           6724       48850.00    214226.70
 1371.57        3340.75           6728       51769.00    227109.70
 1371.60        3341.00           6732       53190.00    233384.60
 1371.63        3341.25           6735       53602.00    235204.30
 1371.66        3341.50           6739       53464.00    234594.80
 1371.69        3341.75           6743       52685.00    231154.30
 1371.72        3342.00           6747       50200.00    220183.70
 1371.75        3342.25           6750       47800.00    209594.80
 1371.78        3342.50           6754       45004.00    197266.60
 1371.80        3342.75           6758       42149.00    184687.10
 1371.83        3343.00           6762       38481.00    168538.50
 1371.86        3343.25           6765       36215.00    158569.50
 1371.89        3343.50           6769       33448.00    146404.10
 1371.92        3343.75           6773       30990.00    135604.10
 1371.95        3344.00           6777       27960.00    122300.00
 1371.98        3344.25           6780       25385.00    111001.40
 1372.01        3344.50           6784       22160.00     96860.86
 1372.04        3344.75           6788       18857.00     82389.93
 1372.07        3345.00           6792       15821.00     69099.13
 1372.09        3345.25           6795       13624.00     59487.41
 1372.12        3345.50           6799       10867.00     47433.06
 1372.15        3345.75           6803        7773.00     33914.93
 1372.18        3346.00           6807        4864.00     21214.43
 1372.21        3346.25           6810        2582.00     11257.69
 1372.24        3346.50           6814         661.00      2880.35
 1372.27        3346.75           6818         158.00       687.46
 1372.29        3347.00           6822          91.00       395.38
 1372.32        3347.25           6826          85.00       369.23
 1372.35        3347.50           6829          88.00       382.31
 1372.38        3347.75           6833          71.00       308.20
 1372.41        3348.00           6837          58.00       251.53
 1372.44        3348.25           6841          55.00       238.45
 1372.47        3348.50           6844          65.00       282.04
 1372.50        3348.75           6848          51.00       221.01
 1372.52        3349.00           6852          58.00       251.53
 1372.55        3349.25           6856          57.00       247.17
 1372.58        3349.50           6859          55.00       238.45
 1372.61        3349.75           6863          52.00       225.37
 1372.64        3350.00           6867          58.00       251.53
 1372.67        3350.25           6871          56.00       242.81
 1372.70        3350.50           6874          54.00       234.09
 1372.72        3350.75           6878          62.00       268.96
 1372.75        3351.00           6882          54.00       234.09
HL scan finished at 22:54:14
end
************************************************************
  HL Scan of (1) Internal mercury lamp
************************************************************
Integration time is 0.2294 seconds per sample
dh041118Kota Bharu 6.16371-102.3 3.555258pr1000
************************************************************
Dead Time -------------------------  2.8E-08 
Number of Cycles Used -------------  4 
Starting Wavelength (Angstroms) ---  3331 
Final Wavelength (Angstoms) -------  3351 
Wavelength Increment (Angstroms) --  .25 
Filter Wheel #1 Position ---------- (1) Ground quartz diffuser (ND=2.32)
Filter Wheel #2 Position ---------- 



************************************************************
HL scan start time = 11:43:48
Dark Count =  .6 


Time (GMT)  Wavelength (Ang)  Step Number  Raw Counts  Counts/Second

  704.56        3331.00           6582          58.00       250.22
  704.97        3331.25           6586          51.00       219.70
  705.00        3331.50           6589          59.00       254.58
  705.03        3331.75           6593          56.00       241.50
  705.06        3332.00           6597          54.00       232.78
  705.09        3332.25           6601          55.00       237.14
  705.11        3332.50           6604          55.00       237.14
  705.14        3332.75           6608          53.00       228.42
  705.17        3333.00           6612          59.00       254.58
  705.20        3333.25           6616          48.00       206.63
  705.23        3333.50           6619          64.00       276.38
  705.26        3333.75           6623          58.00       250.22
  705.28        3334.00           6627          59.00       254.58
  705.31        3334.25           6631          58.00       250.22
  705.34        3334.50           6634          60.00       258.94
  705.37        3334.75           6638          64.00       276.38
  705.40        3335.00           6642          70.00       302.53
  705.43        3335.25           6645          71.00       306.89
  705.45        3335.50           6649          76.00       328.69
  705.48        3335.75           6653          91.00       394.08
  705.51        3336.00           6657         168.00       729.74
  705.54        3336.25           6660         889.00      3873.13
  705.57        3336.50           6664        3317.00     14462.70
  705.60        3336.75           6668        6227.00     27162.76
  705.62        3337.00           6672        9567.00     41750.61
  705.65        3337.25           6675       12233.00     53403.25
  705.68        3337.50           6679       15074.00     65829.16
  705.71        3337.75           6683       17933.00     78342.54
  705.74        3338.00           6687       21529.00     94094.14
  705.76        3338.25           6690       24186.00    105741.60
  705.79        3338.50           6694       27686.00    121096.00
  705.82        3338.75           6698       31263.00    136802.00
  705.85        3339.00           6702       34234.00    149857.70
  705.88        3339.25           6705       36790.00    161097.30
  705.91        3339.50           6709       40027.00    175341.80
  705.94        3339.75           6713       43061.00    188703.20
  705.96        3340.00           6717       46155.00    202339.30
  705.99        3340.25           6720       48272.00    211675.50
  706.02        3340.50           6724       51226.00    224711.10
  706.05        3340.75           6728       54329.00    238414.50
  706.08        3341.00           6732       56599.00    248446.00
  706.11        3341.25           6735       56744.00    249086.90
  706.14        3341.50           6739       56906.00    249803.10
  706.16        3341.75           6743       56232.00    246823.70
  706.19        3342.00           6747       53735.00    235790.50
  706.22        3342.25           6750       51290.00    224993.60
  706.25        3342.50           6754       48269.00    211662.20
  706.28        3342.75           6758       45449.00    199226.80
  706.31        3343.00           6762       42333.00    185496.30
  706.34        3343.25           6765       39761.00    174170.80
  706.36        3343.50           6769       36619.00    160345.10
  706.39        3343.75           6773       33125.00    144983.20
  706.42        3344.00           6777       29896.00    130798.10
  706.45        3344.25           6780       27378.00    119744.30
  706.48        3344.50           6784       24043.00    105114.50
  706.51        3344.75           6788       20597.00     90010.35
  706.53        3345.00           6792       17560.00     76709.50
  706.56        3345.25           6795       15468.00     67553.12
  706.59        3345.50           6799       12146.00     53022.87
  706.62        3345.75           6803        9001.00     39277.70
  706.65        3346.00           6807        5562.00     24259.72
  706.68        3346.25           6810        3012.00     13132.12
  706.71        3346.50           6814         749.00      3262.72
  706.73        3346.75           6818         186.00       808.21
  706.76        3347.00           6822          94.00       407.15
  706.79        3347.25           6826          92.00       398.44
  706.82        3347.50           6829          81.00       350.48
  706.85        3347.75           6833          69.00       298.17
  706.88        3348.00           6837          72.00       311.25
  706.90        3348.25           6841          61.00       263.30
  706.93        3348.50           6844          59.00       254.58
  706.96        3348.75           6848          60.00       258.94
  706.99        3349.00           6852          55.00       237.14
  707.02        3349.25           6856          56.00       241.50
  707.04        3349.50           6859          59.00       254.58
  707.07        3349.75           6863          56.00       241.50
  707.10        3350.00           6867          60.00       258.94
  707.13        3350.25           6871          54.00       232.78
  707.16        3350.50           6874          58.00       250.22
  707.18        3350.75           6878          60.00       258.94
  707.21        3351.00           6882          54.00       232.78
HL scan finished at 11:48:42
end
