************************************************************
  HL Scan of (1) Internal mercury lamp
************************************************************
Integration time is 0.2294 seconds per sample
dh311018Senai 1.6385-103.6656 3.394313pr1000
************************************************************
Dead Time -------------------------  2.8E-08 
Number of Cycles Used -------------  4 
Starting Wavelength (Angstroms) ---  3331 
Final Wavelength (Angstoms) -------  3351 
Wavelength Increment (Angstroms) --  .25 
Filter Wheel #1 Position ---------- (1) Ground quartz diffuser (ND=2.32)
Filter Wheel #2 Position ---------- 



************************************************************
HL scan start time = 22:39:05
Dark Count =  .4 


Time (GMT)  Wavelength (Ang)  Step Number  Raw Counts  Counts/Second

 1359.85        3331.00           6582          54.00       233.65
 1360.25        3331.25           6586          51.00       220.58
 1360.28        3331.50           6589          53.00       229.30
 1360.31        3331.75           6593          52.00       224.94
 1360.34        3332.00           6597          44.00       190.06
 1360.37        3332.25           6601          51.00       220.58
 1360.40        3332.50           6604          60.00       259.81
 1360.42        3332.75           6608          52.00       224.94
 1360.45        3333.00           6612          45.00       194.42
 1360.48        3333.25           6616          53.00       229.30
 1360.51        3333.50           6619          59.00       255.45
 1360.54        3333.75           6623          56.00       242.37
 1360.56        3334.00           6627          58.00       251.09
 1360.59        3334.25           6631          54.00       233.65
 1360.62        3334.50           6634          55.00       238.01
 1360.65        3334.75           6638          59.00       255.45
 1360.68        3335.00           6642          64.00       277.25
 1360.71        3335.25           6645          72.00       312.12
 1360.74        3335.50           6649          79.00       342.64
 1360.76        3335.75           6653          87.00       377.51
 1360.79        3336.00           6657         130.00       564.96
 1360.82        3336.25           6660         671.00      2923.52
 1360.85        3336.50           6664        3297.00     14376.32
 1360.88        3336.75           6668        6223.00     27146.18
 1360.91        3337.00           6672        9527.00     41576.71
 1360.94        3337.25           6675       11869.00     51812.69
 1360.97        3337.50           6679       14697.00     64180.62
 1360.99        3337.75           6683       17412.00     76062.44
 1361.02        3338.00           6687       20303.00     88723.19
 1361.05        3338.25           6690       22696.00     99209.82
 1361.08        3338.50           6694       25770.00    112689.80
 1361.11        3338.75           6698       29386.00    128559.60
 1361.14        3339.00           6702       32386.00    141736.60
 1361.16        3339.25           6705       34606.00    151493.90
 1361.19        3339.50           6709       37192.00    162866.60
 1361.22        3339.75           6713       40282.00    176465.30
 1361.25        3340.00           6717       43540.00    190814.50
 1361.28        3340.25           6720       45751.00    200559.10
 1361.31        3340.50           6724       48409.00    212280.70
 1361.34        3340.75           6728       50952.00    223502.50
 1361.36        3341.00           6732       53277.00    233768.40
 1361.39        3341.25           6735       53924.00    236626.30
 1361.42        3341.50           6739       53966.00    236811.80
 1361.45        3341.75           6743       53435.00    234466.30
 1361.48        3342.00           6747       50913.00    223330.30
 1361.51        3342.25           6750       48248.00    211570.50
 1361.54        3342.50           6754       45652.00    200122.60
 1361.57        3342.75           6758       42930.00    188127.00
 1361.59        3343.00           6762       40200.00    176104.30
 1361.62        3343.25           6765       37898.00    165972.70
 1361.65        3343.50           6769       34588.00    151414.80
 1361.68        3343.75           6773       31347.00    137171.90
 1361.71        3344.00           6777       28444.00    124424.00
 1361.74        3344.25           6780       25919.00    113343.50
 1361.77        3344.50           6784       22913.00    100161.10
 1361.79        3344.75           6788       19978.00     87299.44
 1361.82        3345.00           6792       16838.00     73549.75
 1361.85        3345.25           6795       14780.00     64543.74
 1361.88        3345.50           6799       11732.00     51213.76
 1361.91        3345.75           6803        8777.00     38299.99
 1361.94        3346.00           6807        5351.00     23339.58
 1361.96        3346.25           6810        2955.00     12884.33
 1361.99        3346.50           6814         641.00      2792.72
 1362.02        3346.75           6818         161.00       700.10
 1362.05        3347.00           6822          90.00       390.59
 1362.08        3347.25           6826          81.00       351.35
 1362.11        3347.50           6829          67.00       290.32
 1362.14        3347.75           6833          79.00       342.64
 1362.16        3348.00           6837          67.00       290.32
 1362.19        3348.25           6841          67.00       290.32
 1362.22        3348.50           6844          60.00       259.81
 1362.25        3348.75           6848          54.00       233.65
 1362.28        3349.00           6852          66.00       285.97
 1362.31        3349.25           6856          58.00       251.09
 1362.33        3349.50           6859          58.00       251.09
 1362.36        3349.75           6863          55.00       238.01
 1362.39        3350.00           6867          55.00       238.01
 1362.42        3350.25           6871          61.00       264.17
 1362.45        3350.50           6874          51.00       220.58
 1362.48        3350.75           6878          67.00       290.32
 1362.51        3351.00           6882          57.00       246.73
HL scan finished at 22:43:59
end
