************************************************************
  HL Scan of (1) Internal mercury lamp
************************************************************
Integration time is 0.2294 seconds per sample
dh031118Kota Bharu 6.16371-102.3 3.50161pr1000
************************************************************
Dead Time -------------------------  2.8E-08 
Number of Cycles Used -------------  4 
Starting Wavelength (Angstroms) ---  3331 
Final Wavelength (Angstoms) -------  3351 
Wavelength Increment (Angstroms) --  .25 
Filter Wheel #1 Position ---------- (1) Ground quartz diffuser (ND=2.32)
Filter Wheel #2 Position ---------- 



************************************************************
HL scan start time = 11:54:53
Dark Count =  .4 


Time (GMT)  Wavelength (Ang)  Step Number  Raw Counts  Counts/Second

  715.65        3331.00           6582          65.00       281.61
  716.06        3331.25           6586          56.00       242.37
  716.09        3331.50           6589          56.00       242.37
  716.11        3331.75           6593          59.00       255.45
  716.14        3332.00           6597          55.00       238.01
  716.17        3332.25           6601          57.00       246.73
  716.20        3332.50           6604          55.00       238.01
  716.23        3332.75           6608          53.00       229.30
  716.26        3333.00           6612          52.00       224.94
  716.29        3333.25           6616          63.00       272.89
  716.31        3333.50           6619          54.00       233.65
  716.34        3333.75           6623          54.00       233.65
  716.37        3334.00           6627          55.00       238.01
  716.40        3334.25           6631          55.00       238.01
  716.43        3334.50           6634          58.00       251.09
  716.46        3334.75           6638          53.00       229.30
  716.48        3335.00           6642          67.00       290.32
  716.51        3335.25           6645          70.00       303.40
  716.54        3335.50           6649          77.00       333.92
  716.57        3335.75           6653          98.00       425.46
  716.60        3336.00           6657         195.00       848.32
  716.63        3336.25           6660         992.00      4323.10
  716.66        3336.50           6664        3326.00     14502.84
  716.68        3336.75           6668        6065.00     26456.38
  716.71        3337.00           6672        9197.00     40134.88
  716.74        3337.25           6675       11728.00     51196.27
  716.77        3337.50           6679       14973.00     65388.14
  716.80        3337.75           6683       18093.00     79043.97
  716.83        3338.00           6687       21176.00     92548.15
  716.86        3338.25           6690       23546.00    102936.20
  716.89        3338.50           6694       26721.00    116862.20
  716.91        3338.75           6698       30079.00    131602.60
  716.94        3339.00           6702       32756.00    143362.50
  716.97        3339.25           6705       35078.00    153569.10
  717.00        3339.50           6709       38198.00    167292.70
  717.03        3339.75           6713       41481.00    181744.70
  717.06        3340.00           6717       44916.00    196878.30
  717.09        3340.25           6720       47257.00    207199.50
  717.11        3340.50           6724       50318.00    220704.10
  717.14        3340.75           6728       53187.00    233370.90
  717.17        3341.00           6732       55238.00    242431.70
  717.20        3341.25           6735       55468.00    243448.10
  717.23        3341.50           6739       55474.00    243474.60
  717.26        3341.75           6743       55108.00    241857.30
  717.29        3342.00           6747       52700.00    231220.10
  717.32        3342.25           6750       50294.00    220598.20
  717.34        3342.50           6754       47134.00    206657.10
  717.37        3342.75           6758       44047.00    193048.50
  717.40        3343.00           6762       40950.00    179406.40
  717.43        3343.25           6765       38674.00    169387.40
  717.46        3343.50           6769       35619.00    155948.00
  717.49        3343.75           6773       32562.00    142510.00
  717.52        3344.00           6777       29532.00    129200.70
  717.55        3344.25           6780       27390.00    119797.90
  717.58        3344.50           6784       24189.00    105755.60
  717.60        3344.75           6788       20711.00     90510.69
  717.63        3345.00           6792       17083.00     74622.20
  717.66        3345.25           6795       14616.00     63826.26
  717.69        3345.50           6799       11435.00     49915.40
  717.72        3345.75           6803        8462.00     36923.94
  717.75        3346.00           6807        5011.00     21855.57
  717.78        3346.25           6810        2593.00     11305.24
  717.81        3346.50           6814         685.00      2984.56
  717.83        3346.75           6818         170.00       739.34
  717.86        3347.00           6822          97.00       421.10
  717.89        3347.25           6826          84.00       364.43
  717.92        3347.50           6829          80.00       347.00
  717.95        3347.75           6833          70.00       303.40
  717.98        3348.00           6837          67.00       290.32
  718.01        3348.25           6841          61.00       264.17
  718.03        3348.50           6844          61.00       264.17
  718.06        3348.75           6848          58.00       251.09
  718.09        3349.00           6852          56.00       242.37
  718.12        3349.25           6856          56.00       242.37
  718.15        3349.50           6859          61.00       264.17
  718.18        3349.75           6863          50.00       216.22
  718.20        3350.00           6867          56.00       242.37
  718.23        3350.25           6871          54.00       233.65
  718.26        3350.50           6874          55.00       238.01
  718.29        3350.75           6878          58.00       251.09
  718.32        3351.00           6882          61.00       264.17
HL scan finished at 11:59:48
end
