************************************************************
  HL Scan of (1) Internal mercury lamp
************************************************************
Integration time is 0.2294 seconds per sample
dh041118Kota Bharu 6.16371-102.3 3.287017pr1000
************************************************************
Dead Time -------------------------  2.8E-08 
Number of Cycles Used -------------  4 
Starting Wavelength (Angstroms) ---  3331 
Final Wavelength (Angstoms) -------  3351 
Wavelength Increment (Angstroms) --  .25 
Filter Wheel #1 Position ---------- (1) Ground quartz diffuser (ND=2.32)
Filter Wheel #2 Position ---------- 



************************************************************
HL scan start time = 22:49:04
Dark Count =  .2 


Time (GMT)  Wavelength (Ang)  Step Number  Raw Counts  Counts/Second

 1369.83        3331.00           6582          51.00       221.45
 1370.23        3331.25           6586          52.00       225.81
 1370.26        3331.50           6589          48.00       208.37
 1370.29        3331.75           6593          53.00       230.17
 1370.32        3332.00           6597          53.00       230.17
 1370.35        3332.25           6601          55.00       238.89
 1370.38        3332.50           6604          53.00       230.17
 1370.40        3332.75           6608          54.00       234.53
 1370.43        3333.00           6612          46.00       199.65
 1370.46        3333.25           6616          49.00       212.73
 1370.49        3333.50           6619          47.00       204.01
 1370.52        3333.75           6623          58.00       251.96
 1370.55        3334.00           6627          53.00       230.17
 1370.57        3334.25           6631          55.00       238.89
 1370.60        3334.50           6634          56.00       243.24
 1370.63        3334.75           6638          60.00       260.68
 1370.66        3335.00           6642          64.00       278.12
 1370.69        3335.25           6645          68.00       295.56
 1370.72        3335.50           6649          76.00       330.43
 1370.75        3335.75           6653          89.00       387.10
 1370.77        3336.00           6657         191.00       831.75
 1370.80        3336.25           6660        1129.00      4921.34
 1370.83        3336.50           6664        3797.00     16558.68
 1370.86        3336.75           6668        6725.00     29338.83
 1370.89        3337.00           6672        9452.00     41249.88
 1370.92        3337.25           6675       11399.00     49758.91
 1370.94        3337.50           6679       14014.00     61193.70
 1370.97        3337.75           6683       16840.00     73559.38
 1371.00        3338.00           6687       20272.00     88588.27
 1371.03        3338.25           6690       22728.00     99350.98
 1371.06        3338.50           6694       25727.00    112502.10
 1371.09        3338.75           6698       28476.00    124565.40
 1371.12        3339.00           6702       31278.00    136869.70
 1371.14        3339.25           6705       33551.00    146857.20
 1371.17        3339.50           6709       36317.00    159018.60
 1371.20        3339.75           6713       39012.00    170875.80
 1371.23        3340.00           6717       42303.00    185365.90
 1371.26        3340.25           6720       44353.00    194397.90
 1371.29        3340.50           6724       47086.00    206446.30
 1371.31        3340.75           6728       49978.00    219204.40
 1371.34        3341.00           6732       51600.00    226364.00
 1371.37        3341.25           6735       51612.00    226417.00
 1371.40        3341.50           6739       51914.00    227750.30
 1371.43        3341.75           6743       51199.00    224593.70
 1371.46        3342.00           6747       48542.00    212868.30
 1371.48        3342.25           6750       46748.00    204955.80
 1371.51        3342.50           6754       44510.00    195089.80
 1371.54        3342.75           6758       41370.00    181256.70
 1371.57        3343.00           6762       37699.00    165098.00
 1371.60        3343.25           6765       35691.00    156265.50
 1371.63        3343.50           6769       32766.00    143407.30
 1371.65        3343.75           6773       29950.00    131037.00
 1371.68        3344.00           6777       27172.00    118842.10
 1371.71        3344.25           6780       24944.00    109067.50
 1371.74        3344.50           6784       21750.00     95064.40
 1371.77        3344.75           6788       19070.00     83323.21
 1371.80        3345.00           6792       16060.00     70145.48
 1371.83        3345.25           6795       13897.00     60681.92
 1371.85        3345.50           6799       10710.00     46747.29
 1371.88        3345.75           6803        7379.00     32194.66
 1371.91        3346.00           6807        4401.00     19194.27
 1371.94        3346.25           6810        2262.00      9862.36
 1371.97        3346.50           6814         500.00      2178.86
 1371.99        3346.75           6818         128.00       557.11
 1372.02        3347.00           6822          89.00       387.10
 1372.05        3347.25           6826          75.00       326.07
 1372.08        3347.50           6829          84.00       365.30
 1372.11        3347.75           6833          67.00       291.20
 1372.14        3348.00           6837          62.00       269.40
 1372.16        3348.25           6841          70.00       304.27
 1372.19        3348.50           6844          62.00       269.40
 1372.22        3348.75           6848          54.00       234.53
 1372.25        3349.00           6852          59.00       256.32
 1372.28        3349.25           6856          52.00       225.81
 1372.31        3349.50           6859          54.00       234.53
 1372.33        3349.75           6863          59.00       256.32
 1372.36        3350.00           6867          50.00       217.09
 1372.39        3350.25           6871          55.00       238.89
 1372.42        3350.50           6874          59.00       256.32
 1372.45        3350.75           6878          64.00       278.12
 1372.48        3351.00           6882          61.00       265.04
HL scan finished at 22:53:57
end
************************************************************
  HL Scan of (1) Internal mercury lamp
************************************************************
Integration time is 0.2294 seconds per sample
dh051118Kota Bharu 6.16371-102.3 3.287017pr1000
************************************************************
Dead Time -------------------------  2.8E-08 
Number of Cycles Used -------------  4 
Starting Wavelength (Angstroms) ---  3331 
Final Wavelength (Angstoms) -------  3351 
Wavelength Increment (Angstroms) --  .25 
Filter Wheel #1 Position ---------- (1) Ground quartz diffuser (ND=2.32)
Filter Wheel #2 Position ---------- 



************************************************************
HL scan start time = 13:00:34
Dark Count =  .2 


Time (GMT)  Wavelength (Ang)  Step Number  Raw Counts  Counts/Second

  781.33        3331.00           6582          53.00       230.17
  781.73        3331.25           6586          51.00       221.45
  781.76        3331.50           6589          55.00       238.89
  781.79        3331.75           6593          56.00       243.24
  781.82        3332.00           6597          47.00       204.01
  781.85        3332.25           6601          49.00       212.73
  781.87        3332.50           6604          57.00       247.60
  781.90        3332.75           6608          51.00       221.45
  781.93        3333.00           6612          56.00       243.24
  781.96        3333.25           6616          55.00       238.89
  781.99        3333.50           6619          56.00       243.24
  782.01        3333.75           6623          56.00       243.24
  782.04        3334.00           6627          49.00       212.73
  782.07        3334.25           6631          60.00       260.68
  782.10        3334.50           6634          54.00       234.53
  782.13        3334.75           6638          66.00       286.84
  782.16        3335.00           6642          65.00       282.48
  782.18        3335.25           6645          68.00       295.56
  782.21        3335.50           6649          74.00       321.71
  782.24        3335.75           6653          83.00       360.95
  782.27        3336.00           6657         126.00       548.40
  782.30        3336.25           6660         576.00      2510.20
  782.33        3336.50           6664        3038.00     13247.29
  782.35        3336.75           6668        6087.00     26553.30
  782.38        3337.00           6672        9242.00     40332.36
  782.41        3337.25           6675       11546.00     50401.51
  782.44        3337.50           6679       14344.00     62637.23
  782.47        3337.75           6683       17623.00     76987.06
  782.50        3338.00           6687       20650.00     90244.31
  782.52        3338.25           6690       22800.00     99666.59
  782.55        3338.50           6694       25353.00    110861.50
  782.58        3338.75           6698       28222.00    123450.40
  782.61        3339.00           6702       31118.00    136166.80
  782.64        3339.25           6705       33670.00    147380.30
  782.66        3339.50           6709       36814.00    161204.60
  782.69        3339.75           6713       39670.00    173772.00
  782.72        3340.00           6717       42508.00    186268.90
  782.75        3340.25           6720       44696.00    195909.60
  782.78        3340.50           6724       47243.00    207138.60
  782.81        3340.75           6728       50105.00    219764.90
  782.84        3341.00           6732       51451.00    225706.20
  782.86        3341.25           6735       51842.00    227432.40
  782.89        3341.50           6739       51900.00    227688.50
  782.92        3341.75           6743       51181.00    224514.20
  782.95        3342.00           6747       48378.00    212144.80
  782.98        3342.25           6750       46303.00    202993.60
  783.00        3342.50           6754       43707.00    191551.20
  783.03        3342.75           6758       40462.00    177258.60
  783.06        3343.00           6762       37207.00    162933.40
  783.09        3343.25           6765       35264.00    154387.90
  783.12        3343.50           6769       32884.00    143925.90
  783.15        3343.75           6773       30238.00    132301.80
  783.18        3344.00           6777       27196.00    118947.40
  783.20        3344.25           6780       24793.00    108405.30
  783.23        3344.50           6784       21356.00     93337.78
  783.26        3344.75           6788       18355.00     80192.07
  783.29        3345.00           6792       15454.00     67493.60
  783.32        3345.25           6795       13512.00     58997.99
  783.35        3345.50           6799       10619.00     46349.57
  783.37        3345.75           6803        7621.00     33251.52
  783.40        3346.00           6807        5003.00     21821.52
  783.43        3346.25           6810        2856.00     12453.34
  783.46        3346.50           6814         683.00      2976.71
  783.49        3346.75           6818         147.00       639.94
  783.52        3347.00           6822          89.00       387.10
  783.54        3347.25           6826          87.00       378.38
  783.57        3347.50           6829          77.00       334.79
  783.60        3347.75           6833          61.00       265.04
  783.63        3348.00           6837          66.00       286.84
  783.66        3348.25           6841          58.00       251.96
  783.68        3348.50           6844          61.00       265.04
  783.71        3348.75           6848          60.00       260.68
  783.74        3349.00           6852          51.00       221.45
  783.77        3349.25           6856          52.00       225.81
  783.80        3349.50           6859          59.00       256.32
  783.83        3349.75           6863          55.00       238.89
  783.85        3350.00           6867          55.00       238.89
  783.88        3350.25           6871          58.00       251.96
  783.91        3350.50           6874          59.00       256.32
  783.94        3350.75           6878          52.00       225.81
  783.97        3351.00           6882          53.00       230.17
HL scan finished at 13:05:27
end
