************************************************************
  HL Scan of (1) Internal mercury lamp
************************************************************
Integration time is 0.2294 seconds per sample
dh301018Senai 1.6385-103.6656 3.394313pr1000
************************************************************
Dead Time -------------------------  2.8E-08 
Number of Cycles Used -------------  4 
Starting Wavelength (Angstroms) ---  3331 
Final Wavelength (Angstoms) -------  3351 
Wavelength Increment (Angstroms) --  .25 
Filter Wheel #1 Position ---------- (1) Ground quartz diffuser (ND=2.32)
Filter Wheel #2 Position ---------- 



************************************************************
HL scan start time = 22:39:13
Dark Count =  .4 


Time (GMT)  Wavelength (Ang)  Step Number  Raw Counts  Counts/Second

 1359.98        3331.00           6582          51.00       220.58
 1360.39        3331.25           6586          49.00       211.86
 1360.42        3331.50           6589          49.00       211.86
 1360.45        3331.75           6593          51.00       220.58
 1360.48        3332.00           6597          63.00       272.89
 1360.51        3332.25           6601          47.00       203.14
 1360.53        3332.50           6604          57.00       246.73
 1360.56        3332.75           6608          52.00       224.94
 1360.59        3333.00           6612          52.00       224.94
 1360.62        3333.25           6616          56.00       242.37
 1360.65        3333.50           6619          54.00       233.65
 1360.68        3333.75           6623          55.00       238.01
 1360.70        3334.00           6627          51.00       220.58
 1360.73        3334.25           6631          57.00       246.73
 1360.76        3334.50           6634          52.00       224.94
 1360.79        3334.75           6638          58.00       251.09
 1360.82        3335.00           6642          72.00       312.12
 1360.84        3335.25           6645          65.00       281.61
 1360.87        3335.50           6649          69.00       299.04
 1360.90        3335.75           6653          86.00       373.15
 1360.93        3336.00           6657         155.00       673.94
 1360.96        3336.25           6660         839.00      3656.00
 1360.99        3336.50           6664        3503.00     15275.06
 1361.02        3336.75           6668        6360.00     27744.30
 1361.04        3337.00           6672        8985.00     39208.67
 1361.07        3337.25           6675       11099.00     48446.67
 1361.10        3337.50           6679       13948.00     60904.12
 1361.13        3337.75           6683       17162.00     74968.02
 1361.16        3338.00           6687       20560.00     89849.12
 1361.19        3338.25           6690       23073.00    100862.50
 1361.22        3338.50           6694       26017.00    113773.40
 1361.24        3338.75           6698       28849.00    126201.90
 1361.27        3339.00           6702       31896.00    139583.70
 1361.30        3339.25           6705       34319.00    150232.20
 1361.33        3339.50           6709       36895.00    161560.10
 1361.36        3339.75           6713       40137.00    175826.90
 1361.39        3340.00           6717       43111.00    188924.40
 1361.41        3340.25           6720       45500.00    199452.60
 1361.44        3340.50           6724       48729.00    213692.40
 1361.47        3340.75           6728       51433.00    225625.80
 1361.50        3341.00           6732       53510.00    234797.50
 1361.53        3341.25           6735       53894.00    236493.70
 1361.56        3341.50           6739       54073.00    237284.50
 1361.59        3341.75           6743       53275.00    233759.60
 1361.61        3342.00           6747       51396.00    225462.50
 1361.64        3342.25           6750       49186.00    215708.70
 1361.67        3342.50           6754       46770.00    205051.90
 1361.70        3342.75           6758       43074.00    188761.40
 1361.73        3343.00           6762       39944.00    174977.30
 1361.76        3343.25           6765       37705.00    165123.50
 1361.78        3343.50           6769       34940.00    152962.40
 1361.81        3343.75           6773       32008.00    140075.80
 1361.84        3344.00           6777       28719.00    125631.20
 1361.87        3344.25           6780       26411.00    115502.00
 1361.90        3344.50           6784       23654.00    103409.70
 1361.93        3344.75           6788       20714.00     90523.84
 1361.96        3345.00           6792       17143.00     74884.83
 1361.98        3345.25           6795       14619.00     63839.39
 1362.01        3345.50           6799       11343.00     49513.24
 1362.04        3345.75           6803        8098.00     35333.98
 1362.07        3346.00           6807        5167.00     22536.45
 1362.10        3346.25           6810        2864.00     12487.37
 1362.13        3346.50           6814         633.00      2757.84
 1362.15        3346.75           6818         156.00       678.30
 1362.18        3347.00           6822          91.00       394.95
 1362.21        3347.25           6826          91.00       394.95
 1362.24        3347.50           6829          83.00       360.07
 1362.27        3347.75           6833          79.00       342.64
 1362.30        3348.00           6837          66.00       285.97
 1362.32        3348.25           6841          64.00       277.25
 1362.35        3348.50           6844          58.00       251.09
 1362.38        3348.75           6848          55.00       238.01
 1362.41        3349.00           6852          51.00       220.58
 1362.44        3349.25           6856          61.00       264.17
 1362.47        3349.50           6859          59.00       255.45
 1362.49        3349.75           6863          55.00       238.01
 1362.52        3350.00           6867          47.00       203.14
 1362.55        3350.25           6871          58.00       251.09
 1362.58        3350.50           6874          49.00       211.86
 1362.61        3350.75           6878          53.00       229.30
 1362.64        3351.00           6882          61.00       264.17
HL scan finished at 22:44:07
end
************************************************************
  HL Scan of (1) Internal mercury lamp
************************************************************
Integration time is 0.2294 seconds per sample
dh311018Senai 1.6385-103.6656 3.50161pr1000
************************************************************
Dead Time -------------------------  2.8E-08 
Number of Cycles Used -------------  4 
Starting Wavelength (Angstroms) ---  3331 
Final Wavelength (Angstoms) -------  3351 
Wavelength Increment (Angstroms) --  .25 
Filter Wheel #1 Position ---------- (1) Ground quartz diffuser (ND=2.32)
Filter Wheel #2 Position ---------- 



************************************************************
HL scan start time = 11:46:30
Dark Count =  .6 


Time (GMT)  Wavelength (Ang)  Step Number  Raw Counts  Counts/Second

  707.27        3331.00           6582          58.00       250.22
  707.67        3331.25           6586          48.00       206.63
  707.70        3331.50           6589          53.00       228.42
  707.73        3331.75           6593          54.00       232.78
  707.76        3332.00           6597          58.00       250.22
  707.79        3332.25           6601          49.00       210.99
  707.82        3332.50           6604          52.00       224.06
  707.85        3332.75           6608          57.00       245.86
  707.87        3333.00           6612          57.00       245.86
  707.90        3333.25           6616          51.00       219.70
  707.93        3333.50           6619          50.00       215.35
  707.96        3333.75           6623          49.00       210.99
  707.99        3334.00           6627          55.00       237.14
  708.02        3334.25           6631          58.00       250.22
  708.04        3334.50           6634          62.00       267.66
  708.07        3334.75           6638          60.00       258.94
  708.10        3335.00           6642          60.00       258.94
  708.13        3335.25           6645          70.00       302.53
  708.16        3335.50           6649          71.00       306.89
  708.19        3335.75           6653          87.00       376.64
  708.22        3336.00           6657         171.00       742.82
  708.24        3336.25           6660         705.00      3070.88
  708.27        3336.50           6664        2984.00     13009.97
  708.30        3336.75           6668        6310.00     27525.13
  708.33        3337.00           6672        9936.00     43363.00
  708.36        3337.25           6675       12277.00     53595.64
  708.38        3337.50           6679       15207.00     66411.09
  708.41        3337.75           6683       17658.00     77138.53
  708.44        3338.00           6687       21096.00     92196.72
  708.47        3338.25           6690       23864.00    104329.60
  708.50        3338.50           6694       27072.00    118401.50
  708.53        3338.75           6698       29885.00    130749.80
  708.56        3339.00           6702       33029.00    144561.30
  708.58        3339.25           6705       35398.00    154975.30
  708.61        3339.50           6709       38698.00    169492.10
  708.64        3339.75           6713       42300.00    185350.90
  708.67        3340.00           6717       45388.00    198957.90
  708.70        3340.25           6720       47746.00    209355.30
  708.73        3340.50           6724       50884.00    223201.40
  708.76        3340.75           6728       53826.00    236192.50
  708.78        3341.00           6732       55320.00    242793.20
  708.81        3341.25           6735       55779.00    244821.60
  708.84        3341.50           6739       55919.00    245440.40
  708.87        3341.75           6743       55189.00    242214.30
  708.90        3342.00           6747       52678.00    231122.10
  708.93        3342.25           6750       50446.00    221268.10
  708.95        3342.50           6754       47525.00    208380.60
  708.98        3342.75           6758       44418.00    194682.60
  709.01        3343.00           6762       41405.00    181409.10
  709.04        3343.25           6765       38807.00    169971.80
  709.07        3343.50           6769       35877.00    157081.70
  709.10        3343.75           6773       33027.00    144552.50
  709.13        3344.00           6777       30091.00    131654.40
  709.15        3344.25           6780       27361.00    119669.70
  709.18        3344.50           6784       24095.00    105342.50
  709.21        3344.75           6788       20430.00     89278.71
  709.24        3345.00           6792       17291.00     75531.86
  709.27        3345.25           6795       15011.00     65553.52
  709.30        3345.50           6799       11720.00     51160.42
  709.33        3345.75           6803        8338.00     36381.42
  709.35        3346.00           6807        5348.00     23325.61
  709.38        3346.25           6810        3172.00     13830.11
  709.41        3346.50           6814         860.00      3746.69
  709.44        3346.75           6818         192.00       834.37
  709.47        3347.00           6822         103.00       446.39
  709.50        3347.25           6826          93.00       402.79
  709.52        3347.50           6829          86.00       372.28
  709.55        3347.75           6833          77.00       333.05
  709.58        3348.00           6837          76.00       328.69
  709.61        3348.25           6841          56.00       241.50
  709.64        3348.50           6844          66.00       285.09
  709.67        3348.75           6848          56.00       241.50
  709.69        3349.00           6852          55.00       237.14
  709.72        3349.25           6856          56.00       241.50
  709.75        3349.50           6859          58.00       250.22
  709.78        3349.75           6863          61.00       263.30
  709.81        3350.00           6867          55.00       237.14
  709.84        3350.25           6871          55.00       237.14
  709.86        3350.50           6874          57.00       245.86
  709.89        3350.75           6878          60.00       258.94
  709.92        3351.00           6882          55.00       237.14
HL scan finished at 11:51:24
end
