************************************************************
  HL Scan of (1) Internal mercury lamp
************************************************************
Integration time is 0.2294 seconds per sample
dh051118Kota Bharu 6.16371-102.3 3.287017pr1000
************************************************************
Dead Time -------------------------  2.8E-08 
Number of Cycles Used -------------  4 
Starting Wavelength (Angstroms) ---  3331 
Final Wavelength (Angstoms) -------  3351 
Wavelength Increment (Angstroms) --  .25 
Filter Wheel #1 Position ---------- (1) Ground quartz diffuser (ND=2.32)
Filter Wheel #2 Position ---------- 



************************************************************
HL scan start time = 22:49:07
Dark Count =  .2 


Time (GMT)  Wavelength (Ang)  Step Number  Raw Counts  Counts/Second

 1369.87        3331.00           6582          53.00       230.17
 1370.28        3331.25           6586          58.00       251.96
 1370.31        3331.50           6589          55.00       238.89
 1370.34        3331.75           6593          50.00       217.09
 1370.37        3332.00           6597          47.00       204.01
 1370.39        3332.25           6601          50.00       217.09
 1370.42        3332.50           6604          53.00       230.17
 1370.45        3332.75           6608          54.00       234.53
 1370.48        3333.00           6612          49.00       212.73
 1370.51        3333.25           6616          53.00       230.17
 1370.54        3333.50           6619          50.00       217.09
 1370.56        3333.75           6623          57.00       247.60
 1370.59        3334.00           6627          59.00       256.32
 1370.62        3334.25           6631          54.00       234.53
 1370.65        3334.50           6634          55.00       238.89
 1370.68        3334.75           6638          57.00       247.60
 1370.71        3335.00           6642          66.00       286.84
 1370.73        3335.25           6645          71.00       308.63
 1370.76        3335.50           6649          80.00       347.87
 1370.79        3335.75           6653          92.00       400.18
 1370.82        3336.00           6657         178.00       775.08
 1370.85        3336.25           6660         787.00      3430.15
 1370.88        3336.50           6664        3278.00     14294.30
 1370.91        3336.75           6668        6455.00     28159.95
 1370.93        3337.00           6672        9603.00     41909.66
 1370.96        3337.25           6675       11746.00     51275.83
 1370.99        3337.50           6679       14583.00     63682.76
 1371.02        3337.75           6683       17077.00     74596.81
 1371.05        3338.00           6687       20344.00     88903.69
 1371.07        3338.25           6690       22922.00    100201.40
 1371.10        3338.50           6694       25668.00    112243.20
 1371.13        3338.75           6698       28463.00    124508.30
 1371.16        3339.00           6702       31517.00    137919.60
 1371.19        3339.25           6705       33767.00    147806.60
 1371.22        3339.50           6709       36960.00    161846.90
 1371.25        3339.75           6713       39990.00    175180.60
 1371.27        3340.00           6717       42832.00    187696.10
 1371.30        3340.25           6720       45019.00    197333.20
 1371.33        3340.50           6724       48111.00    210967.00
 1371.36        3340.75           6728       50867.00    223128.10
 1371.39        3341.00           6732       52236.00    229172.10
 1371.42        3341.25           6735       52257.00    229264.80
 1371.45        3341.50           6739       52523.00    230439.40
 1371.47        3341.75           6743       51478.00    225825.30
 1371.50        3342.00           6747       48949.00    214663.90
 1371.53        3342.25           6750       46579.00    204210.60
 1371.56        3342.50           6754       44154.00    193520.90
 1371.59        3342.75           6758       41259.00    180767.90
 1371.62        3343.00           6762       38229.00    167430.00
 1371.64        3343.25           6765       35749.00    156520.60
 1371.67        3343.50           6769       33211.00    145362.90
 1371.70        3343.75           6773       30709.00    134370.40
 1371.73        3344.00           6777       27670.00    121027.60
 1371.76        3344.25           6780       25319.00    110712.40
 1371.78        3344.50           6784       21923.00     95822.58
 1371.81        3344.75           6788       18562.00     81098.51
 1371.84        3345.00           6792       15848.00     69217.72
 1371.87        3345.25           6795       13572.00     59260.42
 1371.90        3345.50           6799       10424.00     45497.33
 1371.93        3345.75           6803        7159.00     31233.93
 1371.96        3346.00           6807        4627.00     20180.54
 1371.98        3346.25           6810        2539.00     11070.56
 1372.01        3346.50           6814         597.00      2601.76
 1372.04        3346.75           6818         146.00       635.58
 1372.07        3347.00           6822          95.00       413.26
 1372.10        3347.25           6826          87.00       378.38
 1372.12        3347.50           6829          76.00       330.43
 1372.15        3347.75           6833          74.00       321.71
 1372.18        3348.00           6837          66.00       286.84
 1372.21        3348.25           6841          60.00       260.68
 1372.24        3348.50           6844          62.00       269.40
 1372.27        3348.75           6848          52.00       225.81
 1372.29        3349.00           6852          60.00       260.68
 1372.32        3349.25           6856          53.00       230.17
 1372.35        3349.50           6859          60.00       260.68
 1372.38        3349.75           6863          49.00       212.73
 1372.41        3350.00           6867          56.00       243.24
 1372.44        3350.25           6871          51.00       221.45
 1372.46        3350.50           6874          58.00       251.96
 1372.49        3350.75           6878          57.00       247.60
 1372.52        3351.00           6882          55.00       238.89
HL scan finished at 22:54:00
end
