************************************************************
  HL Scan of (1) Internal mercury lamp
************************************************************
Integration time is 0.2294 seconds per sample
dh221117Delft 51.997-4.386 3.287017pr1000
************************************************************
Dead Time -------------------------  3E-08 
Number of Cycles Used -------------  4 
Starting Wavelength (Angstroms) ---  3331 
Final Wavelength (Angstoms) -------  3351 
Wavelength Increment (Angstroms) --  .25 
Filter Wheel #1 Position ---------- (1) Ground quartz diffuser (ND=2.32)
Filter Wheel #2 Position ---------- 



************************************************************
HL scan start time = 07:59:07
Dark Count =  .3 


Time (GMT)  Wavelength (Ang)  Step Number  Raw Counts  Counts/Second

  479.88        3331.00           6581          50.00       216.65
  480.29        3331.25           6584          57.00       247.17
  480.32        3331.50           6588          51.00       221.01
  480.35        3331.75           6592          44.00       190.50
  480.38        3332.00           6595          54.00       234.09
  480.41        3332.25           6599          50.00       216.65
  480.44        3332.50           6603          53.00       229.73
  480.47        3332.75           6607          41.00       177.42
  480.50        3333.00           6610          49.00       212.29
  480.53        3333.25           6614          57.00       247.17
  480.56        3333.50           6618          51.00       221.01
  480.59        3333.75           6622          51.00       221.01
  480.62        3334.00           6625          46.00       199.22
  480.65        3334.25           6629          53.00       229.73
  480.67        3334.50           6633          61.00       264.61
  480.70        3334.75           6636          58.00       251.53
  480.73        3335.00           6640          53.00       229.73
  480.76        3335.25           6644          61.00       264.61
  480.79        3335.50           6648          75.00       325.64
  480.82        3335.75           6651          72.00       312.56
  480.85        3336.00           6655          83.00       360.51
  480.88        3336.25           6659         201.00       874.91
  480.91        3336.50           6663        1476.00      6434.11
  480.94        3336.75           6666        3421.00     14918.18
  480.97        3337.00           6670        5883.00     25663.61
  481.00        3337.25           6674        8893.00     38810.20
  481.03        3337.50           6677       10774.00     47031.00
  481.06        3337.75           6681       13163.00     57477.84
  481.09        3338.00           6685       15980.00     69804.71
  481.12        3338.25           6689       18631.00     81413.50
  481.15        3338.50           6692       20417.00     89239.03
  481.18        3338.75           6696       23005.00    100585.10
  481.21        3339.00           6700       25220.00    110302.10
  481.24        3339.25           6704       27814.00    121688.90
  481.27        3339.50           6707       29774.00    130297.80
  481.30        3339.75           6711       32649.00    142933.70
  481.33        3340.00           6715       35052.00    153502.60
  481.36        3340.25           6719       37536.00    164434.70
  481.39        3340.50           6722       39196.00    171744.40
  481.42        3340.75           6726       41581.00    182252.30
  481.45        3341.00           6730       43653.00    191386.50
  481.48        3341.25           6733       44549.00    195338.00
  481.51        3341.50           6737       44672.00    195880.50
  481.54        3341.75           6741       44608.00    195598.20
  481.57        3342.00           6745       43679.00    191501.10
  481.60        3342.25           6748       41870.00    183526.00
  481.63        3342.50           6752       39184.00    171691.60
  481.66        3342.75           6756       36862.00    161467.70
  481.69        3343.00           6760       34288.00    150141.60
  481.72        3343.25           6763       32170.00    140827.80
  481.75        3343.50           6767       29655.00    129775.00
  481.77        3343.75           6771       27516.00    120380.30
  481.80        3344.00           6775       25198.00    110205.50
  481.83        3344.25           6778       23145.00    101199.10
  481.86        3344.50           6782       20830.00     91049.14
  481.89        3344.75           6786       17781.00     77690.45
  481.92        3345.00           6790       15030.00     65646.60
  481.95        3345.25           6793       13237.00     57801.55
  481.98        3345.50           6797       10895.00     47559.97
  482.01        3345.75           6801        8481.00     37010.12
  482.04        3346.00           6805        5892.00     25702.90
  482.07        3346.25           6808        3844.00     16763.88
  482.10        3346.50           6812        1774.00      7733.70
  482.13        3346.75           6816         418.00      1820.94
  482.16        3347.00           6819         132.00       574.12
  482.19        3347.25           6823          84.00       364.87
  482.22        3347.50           6827          85.00       369.23
  482.25        3347.75           6831          74.00       321.28
  482.28        3348.00           6834          63.00       273.32
  482.31        3348.25           6838          57.00       247.17
  482.34        3348.50           6842          61.00       264.61
  482.37        3348.75           6846          56.00       242.81
  482.40        3349.00           6849          60.00       260.25
  482.43        3349.25           6853          59.00       255.89
  482.46        3349.50           6857          49.00       212.29
  482.49        3349.75           6861          50.00       216.65
  482.52        3350.00           6864          52.00       225.37
  482.55        3350.25           6868          58.00       251.53
  482.58        3350.50           6872          63.00       273.32
  482.61        3350.75           6876          54.00       234.09
  482.64        3351.00           6879          49.00       212.29
HL scan finished at 08:04:08
end
