************************************************************
  HL Scan of (1) Internal mercury lamp
************************************************************
Integration time is 0.2294 seconds per sample
dh211117Delft 51.997-4.386 3.179721pr1000
************************************************************
Dead Time -------------------------  3E-08 
Number of Cycles Used -------------  4 
Starting Wavelength (Angstroms) ---  3331 
Final Wavelength (Angstoms) -------  3351 
Wavelength Increment (Angstroms) --  .25 
Filter Wheel #1 Position ---------- (1) Ground quartz diffuser (ND=2.32)
Filter Wheel #2 Position ---------- 



************************************************************
HL scan start time = 11:37:02
Dark Count =  .1 


Time (GMT)  Wavelength (Ang)  Step Number  Raw Counts  Counts/Second

  697.80        3331.00           6581          55.00       239.32
  698.21        3331.25           6584          52.00       226.24
  698.24        3331.50           6588          45.00       195.73
  698.27        3331.75           6592          50.00       217.53
  698.30        3332.00           6595          57.00       248.04
  698.33        3332.25           6599          56.00       243.68
  698.36        3332.50           6603          51.00       221.88
  698.39        3332.75           6607          48.00       208.81
  698.41        3333.00           6610          59.00       256.76
  698.44        3333.25           6614          50.00       217.53
  698.47        3333.50           6618          55.00       239.32
  698.50        3333.75           6622          42.00       182.65
  698.53        3334.00           6625          53.00       230.60
  698.56        3334.25           6629          46.00       200.09
  698.59        3334.50           6633          52.00       226.24
  698.62        3334.75           6636          60.00       261.12
  698.65        3335.00           6640          59.00       256.76
  698.68        3335.25           6644          61.00       265.48
  698.71        3335.50           6648          69.00       300.35
  698.74        3335.75           6651          74.00       322.15
  698.77        3336.00           6655          96.00       418.05
  698.80        3336.25           6659         228.00       993.49
  698.83        3336.50           6663        1493.00      6509.12
  698.86        3336.75           6666        3295.00     14369.32
  698.89        3337.00           6670        5728.00     24987.78
  698.92        3337.25           6674        8317.00     36294.52
  698.95        3337.50           6677       10437.00     45558.74
  698.98        3337.75           6681       12994.00     56739.49
  699.01        3338.00           6685       15570.00     68010.91
  699.04        3338.25           6689       18247.00     79732.34
  699.07        3338.50           6692       20145.00     88047.88
  699.10        3338.75           6696       22633.00     98954.62
  699.13        3339.00           6700       24886.00    108837.40
  699.16        3339.25           6704       27146.00    118756.70
  699.19        3339.50           6707       28972.00    126775.50
  699.22        3339.75           6711       31552.00    138112.10
  699.25        3340.00           6715       34360.00    150459.20
  699.28        3340.25           6719       36719.00    160839.20
  699.31        3340.50           6722       38329.00    167927.10
  699.33        3340.75           6726       40637.00    178093.30
  699.36        3341.00           6730       42671.00    187057.70
  699.39        3341.25           6733       43593.00    191122.80
  699.42        3341.50           6737       43678.00    191497.60
  699.45        3341.75           6741       43914.00    192538.30
  699.48        3342.00           6745       42672.00    187062.10
  699.51        3342.25           6748       40899.00    179247.70
  699.54        3342.50           6752       38396.00    168222.10
  699.57        3342.75           6756       35951.00    157459.10
  699.60        3343.00           6760       33476.00    146571.10
  699.63        3343.25           6763       31819.00    139285.70
  699.66        3343.50           6767       28989.00    126850.20
  699.69        3343.75           6771       26564.00    116201.70
  699.72        3344.00           6775       24448.00    106915.60
  699.75        3344.25           6778       22818.00     99765.91
  699.78        3344.50           6782       20216.00     88359.02
  699.81        3344.75           6786       17572.00     76776.03
  699.84        3345.00           6790       14695.00     64181.44
  699.87        3345.25           6793       12940.00     56503.29
  699.90        3345.50           6797       10512.00     45886.58
  699.93        3345.75           6801        8193.00     35752.80
  699.96        3346.00           6805        5716.00     24935.39
  699.99        3346.25           6808        3665.00     15983.69
  700.02        3346.50           6812        1555.00      6779.50
  700.05        3346.75           6816         365.00      1590.75
  700.08        3347.00           6819         137.00       596.78
  700.11        3347.25           6823          84.00       365.74
  700.14        3347.50           6827          74.00       322.15
  700.17        3347.75           6831          68.00       295.99
  700.20        3348.00           6834          73.00       317.79
  700.23        3348.25           6838          56.00       243.68
  700.26        3348.50           6842          57.00       248.04
  700.29        3348.75           6846          55.00       239.32
  700.32        3349.00           6849          47.00       204.45
  700.35        3349.25           6853          54.00       234.96
  700.37        3349.50           6857          48.00       208.81
  700.40        3349.75           6861          52.00       226.24
  700.43        3350.00           6864          53.00       230.60
  700.46        3350.25           6868          48.00       208.81
  700.49        3350.50           6872          52.00       226.24
  700.52        3350.75           6876          52.00       226.24
  700.55        3351.00           6879          55.00       239.32
HL scan finished at 11:42:03
end
************************************************************
  HL Scan of (1) Internal mercury lamp
************************************************************
Integration time is 0.2294 seconds per sample
dh211117Delft 51.997-4.386 3.287017pr1000
************************************************************
Dead Time -------------------------  3E-08 
Number of Cycles Used -------------  4 
Starting Wavelength (Angstroms) ---  3331 
Final Wavelength (Angstoms) -------  3351 
Wavelength Increment (Angstroms) --  .25 
Filter Wheel #1 Position ---------- (1) Ground quartz diffuser (ND=2.32)
Filter Wheel #2 Position ---------- 



************************************************************
HL scan start time = 13:24:10
Dark Count =  .2 


Time (GMT)  Wavelength (Ang)  Step Number  Raw Counts  Counts/Second

  804.94        3331.00           6581          51.00       221.45
  805.35        3331.25           6584          61.00       265.04
  805.38        3331.50           6588          46.00       199.65
  805.41        3331.75           6592          45.00       195.29
  805.44        3332.00           6595          54.00       234.53
  805.47        3332.25           6599          45.00       195.29
  805.50        3332.50           6603          49.00       212.73
  805.53        3332.75           6607          50.00       217.09
  805.56        3333.00           6610          49.00       212.73
  805.59        3333.25           6614          60.00       260.68
  805.62        3333.50           6618          52.00       225.81
  805.65        3333.75           6622          52.00       225.81
  805.67        3334.00           6625          44.00       190.93
  805.70        3334.25           6629          52.00       225.81
  805.73        3334.50           6633          52.00       225.81
  805.76        3334.75           6636          55.00       238.89
  805.79        3335.00           6640          60.00       260.68
  805.82        3335.25           6644          60.00       260.68
  805.85        3335.50           6648          74.00       321.71
  805.88        3335.75           6651          86.00       374.02
  805.91        3336.00           6655         104.00       452.49
  805.94        3336.25           6659         238.00      1036.65
  805.97        3336.50           6663        2174.00      9478.72
  806.00        3336.75           6666        4015.00     17510.50
  806.03        3337.00           6670        6454.00     28157.17
  806.06        3337.25           6674        9064.00     39557.82
  806.09        3337.50           6677       10947.00     47787.73
  806.12        3337.75           6681       13470.00     58821.23
  806.15        3338.00           6685       15963.00     69730.73
  806.18        3338.25           6689       18360.00     80226.87
  806.21        3338.50           6692       20146.00     88051.81
  806.24        3338.75           6696       23047.00    100769.80
  806.27        3339.00           6700       25677.00    112308.00
  806.30        3339.25           6704       28252.00    123612.80
  806.33        3339.50           6707       30287.00    132552.20
  806.36        3339.75           6711       32595.00    142696.80
  806.39        3340.00           6715       35108.00    153749.40
  806.42        3340.25           6719       37649.00    164932.70
  806.45        3340.50           6722       39320.00    172291.00
  806.48        3340.75           6726       41604.00    182354.10
  806.50        3341.00           6730       43963.00    192754.00
  806.54        3341.25           6733       45115.00    197835.00
  806.56        3341.50           6737       45394.00    199065.80
  806.59        3341.75           6741       45320.00    198739.40
  806.62        3342.00           6745       44160.00    193622.80
  806.65        3342.25           6748       42122.00    184637.20
  806.68        3342.50           6752       39513.00    173141.10
  806.71        3342.75           6756       37088.00    162463.00
  806.74        3343.00           6760       34802.00    152403.10
  806.77        3343.25           6763       33252.00    145585.70
  806.80        3343.50           6767       30600.00    133927.60
  806.83        3343.75           6771       28105.00    122967.20
  806.86        3344.00           6775       25352.00    110881.80
  806.89        3344.25           6778       23261.00    101708.30
  806.92        3344.50           6782       20836.00     91075.88
  806.95        3344.75           6786       18212.00     79578.60
  806.98        3345.00           6790       15566.00     67992.96
  807.01        3345.25           6793       13564.00     59232.46
  807.04        3345.50           6797       11084.00     48386.67
  807.07        3345.75           6801        8857.00     38653.34
  807.10        3346.00           6805        6211.00     27096.12
  807.13        3346.25           6808        4038.00     17610.87
  807.16        3346.50           6812        1471.00      6412.74
  807.19        3346.75           6816         269.00      1171.79
  807.22        3347.00           6819         116.00       504.80
  807.25        3347.25           6823          82.00       356.59
  807.28        3347.50           6827          73.00       317.35
  807.31        3347.75           6831          72.00       312.99
  807.34        3348.00           6834          68.00       295.56
  807.37        3348.25           6838          54.00       234.53
  807.40        3348.50           6842          62.00       269.40
  807.43        3348.75           6846          50.00       217.09
  807.45        3349.00           6849          57.00       247.60
  807.48        3349.25           6853          49.00       212.73
  807.51        3349.50           6857          49.00       212.73
  807.54        3349.75           6861          56.00       243.25
  807.57        3350.00           6864          57.00       247.60
  807.60        3350.25           6868          49.00       212.73
  807.63        3350.50           6872          51.00       221.45
  807.66        3350.75           6876          50.00       217.09
  807.69        3351.00           6879          54.00       234.53
HL scan finished at 13:29:11
end
************************************************************
  HL Scan of (1) Internal mercury lamp
************************************************************
Integration time is 0.2294 seconds per sample
dh211117Delft 51.997-4.386 3.340665pr1000
************************************************************
Dead Time -------------------------  3E-08 
Number of Cycles Used -------------  4 
Starting Wavelength (Angstroms) ---  3331 
Final Wavelength (Angstoms) -------  3351 
Wavelength Increment (Angstroms) --  .25 
Filter Wheel #1 Position ---------- (1) Ground quartz diffuser (ND=2.32)
Filter Wheel #2 Position ---------- 



************************************************************
HL scan start time = 15:11:19
Dark Count =  .2 


Time (GMT)  Wavelength (Ang)  Step Number  Raw Counts  Counts/Second

  912.09        3331.00           6581          52.00       225.81
  912.50        3331.25           6584          49.00       212.73
  912.53        3331.50           6588          60.00       260.68
  912.56        3331.75           6592          47.00       204.01
  912.59        3332.00           6595          57.00       247.60
  912.62        3332.25           6599          50.00       217.09
  912.65        3332.50           6603          53.00       230.17
  912.67        3332.75           6607          53.00       230.17
  912.70        3333.00           6610          48.00       208.37
  912.73        3333.25           6614          53.00       230.17
  912.76        3333.50           6618          51.00       221.45
  912.79        3333.75           6622          56.00       243.25
  912.82        3334.00           6625          49.00       212.73
  912.85        3334.25           6629          42.00       182.22
  912.88        3334.50           6633          56.00       243.25
  912.91        3334.75           6636          57.00       247.60
  912.94        3335.00           6640          60.00       260.68
  912.97        3335.25           6644          65.00       282.48
  913.00        3335.50           6648          66.00       286.84
  913.03        3335.75           6651          76.00       330.43
  913.06        3336.00           6655          98.00       426.34
  913.09        3336.25           6659         399.00      1738.54
  913.12        3336.50           6663        2342.00     10211.50
  913.15        3336.75           6666        4173.00     18199.99
  913.18        3337.00           6670        6628.00     28916.97
  913.21        3337.25           6674        8811.00     38452.35
  913.24        3337.50           6677       10547.00     46039.14
  913.27        3337.75           6681       12932.00     56467.86
  913.30        3338.00           6685       15951.00     69678.19
  913.33        3338.25           6689       18663.00     81554.13
  913.36        3338.50           6692       20798.00     90909.33
  913.39        3338.75           6696       23240.00    101616.20
  913.42        3339.00           6700       25785.00    112782.00
  913.45        3339.25           6704       28306.00    123849.90
  913.48        3339.50           6707       30452.00    133277.30
  913.50        3339.75           6711       32761.00    143426.60
  913.53        3340.00           6715       34930.00    152966.30
  913.56        3340.25           6719       37646.00    164919.40
  913.59        3340.50           6722       39319.00    172286.60
  913.62        3340.75           6726       42273.00    185302.80
  913.65        3341.00           6730       44436.00    194840.00
  913.68        3341.25           6733       45500.00    199533.50
  913.71        3341.50           6737       45621.00    200067.30
  913.74        3341.75           6741       45695.00    200393.80
  913.77        3342.00           6745       44434.00    194831.20
  913.80        3342.25           6748       42712.00    187238.00
  913.83        3342.50           6752       40572.00    177806.40
  913.86        3342.75           6756       38142.00    167103.30
  913.89        3343.00           6760       35156.00    153960.60
  913.92        3343.25           6763       33086.00    144855.70
  913.95        3343.50           6767       30708.00    134402.20
  913.98        3343.75           6771       28058.00    122760.80
  914.01        3344.00           6775       25737.00    112571.30
  914.04        3344.25           6778       23967.00    104805.00
  914.07        3344.50           6782       21099.00     92228.68
  914.10        3344.75           6786       18792.00     82119.24
  914.13        3345.00           6790       15971.00     69765.75
  914.16        3345.25           6793       14080.00     61489.97
  914.19        3345.50           6797       11305.00     49352.88
  914.22        3345.75           6801        8452.00     36883.86
  914.25        3346.00           6805        5648.00     24638.08
  914.28        3346.25           6808        3754.00     16371.60
  914.31        3346.50           6812        1479.00      6447.63
  914.34        3346.75           6816         273.00      1189.23
  914.37        3347.00           6819         109.00       474.29
  914.40        3347.25           6823          88.00       382.74
  914.43        3347.50           6827          67.00       291.20
  914.46        3347.75           6831          69.00       299.92
  914.48        3348.00           6834          63.00       273.76
  914.51        3348.25           6838          69.00       299.92
  914.54        3348.50           6842          58.00       251.96
  914.57        3348.75           6846          56.00       243.25
  914.60        3349.00           6849          47.00       204.01
  914.63        3349.25           6853          53.00       230.17
  914.66        3349.50           6857          50.00       217.09
  914.69        3349.75           6861          51.00       221.45
  914.72        3350.00           6864          56.00       243.25
  914.75        3350.25           6868          52.00       225.81
  914.78        3350.50           6872          56.00       243.25
  914.81        3350.75           6876          56.00       243.25
  914.84        3351.00           6879          61.00       265.04
HL scan finished at 15:16:20
end
