************************************************************
  HS Scan of (1) Internal mercury lamp
************************************************************
Integration time is 0.2294 seconds per sample
dh090117DelftKZ 51.997-4.386 2.321352pr1000
************************************************************
Dead Time -------------------------  3E-08 
Number of Cycles Used -------------  4 
Starting Wavelength (Angstroms) ---  2950 
Final Wavelength (Angstoms) -------  2984 
Wavelength Increment (Angstroms) --  .25 
Filter Wheel #1 Position ---------- (1) Ground quartz diffuser (ND=2.32)
Filter Wheel #2 Position ---------- (1) Neutral Density 0.494



************************************************************
HS scan start time = 06:18:27
Dark Count =  0 


Time (GMT)  Wavelength (Ang)  Step Number  Raw Counts  Counts/Second

  378.91        2950.00           1229         137.00       597.22
  379.01        2950.25           1232         130.00       566.71
  379.04        2950.50           1236         135.00       588.50
  379.07        2950.75           1239         130.00       566.71
  379.09        2951.00           1242         130.00       566.71
  379.12        2951.25           1246         133.00       579.78
  379.15        2951.50           1249         133.00       579.78
  379.18        2951.75           1252         141.00       614.66
  379.21        2952.00           1255         128.00       557.99
  379.24        2952.25           1259         141.00       614.66
  379.26        2952.50           1262         131.00       571.06
  379.29        2952.75           1265         131.00       571.06
  379.32        2953.00           1269         132.00       575.42
  379.35        2953.25           1272         142.00       619.02
  379.37        2953.50           1275         125.00       544.91
  379.40        2953.75           1279         135.00       588.50
  379.43        2954.00           1282         125.00       544.91
  379.46        2954.25           1285         126.00       549.27
  379.48        2954.50           1289         130.00       566.71
  379.51        2954.75           1292         131.00       571.06
  379.54        2955.00           1295         130.00       566.71
  379.57        2955.25           1299         131.00       571.06
  379.60        2955.50           1302         129.00       562.35
  379.62        2955.75           1305         132.00       575.42
  379.65        2956.00           1309         123.00       536.19
  379.68        2956.25           1312         124.00       540.55
  379.71        2956.50           1315         129.00       562.35
  379.73        2956.75           1319         137.00       597.22
  379.76        2957.00           1322         138.00       601.58
  379.79        2957.25           1325         134.00       584.14
  379.82        2957.50           1329         129.00       562.35
  379.84        2957.75           1332         123.00       536.19
  379.87        2958.00           1335         117.00       510.03
  379.90        2958.25           1339         133.00       579.78
  379.93        2958.50           1342         131.00       571.06
  379.95        2958.75           1345         124.00       540.55
  379.98        2959.00           1349         126.00       549.27
  380.01        2959.25           1352         125.00       544.91
  380.04        2959.50           1355         118.00       514.39
  380.07        2959.75           1359         125.00       544.91
  380.09        2960.00           1362         134.00       584.14
  380.12        2960.25           1365         135.00       588.50
  380.15        2960.50           1369         144.00       627.74
  380.18        2960.75           1372         153.00       666.97
  380.21        2961.00           1375         148.00       645.17
  380.24        2961.25           1379         165.00       719.28
  380.26        2961.50           1382         246.00      1072.40
  380.29        2961.75           1385         642.00      2798.84
  380.32        2962.00           1389        2288.00      9976.83
  380.35        2962.25           1392        4190.00     18275.06
  380.38        2962.50           1395        6176.00     26944.18
  380.40        2962.75           1399        9318.00     40668.60
  380.43        2963.00           1402       11827.00     51636.17
  380.46        2963.25           1405       14309.00     62492.82
  380.49        2963.50           1409       17318.00     75664.15
  380.51        2963.75           1412       19219.00     83990.80
  380.54        2964.00           1415       21243.00     92860.78
  380.57        2964.25           1419       24098.00    105380.60
  380.60        2964.50           1422       26178.00    114507.80
  380.63        2964.75           1425       28698.00    125572.40
  380.65        2965.00           1429       31329.00    137132.30
  380.68        2965.25           1432       33155.00    145160.00
  380.71        2965.50           1435       35480.00    155387.00
  380.74        2965.75           1439       38530.00    168812.70
  380.76        2966.00           1442       40604.00    177948.30
  380.79        2966.25           1445       42884.00    187997.20
  380.82        2966.50           1449       44923.00    196989.00
  380.85        2966.75           1452       46438.00    203673.10
  380.87        2967.00           1455       46819.00    205354.50
  380.90        2967.25           1459       47165.00    206881.60
  380.93        2967.50           1462       46812.00    205323.60
  380.96        2967.75           1465       46879.00    205619.30
  380.99        2968.00           1469       45775.00    200747.60
  381.01        2968.25           1472       44313.00    194298.40
  381.04        2968.50           1475       42744.00    187379.90
  381.07        2968.75           1479       39893.00    174815.90
  381.10        2969.00           1482       37840.00    165774.40
  381.13        2969.25           1485       35978.00    157578.40
  381.15        2969.50           1489       33423.00    146338.50
  381.18        2969.75           1492       31242.00    136749.90
  381.21        2970.00           1495       29104.00    127355.80
  381.24        2970.25           1499       25502.00    111540.90
  381.27        2970.50           1502       23406.00    102345.20
  381.30        2970.75           1505       21198.00     92663.52
  381.33        2971.00           1509       18487.00     80784.04
  381.35        2971.25           1512       16274.00     71093.05
  381.38        2971.50           1515       14308.00     62488.44
  381.41        2971.75           1519       11119.00     48540.56
  381.44        2972.00           1522        9170.00     40021.87
  381.47        2972.25           1525        7563.00     33001.27
  381.49        2972.50           1529        4968.00     21670.58
  381.52        2972.75           1532        3181.00     13872.38
  381.55        2973.00           1536        1016.00      4429.53
  381.58        2973.25           1539         378.00      1647.86
  381.60        2973.50           1542         181.00       789.03
  381.63        2973.75           1546         147.00       640.81
  381.66        2974.00           1549         141.00       614.66
  381.69        2974.25           1552         132.00       575.42
  381.71        2974.50           1556         116.00       505.67
  381.74        2974.75           1559         115.00       501.32
  381.77        2975.00           1562         128.00       557.99
  381.80        2975.25           1566         114.00       496.96
  381.82        2975.50           1569         124.00       540.55
  381.85        2975.75           1572         104.00       453.36
  381.88        2976.00           1576         120.00       523.11
  381.91        2976.25           1579         117.00       510.03
  381.93        2976.50           1582         120.00       523.11
  381.96        2976.75           1586         111.00       483.88
  381.99        2977.00           1589         108.00       470.80
  382.02        2977.25           1592         113.00       492.60
  382.05        2977.50           1596         124.00       540.55
  382.07        2977.75           1599         105.00       457.72
  382.10        2978.00           1602         110.00       479.52
  382.13        2978.25           1606         114.00       496.96
  382.16        2978.50           1609         106.00       462.08
  382.19        2978.75           1612         106.00       462.08
  382.22        2979.00           1616         121.00       527.47
  382.24        2979.25           1619         106.00       462.08
  382.27        2979.50           1623         110.00       479.52
  382.30        2979.75           1626         104.00       453.36
  382.33        2980.00           1629         108.00       470.80
  382.36        2980.25           1633         111.00       483.88
  382.38        2980.50           1636         110.00       479.52
  382.41        2980.75           1639         115.00       501.32
  382.44        2981.00           1643         112.00       488.24
  382.47        2981.25           1646         115.00       501.32
  382.50        2981.50           1649         111.00       483.88
  382.53        2981.75           1653         106.00       462.08
  382.56        2982.00           1656         113.00       492.60
  382.59        2982.25           1659         103.00       449.00
  382.62        2982.50           1663         104.00       453.36
  382.64        2982.75           1666         119.00       518.75
  382.67        2983.00           1669         107.00       466.44
  382.70        2983.25           1673         106.00       462.08
  382.72        2983.50           1676         100.00       435.93
  382.75        2983.75           1679         110.00       479.52
  382.78        2984.00           1683         107.00       466.44
HS scan finished at 06:23:05
end
