************************************************************
  HS Scan of (1) Internal mercury lamp
************************************************************
Integration time is 0.2294 seconds per sample
dh030117DelftKZ 51.997-4.386 2.267704pr1000
************************************************************
Dead Time -------------------------  3E-08 
Number of Cycles Used -------------  4 
Starting Wavelength (Angstroms) ---  2950 
Final Wavelength (Angstoms) -------  2984 
Wavelength Increment (Angstroms) --  .25 
Filter Wheel #1 Position ---------- (1) Ground quartz diffuser (ND=2.32)
Filter Wheel #2 Position ---------- (1) Neutral Density 0.494



************************************************************
HS scan start time = 06:19:29
Dark Count =  .1 


Time (GMT)  Wavelength (Ang)  Step Number  Raw Counts  Counts/Second

  379.94        2950.00           1229         147.00       640.38
  380.04        2950.25           1232         125.00       544.47
  380.07        2950.50           1236         136.00       592.43
  380.09        2950.75           1239         137.00       596.78
  380.12        2951.00           1242         133.00       579.35
  380.15        2951.25           1246         132.00       574.99
  380.18        2951.50           1249         135.00       588.07
  380.20        2951.75           1252         128.00       557.55
  380.23        2952.00           1255         123.00       535.75
  380.26        2952.25           1259         133.00       579.35
  380.29        2952.50           1262         131.00       570.63
  380.31        2952.75           1265         128.00       557.55
  380.34        2953.00           1269         125.00       544.47
  380.37        2953.25           1272         126.00       548.83
  380.40        2953.50           1275         123.00       535.75
  380.42        2953.75           1279         129.00       561.91
  380.45        2954.00           1282         130.00       566.27
  380.48        2954.25           1285         129.00       561.91
  380.51        2954.50           1289         133.00       579.35
  380.54        2954.75           1292         130.00       566.27
  380.57        2955.00           1295         131.00       570.63
  380.59        2955.25           1299         128.00       557.55
  380.62        2955.50           1302         140.00       609.86
  380.65        2955.75           1305         126.00       548.83
  380.68        2956.00           1309         123.00       535.75
  380.71        2956.25           1312         122.00       531.39
  380.74        2956.50           1315         129.00       561.91
  380.77        2956.75           1319         132.00       574.99
  380.80        2957.00           1322         130.00       566.27
  380.82        2957.25           1325         124.00       540.11
  380.85        2957.50           1329         125.00       544.47
  380.88        2957.75           1332         131.00       570.63
  380.91        2958.00           1335         131.00       570.63
  380.93        2958.25           1339         130.00       566.27
  380.96        2958.50           1342         121.00       527.04
  380.99        2958.75           1345         129.00       561.91
  381.02        2959.00           1349         131.00       570.63
  381.05        2959.25           1352         129.00       561.91
  381.07        2959.50           1355         126.00       548.83
  381.10        2959.75           1359         140.00       609.86
  381.13        2960.00           1362         123.00       535.75
  381.16        2960.25           1365         128.00       557.55
  381.18        2960.50           1369         141.00       614.22
  381.21        2960.75           1372         147.00       640.38
  381.24        2961.00           1375         159.00       692.69
  381.27        2961.25           1379         170.00       740.64
  381.29        2961.50           1382         254.00      1106.84
  381.32        2961.75           1385         659.00      2872.52
  381.35        2962.00           1389        1962.00      8554.51
  381.38        2962.25           1392        3493.00     15233.20
  381.41        2962.50           1395        5463.00     23830.89
  381.43        2962.75           1399        8771.00     38278.02
  381.46        2963.00           1402       10826.00     47259.20
  381.49        2963.25           1405       12645.00     55213.00
  381.52        2963.50           1409       15575.00     68032.79
  381.54        2963.75           1412       17673.00     77218.35
  381.57        2964.00           1415       20157.00     88100.47
  381.60        2964.25           1419       22904.00    100143.10
  381.63        2964.50           1422       24636.00    107740.50
  381.66        2964.75           1425       26888.00    117624.00
  381.68        2965.00           1429       29777.00    130311.90
  381.71        2965.25           1432       31885.00    139575.80
  381.74        2965.50           1435       33787.00    147938.90
  381.77        2965.75           1439       37127.00    162635.10
  381.79        2966.00           1442       38964.00    170723.50
  381.82        2966.25           1445       40857.00    179062.60
  381.85        2966.50           1449       43287.00    189773.50
  381.88        2966.75           1452       43988.00    192864.60
  381.90        2967.00           1455       44275.00    194130.40
  381.93        2967.25           1459       44256.00    194046.60
  381.96        2967.50           1462       44383.00    194606.70
  381.99        2967.75           1465       44457.00    194933.10
  382.02        2968.00           1469       43239.00    189561.90
  382.04        2968.25           1472       41878.00    183562.10
  382.07        2968.50           1475       40212.00    176220.80
  382.10        2968.75           1479       37756.00    165404.20
  382.13        2969.00           1482       35805.00    156816.70
  382.15        2969.25           1485       33632.00    147257.20
  382.18        2969.50           1489       30936.00    135404.60
  382.21        2969.75           1492       28904.00    126476.80
  382.24        2970.00           1495       27322.00    119529.40
  382.27        2970.25           1499       24181.00    105744.30
  382.30        2970.50           1502       22450.00     98152.15
  382.33        2970.75           1505       20379.00     89073.37
  382.35        2971.00           1509       17541.00     76640.27
  382.38        2971.25           1512       15512.00     67757.04
  382.42        2971.50           1515       13415.00     58581.07
  382.44        2971.75           1519       10679.00     46616.59
  382.47        2972.00           1522        8812.00     38457.17
  382.50        2972.25           1525        6866.00     29956.73
  382.53        2972.50           1529        4175.00     18209.16
  382.56        2972.75           1532        2510.00     10944.74
  382.59        2973.00           1536        1091.00      4756.13
  382.62        2973.25           1539         463.00      2017.99
  382.64        2973.50           1542         197.00       858.35
  382.67        2973.75           1546         142.00       618.58
  382.70        2974.00           1549         128.00       557.55
  382.73        2974.25           1552         142.00       618.58
  382.75        2974.50           1556         123.00       535.75
  382.78        2974.75           1559         130.00       566.27
  382.81        2975.00           1562         124.00       540.11
  382.84        2975.25           1566         124.00       540.11
  382.86        2975.50           1569         122.00       531.39
  382.89        2975.75           1572         101.00       439.85
  382.92        2976.00           1576         117.00       509.60
  382.95        2976.25           1579         117.00       509.60
  382.98        2976.50           1582         106.00       461.65
  383.00        2976.75           1586         117.00       509.60
  383.03        2977.00           1589         117.00       509.60
  383.06        2977.25           1592         106.00       461.65
  383.09        2977.50           1596         114.00       496.52
  383.11        2977.75           1599         115.00       500.88
  383.14        2978.00           1602         122.00       531.39
  383.17        2978.25           1606         112.00       487.80
  383.20        2978.50           1609         120.00       522.68
  383.22        2978.75           1612         113.00       492.16
  383.25        2979.00           1616         108.00       470.36
  383.28        2979.25           1619         114.00       496.52
  383.31        2979.50           1623         115.00       500.88
  383.34        2979.75           1626         103.00       448.57
  383.37        2980.00           1629         113.00       492.16
  383.40        2980.25           1633         108.00       470.36
  383.42        2980.50           1636         118.00       513.96
  383.45        2980.75           1639         107.00       466.00
  383.48        2981.00           1643         111.00       483.44
  383.51        2981.25           1646         106.00       461.65
  383.53        2981.50           1649         106.00       461.65
  383.56        2981.75           1653         119.00       518.32
  383.59        2982.00           1656         106.00       461.65
  383.62        2982.25           1659         115.00       500.88
  383.64        2982.50           1663         105.00       457.29
  383.67        2982.75           1666         107.00       466.00
  383.70        2983.00           1669         102.00       444.21
  383.73        2983.25           1673         109.00       474.72
  383.75        2983.50           1676         108.00       470.36
  383.78        2983.75           1679         108.00       470.36
  383.81        2984.00           1683         110.00       479.08
HS scan finished at 06:24:07
end
