************************************************************
  HS Scan of (1) Internal mercury lamp
************************************************************
Integration time is 0.2294 seconds per sample
dh060117DelftKZ 51.997-4.386 2.10676pr1000
************************************************************
Dead Time -------------------------  3E-08 
Number of Cycles Used -------------  4 
Starting Wavelength (Angstroms) ---  2950 
Final Wavelength (Angstoms) -------  2984 
Wavelength Increment (Angstroms) --  .25 
Filter Wheel #1 Position ---------- (1) Ground quartz diffuser (ND=2.32)
Filter Wheel #2 Position ---------- (1) Neutral Density 0.494



************************************************************
HS scan start time = 00:30:46
Dark Count =  .1 


Time (GMT)  Wavelength (Ang)  Step Number  Raw Counts  Counts/Second

   31.22        2950.00           1229         132.00       574.99
   31.32        2950.25           1232         128.00       557.55
   31.35        2950.50           1236         141.00       614.22
   31.38        2950.75           1239         135.00       588.07
   31.41        2951.00           1242         128.00       557.55
   31.44        2951.25           1246         130.00       566.27
   31.46        2951.50           1249         142.00       618.58
   31.49        2951.75           1252         131.00       570.63
   31.52        2952.00           1255         132.00       574.99
   31.55        2952.25           1259         138.00       601.14
   31.57        2952.50           1262         144.00       627.30
   31.60        2952.75           1265         130.00       566.27
   31.63        2953.00           1269         135.00       588.07
   31.66        2953.25           1272         151.00       657.82
   31.69        2953.50           1275         113.00       492.16
   31.71        2953.75           1279         134.00       583.71
   31.74        2954.00           1282         141.00       614.22
   31.77        2954.25           1285         130.00       566.27
   31.80        2954.50           1289         131.00       570.63
   31.82        2954.75           1292         133.00       579.35
   31.85        2955.00           1295         136.00       592.43
   31.88        2955.25           1299         131.00       570.63
   31.91        2955.50           1302         122.00       531.39
   31.93        2955.75           1305         133.00       579.35
   31.96        2956.00           1309         138.00       601.14
   31.99        2956.25           1312         135.00       588.07
   32.02        2956.50           1315         134.00       583.71
   32.05        2956.75           1319         129.00       561.91
   32.07        2957.00           1322         123.00       535.75
   32.10        2957.25           1325         126.00       548.83
   32.13        2957.50           1329         130.00       566.27
   32.16        2957.75           1332         128.00       557.55
   32.18        2958.00           1335         119.00       518.32
   32.21        2958.25           1339         132.00       574.99
   32.24        2958.50           1342         119.00       518.32
   32.27        2958.75           1345         132.00       574.99
   32.30        2959.00           1349         128.00       557.55
   32.33        2959.25           1352         126.00       548.83
   32.36        2959.50           1355         125.00       544.47
   32.38        2959.75           1359         141.00       614.22
   32.41        2960.00           1362         130.00       566.27
   32.44        2960.25           1365         130.00       566.27
   32.47        2960.50           1369         144.00       627.30
   32.50        2960.75           1372         149.00       649.10
   32.52        2961.00           1375         161.00       701.41
   32.55        2961.25           1379         169.00       736.28
   32.58        2961.50           1382         232.00      1010.93
   32.61        2961.75           1385         608.00      2650.17
   32.63        2962.00           1389        1883.00      8209.96
   32.66        2962.25           1392        3477.00     15163.39
   32.69        2962.50           1395        5380.00     23468.57
   32.72        2962.75           1399        8456.00     36901.78
   32.75        2963.00           1402       10694.00     46682.16
   32.77        2963.25           1405       12453.00     54373.29
   32.80        2963.50           1409       15638.00     68308.54
   32.83        2963.75           1412       17889.00     78164.34
   32.86        2964.00           1415       19800.00     86536.06
   32.88        2964.25           1419       22902.00    100134.30
   32.91        2964.50           1422       25360.00    110917.30
   32.94        2964.75           1425       27380.00    119784.10
   32.97        2965.00           1429       30051.00    131515.70
   33.00        2965.25           1432       32179.00    140868.30
   33.02        2965.50           1435       34192.00    149720.20
   33.05        2965.75           1439       36759.00    161015.20
   33.08        2966.00           1442       38143.00    167108.10
   33.11        2966.25           1445       40243.00    176357.40
   33.14        2966.50           1449       42958.00    188322.90
   33.17        2966.75           1452       43928.00    192600.10
   33.19        2967.00           1455       44471.00    194994.80
   33.22        2967.25           1459       44667.00    195859.30
   33.25        2967.50           1462       44563.00    195400.60
   33.28        2967.75           1465       44274.00    194126.00
   33.31        2968.00           1469       43496.00    190695.10
   33.33        2968.25           1472       42149.00    184756.60
   33.36        2968.50           1475       40859.00    179071.50
   33.39        2968.75           1479       38519.00    168763.80
   33.42        2969.00           1482       36678.00    160658.70
   33.44        2969.25           1485       34683.00    151880.10
   33.47        2969.50           1489       31684.00    138692.30
   33.50        2969.75           1492       29572.00    129411.20
   33.53        2970.00           1495       27353.00    119665.50
   33.56        2970.25           1499       24410.00    106748.90
   33.58        2970.50           1502       22371.00     97805.75
   33.61        2970.75           1505       20360.00     88990.09
   33.64        2971.00           1509       17488.00     76408.16
   33.67        2971.25           1512       15591.00     68102.81
   33.69        2971.50           1515       13859.00     60523.49
   33.72        2971.75           1519       11305.00     49353.32
   33.75        2972.00           1522        9370.00     40895.39
   33.78        2972.25           1525        7132.00     31118.40
   33.81        2972.50           1529        4248.00     18527.73
   33.83        2972.75           1532        2343.00     10216.30
   33.86        2973.00           1536         951.00      4145.68
   33.89        2973.25           1539         429.00      1869.77
   33.92        2973.50           1542         202.00       880.15
   33.95        2973.75           1546         145.00       631.66
   33.98        2974.00           1549         140.00       609.86
   34.00        2974.25           1552         139.00       605.50
   34.03        2974.50           1556         124.00       540.11
   34.06        2974.75           1559         126.00       548.83
   34.09        2975.00           1562         121.00       527.04
   34.11        2975.25           1566         121.00       527.04
   34.14        2975.50           1569         122.00       531.39
   34.17        2975.75           1572         106.00       461.65
   34.20        2976.00           1576         124.00       540.11
   34.22        2976.25           1579         116.00       505.24
   34.25        2976.50           1582         115.00       500.88
   34.29        2976.75           1586         104.00       452.93
   34.32        2977.00           1589         116.00       505.24
   34.34        2977.25           1592         114.00       496.52
   34.37        2977.50           1596         119.00       518.32
   34.40        2977.75           1599         112.00       487.80
   34.43        2978.00           1602         111.00       483.44
   34.46        2978.25           1606         108.00       470.36
   34.48        2978.50           1609         120.00       522.68
   34.51        2978.75           1612         106.00       461.65
   34.54        2979.00           1616         109.00       474.72
   34.57        2979.25           1619         111.00       483.44
   34.59        2979.50           1623         107.00       466.00
   34.62        2979.75           1626         107.00       466.00
   34.65        2980.00           1629         112.00       487.80
   34.68        2980.25           1633         124.00       540.11
   34.70        2980.50           1636         111.00       483.44
   34.73        2980.75           1639         113.00       492.16
   34.76        2981.00           1643         101.00       439.85
   34.79        2981.25           1646         108.00       470.36
   34.81        2981.50           1649         115.00       500.88
   34.84        2981.75           1653         110.00       479.08
   34.87        2982.00           1656         105.00       457.29
   34.90        2982.25           1659         108.00       470.36
   34.93        2982.50           1663         113.00       492.16
   34.95        2982.75           1666         115.00       500.88
   34.98        2983.00           1669         108.00       470.36
   35.01        2983.25           1673         118.00       513.96
   35.04        2983.50           1676         112.00       487.80
   35.06        2983.75           1679         113.00       492.16
   35.09        2984.00           1683         106.00       461.65
HS scan finished at 00:35:23
end
************************************************************
  HS Scan of (1) Internal mercury lamp
************************************************************
Integration time is 0.2294 seconds per sample
dh060117DelftKZ 51.997-4.386 2.10676pr1000
************************************************************
Dead Time -------------------------  3E-08 
Number of Cycles Used -------------  4 
Starting Wavelength (Angstroms) ---  2950 
Final Wavelength (Angstoms) -------  2984 
Wavelength Increment (Angstroms) --  .25 
Filter Wheel #1 Position ---------- (1) Ground quartz diffuser (ND=2.32)
Filter Wheel #2 Position ---------- (1) Neutral Density 0.494



************************************************************
HS scan start time = 06:19:10
Dark Count =  0 


Time (GMT)  Wavelength (Ang)  Step Number  Raw Counts  Counts/Second

  379.61        2950.00           1229         131.00       571.06
  379.71        2950.25           1232         133.00       579.78
  379.74        2950.50           1236         136.00       592.86
  379.76        2950.75           1239         146.00       636.46
  379.79        2951.00           1242         125.00       544.91
  379.82        2951.25           1246         130.00       566.71
  379.85        2951.50           1249         128.00       557.99
  379.87        2951.75           1252         129.00       562.35
  379.90        2952.00           1255         134.00       584.14
  379.93        2952.25           1259         131.00       571.06
  379.96        2952.50           1262         124.00       540.55
  379.98        2952.75           1265         136.00       592.86
  380.01        2953.00           1269         136.00       592.86
  380.04        2953.25           1272         124.00       540.55
  380.07        2953.50           1275         135.00       588.50
  380.10        2953.75           1279         128.00       557.99
  380.12        2954.00           1282         132.00       575.42
  380.15        2954.25           1285         126.00       549.27
  380.18        2954.50           1289         129.00       562.35
  380.21        2954.75           1292         136.00       592.86
  380.23        2955.00           1295         139.00       605.94
  380.26        2955.25           1299         130.00       566.71
  380.29        2955.50           1302         132.00       575.42
  380.32        2955.75           1305         121.00       527.47
  380.34        2956.00           1309         127.00       553.63
  380.37        2956.25           1312         123.00       536.19
  380.40        2956.50           1315         136.00       592.86
  380.43        2956.75           1319         132.00       575.42
  380.45        2957.00           1322         125.00       544.91
  380.48        2957.25           1325         139.00       605.94
  380.51        2957.50           1329         122.00       531.83
  380.54        2957.75           1332         121.00       527.47
  380.56        2958.00           1335         120.00       523.11
  380.59        2958.25           1339         125.00       544.91
  380.62        2958.50           1342         122.00       531.83
  380.65        2958.75           1345         130.00       566.71
  380.68        2959.00           1349         132.00       575.42
  380.70        2959.25           1352         122.00       531.83
  380.73        2959.50           1355         122.00       531.83
  380.76        2959.75           1359         121.00       527.47
  380.79        2960.00           1362         130.00       566.71
  380.81        2960.25           1365         136.00       592.86
  380.84        2960.50           1369         142.00       619.02
  380.87        2960.75           1372         149.00       649.53
  380.90        2961.00           1375         147.00       640.81
  380.92        2961.25           1379         153.00       666.97
  380.95        2961.50           1382         228.00       993.93
  380.98        2961.75           1385         589.00      2567.77
  381.01        2962.00           1389        1987.00      8663.98
  381.03        2962.25           1392        3421.00     14919.49
  381.06        2962.50           1395        4872.00     21251.56
  381.09        2962.75           1399        7527.00     32844.03
  381.12        2963.00           1402        9803.00     42788.11
  381.14        2963.25           1405       11690.00     51037.11
  381.17        2963.50           1409       14660.00     64028.72
  381.20        2963.75           1412       16694.00     72931.85
  381.23        2964.00           1415       18773.00     82036.88
  381.25        2964.25           1419       21210.00     92716.12
  381.28        2964.50           1422       23418.00    102397.80
  381.31        2964.75           1425       25212.00    110268.30
  381.34        2965.00           1429       27615.00    120816.40
  381.37        2965.25           1432       29349.00    128432.00
  381.39        2965.50           1435       30840.00    134983.20
  381.42        2965.75           1439       33627.00    147235.70
  381.45        2966.00           1442       35259.00    154414.60
  381.48        2966.25           1445       37670.00    165026.00
  381.50        2966.50           1449       39608.00    173560.50
  381.53        2966.75           1452       40452.00    177278.60
  381.56        2967.00           1455       40936.00    179411.20
  381.59        2967.25           1459       41126.00    180248.40
  381.61        2967.50           1462       41086.00    180072.20
  381.64        2967.75           1465       40950.00    179472.90
  381.67        2968.00           1469       40404.00    177067.10
  381.70        2968.25           1472       39278.00    172106.90
  381.73        2968.50           1475       37922.00    166135.50
  381.75        2968.75           1479       35757.00    156605.90
  381.78        2969.00           1482       33618.00    147196.10
  381.81        2969.25           1485       31766.00    139053.10
  381.84        2969.50           1489       28794.00    125994.10
  381.86        2969.75           1492       27036.00    118274.20
  381.89        2970.00           1495       25497.00    111519.00
  381.92        2970.25           1499       22400.00     97933.34
  381.95        2970.50           1502       20406.00     89192.13
  381.98        2970.75           1505       18780.00     82067.54
  382.00        2971.00           1509       16581.00     72437.10
  382.03        2971.25           1512       14580.00     63678.64
  382.06        2971.50           1515       12832.00     56031.34
  382.09        2971.75           1519        9860.00     43037.23
  382.11        2972.00           1522        7856.00     34281.10
  382.14        2972.25           1525        6158.00     26865.59
  382.17        2972.50           1529        4015.00     17511.38
  382.20        2972.75           1532        2412.00     10517.70
  382.23        2973.00           1536         910.00      3967.34
  382.26        2973.25           1539         374.00      1630.42
  382.29        2973.50           1542         179.00       780.31
  382.32        2973.75           1546         143.00       623.38
  382.35        2974.00           1549         134.00       584.14
  382.38        2974.25           1552         126.00       549.27
  382.41        2974.50           1556         125.00       544.91
  382.44        2974.75           1559         118.00       514.39
  382.47        2975.00           1562         117.00       510.03
  382.50        2975.25           1566         111.00       483.88
  382.53        2975.50           1569         100.00       435.93
  382.55        2975.75           1572         122.00       531.83
  382.58        2976.00           1576         127.00       553.63
  382.61        2976.25           1579         100.00       435.93
  382.64        2976.50           1582         110.00       479.52
  382.66        2976.75           1586         101.00       440.28
  382.69        2977.00           1589         113.00       492.60
  382.72        2977.25           1592         108.00       470.80
  382.75        2977.50           1596         111.00       483.88
  382.77        2977.75           1599         115.00       501.32
  382.80        2978.00           1602         102.00       444.64
  382.83        2978.25           1606         106.00       462.08
  382.86        2978.50           1609         114.00       496.96
  382.89        2978.75           1612         108.00       470.80
  382.91        2979.00           1616         102.00       444.64
  382.94        2979.25           1619         125.00       544.91
  382.97        2979.50           1623         108.00       470.80
  383.00        2979.75           1626         108.00       470.80
  383.03        2980.00           1629         111.00       483.88
  383.06        2980.25           1633         114.00       496.96
  383.08        2980.50           1636         120.00       523.11
  383.11        2980.75           1639         114.00       496.96
  383.14        2981.00           1643          98.00       427.21
  383.17        2981.25           1646         104.00       453.36
  383.20        2981.50           1649         112.00       488.24
  383.22        2981.75           1653         108.00       470.80
  383.25        2982.00           1656         109.00       475.16
  383.28        2982.25           1659          98.00       427.21
  383.31        2982.50           1663         110.00       479.52
  383.33        2982.75           1666         107.00       466.44
  383.36        2983.00           1669          97.00       422.85
  383.39        2983.25           1673          98.00       427.21
  383.42        2983.50           1676          93.00       405.41
  383.44        2983.75           1679         105.00       457.72
  383.47        2984.00           1683          97.00       422.85
HS scan finished at 06:23:46
end
