************************************************************
  HS Scan of (1) Internal mercury lamp
************************************************************
Integration time is 0.2294 seconds per sample
dh010117DelftKZ 51.997-4.386 2.160408pr1000
************************************************************
Dead Time -------------------------  3E-08 
Number of Cycles Used -------------  4 
Starting Wavelength (Angstroms) ---  2950 
Final Wavelength (Angstoms) -------  2984 
Wavelength Increment (Angstroms) --  .25 
Filter Wheel #1 Position ---------- (1) Ground quartz diffuser (ND=2.32)
Filter Wheel #2 Position ---------- (1) Neutral Density 0.494



************************************************************
HS scan start time = 06:19:27
Dark Count =  .1 


Time (GMT)  Wavelength (Ang)  Step Number  Raw Counts  Counts/Second

  379.90        2950.00           1229         130.00       566.27
  380.00        2950.25           1232         120.00       522.68
  380.03        2950.50           1236         134.00       583.71
  380.06        2950.75           1239         130.00       566.27
  380.08        2951.00           1242         140.00       609.86
  380.11        2951.25           1246         134.00       583.71
  380.14        2951.50           1249         124.00       540.11
  380.17        2951.75           1252         133.00       579.35
  380.20        2952.00           1255         137.00       596.78
  380.22        2952.25           1259         134.00       583.71
  380.25        2952.50           1262         139.00       605.50
  380.28        2952.75           1265         120.00       522.68
  380.31        2953.00           1269         136.00       592.43
  380.34        2953.25           1272         135.00       588.07
  380.37        2953.50           1275         139.00       605.50
  380.39        2953.75           1279         123.00       535.75
  380.42        2954.00           1282         127.00       553.19
  380.45        2954.25           1285         134.00       583.71
  380.48        2954.50           1289         118.00       513.96
  380.51        2954.75           1292         123.00       535.75
  380.53        2955.00           1295         123.00       535.75
  380.56        2955.25           1299         125.00       544.47
  380.59        2955.50           1302         131.00       570.63
  380.62        2955.75           1305         128.00       557.55
  380.64        2956.00           1309         126.00       548.83
  380.67        2956.25           1312         127.00       553.19
  380.70        2956.50           1315         119.00       518.32
  380.73        2956.75           1319         135.00       588.07
  380.75        2957.00           1322         129.00       561.91
  380.78        2957.25           1325         135.00       588.07
  380.81        2957.50           1329         128.00       557.55
  380.84        2957.75           1332         131.00       570.63
  380.86        2958.00           1335         126.00       548.83
  380.89        2958.25           1339         126.00       548.83
  380.92        2958.50           1342         137.00       596.78
  380.95        2958.75           1345         129.00       561.91
  380.97        2959.00           1349         115.00       500.88
  381.00        2959.25           1352         120.00       522.68
  381.03        2959.50           1355         120.00       522.68
  381.06        2959.75           1359         115.00       500.88
  381.08        2960.00           1362         138.00       601.14
  381.11        2960.25           1365         138.00       601.14
  381.14        2960.50           1369         132.00       574.99
  381.17        2960.75           1372         147.00       640.38
  381.20        2961.00           1375         150.00       653.46
  381.22        2961.25           1379         157.00       683.97
  381.25        2961.50           1382         215.00       936.82
  381.28        2961.75           1385         668.00      2911.76
  381.31        2962.00           1389        2160.00      9418.09
  381.33        2962.25           1392        3765.00     16420.03
  381.36        2962.50           1395        5165.00     22530.05
  381.39        2962.75           1399        7605.00     33184.29
  381.42        2963.00           1402        9761.00     42604.12
  381.45        2963.25           1405       11700.00     51080.40
  381.47        2963.50           1409       14512.00     63380.64
  381.50        2963.75           1412       16530.00     72213.38
  381.53        2964.00           1415       18224.00     79631.60
  381.56        2964.25           1419       20682.00     90401.34
  381.58        2964.50           1422       22793.00     99656.27
  381.61        2964.75           1425       25066.00    109627.20
  381.64        2965.00           1429       27669.00    121053.00
  381.67        2965.25           1432       29254.00    128014.20
  381.70        2965.50           1435       31020.00    135773.80
  381.72        2965.75           1439       33814.00    148057.70
  381.75        2966.00           1442       35814.00    156856.30
  381.78        2966.25           1445       37490.00    164233.10
  381.81        2966.50           1449       40140.00    175903.60
  381.84        2966.75           1452       40753.00    178604.40
  381.87        2967.00           1455       41136.00    180292.10
  381.90        2967.25           1459       41417.00    181530.40
  381.92        2967.50           1462       41308.00    181050.00
  381.95        2967.75           1465       41098.00    180124.60
  381.98        2968.00           1469       40042.00    175471.90
  382.01        2968.25           1472       39225.00    171873.00
  382.03        2968.50           1475       37701.00    165162.00
  382.06        2968.75           1479       35478.00    155377.80
  382.09        2969.00           1482       33412.00    146289.70
  382.12        2969.25           1485       31571.00    138195.60
  382.14        2969.50           1489       29202.00    127785.80
  382.17        2969.75           1492       27226.00    119107.90
  382.20        2970.00           1495       25316.00    110724.20
  382.23        2970.25           1499       22641.00     98989.71
  382.26        2970.50           1502       20557.00     89853.49
  382.28        2970.75           1505       18739.00     81887.50
  382.31        2971.00           1509       16464.00     71924.43
  382.34        2971.25           1512       14674.00     64089.55
  382.37        2971.50           1515       13126.00     57316.87
  382.40        2971.75           1519       10352.00     45187.20
  382.42        2972.00           1522        8384.00     36587.22
  382.45        2972.25           1525        6633.00     28939.24
  382.48        2972.50           1529        4023.00     17545.85
  382.51        2972.75           1532        2371.00     10338.43
  382.53        2973.00           1536         925.00      4032.31
  382.56        2973.25           1539         364.00      1586.39
  382.59        2973.50           1542         178.00       775.52
  382.62        2973.75           1546         138.00       601.14
  382.65        2974.00           1549         132.00       574.99
  382.68        2974.25           1552         129.00       561.91
  382.71        2974.50           1556         125.00       544.47
  382.73        2974.75           1559         119.00       518.32
  382.76        2975.00           1562         121.00       527.04
  382.79        2975.25           1566         105.00       457.29
  382.82        2975.50           1569         116.00       505.24
  382.84        2975.75           1572         117.00       509.60
  382.87        2976.00           1576         101.00       439.85
  382.90        2976.25           1579         121.00       527.04
  382.93        2976.50           1582         105.00       457.29
  382.95        2976.75           1586         108.00       470.36
  382.98        2977.00           1589         104.00       452.93
  383.01        2977.25           1592         113.00       492.16
  383.04        2977.50           1596         114.00       496.52
  383.06        2977.75           1599         109.00       474.72
  383.09        2978.00           1602         101.00       439.85
  383.12        2978.25           1606          95.00       413.69
  383.15        2978.50           1609         115.00       500.88
  383.18        2978.75           1612         104.00       452.93
  383.20        2979.00           1616         111.00       483.44
  383.23        2979.25           1619         109.00       474.72
  383.26        2979.50           1623         112.00       487.80
  383.29        2979.75           1626         116.00       505.24
  383.31        2980.00           1629         110.00       479.08
  383.35        2980.25           1633         109.00       474.72
  383.38        2980.50           1636         112.00       487.80
  383.41        2980.75           1639         102.00       444.21
  383.43        2981.00           1643         115.00       500.88
  383.46        2981.25           1646         114.00       496.52
  383.49        2981.50           1649         106.00       461.65
  383.52        2981.75           1653         107.00       466.00
  383.54        2982.00           1656         104.00       452.93
  383.57        2982.25           1659         102.00       444.21
  383.60        2982.50           1663         107.00       466.00
  383.63        2982.75           1666          94.00       409.33
  383.66        2983.00           1669         100.00       435.49
  383.69        2983.25           1673         109.00       474.72
  383.71        2983.50           1676          98.00       426.77
  383.74        2983.75           1679         107.00       466.00
  383.77        2984.00           1683         101.00       439.85
HS scan finished at 06:24:04
end
