************************************************************
  HS Scan of (1) Internal mercury lamp
************************************************************
Integration time is 0.2294 seconds per sample
dh040117DelftKZ 51.997-4.386 2.375pr1000
************************************************************
Dead Time -------------------------  3E-08 
Number of Cycles Used -------------  4 
Starting Wavelength (Angstroms) ---  2950 
Final Wavelength (Angstoms) -------  2984 
Wavelength Increment (Angstroms) --  .25 
Filter Wheel #1 Position ---------- (1) Ground quartz diffuser (ND=2.32)
Filter Wheel #2 Position ---------- (1) Neutral Density 0.494



************************************************************
HS scan start time = 06:19:16
Dark Count =  .1 


Time (GMT)  Wavelength (Ang)  Step Number  Raw Counts  Counts/Second

  379.72        2950.00           1229         136.00       592.43
  379.82        2950.25           1232         139.00       605.50
  379.85        2950.50           1236         134.00       583.71
  379.87        2950.75           1239         147.00       640.38
  379.90        2951.00           1242         142.00       618.58
  379.93        2951.25           1246         128.00       557.55
  379.96        2951.50           1249         130.00       566.27
  379.99        2951.75           1252         124.00       540.11
  380.02        2952.00           1255         133.00       579.35
  380.04        2952.25           1259         134.00       583.71
  380.07        2952.50           1262         129.00       561.91
  380.10        2952.75           1265         144.00       627.30
  380.13        2953.00           1269         133.00       579.35
  380.15        2953.25           1272         120.00       522.68
  380.18        2953.50           1275         135.00       588.07
  380.21        2953.75           1279         131.00       570.63
  380.24        2954.00           1282         126.00       548.83
  380.27        2954.25           1285         126.00       548.83
  380.29        2954.50           1289         128.00       557.55
  380.32        2954.75           1292         124.00       540.11
  380.35        2955.00           1295         138.00       601.14
  380.38        2955.25           1299         126.00       548.83
  380.40        2955.50           1302         124.00       540.11
  380.43        2955.75           1305         137.00       596.78
  380.46        2956.00           1309         124.00       540.11
  380.49        2956.25           1312         128.00       557.55
  380.51        2956.50           1315         117.00       509.60
  380.54        2956.75           1319         131.00       570.63
  380.57        2957.00           1322         122.00       531.39
  380.60        2957.25           1325         128.00       557.55
  380.62        2957.50           1329         129.00       561.91
  380.65        2957.75           1332         127.00       553.19
  380.68        2958.00           1335         132.00       574.99
  380.71        2958.25           1339         134.00       583.71
  380.73        2958.50           1342         124.00       540.11
  380.76        2958.75           1345         119.00       518.32
  380.79        2959.00           1349         126.00       548.83
  380.82        2959.25           1352         127.00       553.19
  380.85        2959.50           1355         122.00       531.39
  380.88        2959.75           1359         137.00       596.78
  380.91        2960.00           1362         123.00       535.75
  380.94        2960.25           1365         135.00       588.07
  380.97        2960.50           1369         151.00       657.82
  381.00        2960.75           1372         154.00       670.89
  381.03        2961.00           1375         156.00       679.61
  381.05        2961.25           1379         173.00       753.72
  381.08        2961.50           1382         248.00      1080.68
  381.11        2961.75           1385         698.00      3042.56
  381.14        2962.00           1389        2045.00      8916.51
  381.16        2962.25           1392        3687.00     16079.68
  381.19        2962.50           1395        5742.00     25048.90
  381.22        2962.75           1399        9081.00     39632.54
  381.25        2963.00           1402       11507.00     50236.51
  381.27        2963.25           1405       13419.00     58598.57
  381.30        2963.50           1409       16479.00     71990.10
  381.33        2963.75           1412       19018.00     83109.75
  381.36        2964.00           1415       21481.00     93903.66
  381.39        2964.25           1419       24597.00    107569.30
  381.41        2964.50           1422       26897.00    117663.50
  381.44        2964.75           1425       29150.00    127557.40
  381.47        2965.00           1429       32110.00    140564.90
  381.50        2965.25           1432       34282.00    150116.10
  381.54        2965.50           1435       36625.00    160425.40
  381.56        2965.75           1439       39592.00    173489.50
  381.59        2966.00           1442       41453.00    181689.00
  381.62        2966.25           1445       42993.00    188477.30
  381.65        2966.50           1449       45879.00    201206.10
  381.67        2966.75           1452       47175.00    206925.30
  381.70        2967.00           1455       47493.00    208328.90
  381.73        2967.25           1459       47463.00    208196.50
  381.76        2967.50           1462       47555.00    208602.60
  381.79        2967.75           1465       47577.00    208699.70
  381.81        2968.00           1469       46356.00    203310.80
  381.84        2968.25           1472       45179.00    198117.80
  381.87        2968.50           1475       43185.00    189323.80
  381.90        2968.75           1479       40727.00    178489.80
  381.92        2969.00           1482       38912.00    170494.50
  381.95        2969.25           1485       36944.00    161829.50
  381.98        2969.50           1489       33964.00    148717.40
  382.01        2969.75           1492       31528.00    138006.60
  382.03        2970.00           1495       29406.00    128682.00
  382.06        2970.25           1499       25911.00    113335.40
  382.09        2970.50           1502       23817.00    104147.50
  382.12        2970.75           1505       21828.00     95424.93
  382.15        2971.00           1509       18769.00     82018.91
  382.17        2971.25           1512       16379.00     71552.30
  382.21        2971.50           1515       14346.00     62654.28
  382.24        2971.75           1519       11909.00     51994.30
  382.27        2972.00           1522        9822.00     42870.71
  382.30        2972.25           1525        7643.00     33350.27
  382.32        2972.50           1529        4643.00     20251.62
  382.35        2972.75           1532        2495.00     10879.31
  382.38        2973.00           1536         890.00      3879.70
  382.41        2973.25           1539         398.00      1734.62
  382.43        2973.50           1542         182.00       792.96
  382.46        2973.75           1546         156.00       679.61
  382.49        2974.00           1549         146.00       636.02
  382.52        2974.25           1552         139.00       605.50
  382.54        2974.50           1556         129.00       561.91
  382.57        2974.75           1559         118.00       513.96
  382.60        2975.00           1562         113.00       492.16
  382.63        2975.25           1566         120.00       522.68
  382.66        2975.50           1569         109.00       474.72
  382.68        2975.75           1572         104.00       452.93
  382.71        2976.00           1576         117.00       509.60
  382.74        2976.25           1579         115.00       500.88
  382.77        2976.50           1582         111.00       483.44
  382.79        2976.75           1586         115.00       500.88
  382.82        2977.00           1589         117.00       509.60
  382.85        2977.25           1592         112.00       487.80
  382.88        2977.50           1596         114.00       496.52
  382.90        2977.75           1599         110.00       479.08
  382.93        2978.00           1602         114.00       496.52
  382.96        2978.25           1606         109.00       474.72
  382.99        2978.50           1609         106.00       461.65
  383.02        2978.75           1612         115.00       500.88
  383.05        2979.00           1616         118.00       513.96
  383.08        2979.25           1619         112.00       487.80
  383.10        2979.50           1623         102.00       444.21
  383.13        2979.75           1626         107.00       466.00
  383.16        2980.00           1629         104.00       452.93
  383.19        2980.25           1633         111.00       483.44
  383.21        2980.50           1636         104.00       452.93
  383.24        2980.75           1639         108.00       470.36
  383.27        2981.00           1643         112.00       487.80
  383.30        2981.25           1646         107.00       466.00
  383.32        2981.50           1649         104.00       452.93
  383.35        2981.75           1653          98.00       426.77
  383.38        2982.00           1656          98.00       426.77
  383.41        2982.25           1659         108.00       470.36
  383.43        2982.50           1663         113.00       492.16
  383.46        2982.75           1666         108.00       470.36
  383.49        2983.00           1669          99.00       431.13
  383.52        2983.25           1673          95.00       413.69
  383.55        2983.50           1676         110.00       479.08
  383.58        2983.75           1679         109.00       474.72
  383.61        2984.00           1683         101.00       439.85
HS scan finished at 06:23:55
end
