************************************************************
  HS Scan of (1) Internal mercury lamp
************************************************************
Integration time is 0.2294 seconds per sample
dh140117DelftKZ 51.997-4.386 2.214056pr1000
************************************************************
Dead Time -------------------------  3E-08 
Number of Cycles Used -------------  4 
Starting Wavelength (Angstroms) ---  2950 
Final Wavelength (Angstoms) -------  2984 
Wavelength Increment (Angstroms) --  .25 
Filter Wheel #1 Position ---------- (1) Ground quartz diffuser (ND=2.32)
Filter Wheel #2 Position ---------- (1) Neutral Density 0.494



************************************************************
HS scan start time = 06:16:19
Dark Count =  .1 


Time (GMT)  Wavelength (Ang)  Step Number  Raw Counts  Counts/Second

  376.76        2950.00           1229         139.00       605.50
  376.86        2950.25           1232         133.00       579.35
  376.89        2950.50           1236         137.00       596.78
  376.92        2950.75           1239         124.00       540.11
  376.95        2951.00           1242         134.00       583.71
  376.97        2951.25           1246         127.00       553.19
  377.00        2951.50           1249         128.00       557.55
  377.03        2951.75           1252         130.00       566.27
  377.06        2952.00           1255         130.00       566.27
  377.09        2952.25           1259         135.00       588.07
  377.12        2952.50           1262         132.00       574.99
  377.14        2952.75           1265         131.00       570.63
  377.17        2953.00           1269         136.00       592.43
  377.20        2953.25           1272         134.00       583.71
  377.23        2953.50           1275         125.00       544.47
  377.26        2953.75           1279         128.00       557.55
  377.28        2954.00           1282         126.00       548.83
  377.31        2954.25           1285         126.00       548.83
  377.34        2954.50           1289         133.00       579.35
  377.37        2954.75           1292         135.00       588.07
  377.39        2955.00           1295         127.00       553.19
  377.42        2955.25           1299         129.00       561.91
  377.45        2955.50           1302         117.00       509.60
  377.48        2955.75           1305         136.00       592.43
  377.50        2956.00           1309         137.00       596.78
  377.53        2956.25           1312         129.00       561.91
  377.56        2956.50           1315         119.00       518.32
  377.59        2956.75           1319         122.00       531.39
  377.61        2957.00           1322         123.00       535.75
  377.64        2957.25           1325         118.00       513.96
  377.67        2957.50           1329         123.00       535.75
  377.70        2957.75           1332         119.00       518.32
  377.72        2958.00           1335         124.00       540.11
  377.75        2958.25           1339         127.00       553.19
  377.78        2958.50           1342         115.00       500.88
  377.81        2958.75           1345         113.00       492.16
  377.84        2959.00           1349         131.00       570.63
  377.86        2959.25           1352         123.00       535.75
  377.89        2959.50           1355         134.00       583.71
  377.92        2959.75           1359         116.00       505.24
  377.95        2960.00           1362         135.00       588.07
  377.97        2960.25           1365         135.00       588.07
  378.00        2960.50           1369         140.00       609.86
  378.03        2960.75           1372         140.00       609.86
  378.06        2961.00           1375         149.00       649.10
  378.09        2961.25           1379         157.00       683.97
  378.11        2961.50           1382         200.00       871.43
  378.14        2961.75           1385         575.00      2506.29
  378.17        2962.00           1389        1781.00      7765.10
  378.20        2962.25           1392        3064.00     13361.50
  378.23        2962.50           1395        4681.00     20417.47
  378.26        2962.75           1399        7527.00     32843.59
  378.29        2963.00           1402        9583.00     41826.22
  378.31        2963.25           1405       11884.00     51884.97
  378.34        2963.50           1409       14671.00     64076.42
  378.37        2963.75           1412       16666.00     72808.82
  378.40        2964.00           1415       18494.00     80814.26
  378.43        2964.25           1419       21121.00     92325.56
  378.46        2964.50           1422       23135.00    101156.10
  378.49        2964.75           1425       25098.00    109767.60
  378.52        2965.00           1429       27141.00    118734.80
  378.55        2965.25           1432       28950.00    126678.90
  378.57        2965.50           1435       30698.00    134358.70
  378.60        2965.75           1439       33354.00    146034.60
  378.63        2966.00           1442       35308.00    154629.80
  378.66        2966.25           1445       37311.00    163445.10
  378.68        2966.50           1449       39508.00    173119.50
  378.71        2966.75           1452       40476.00    177383.90
  378.74        2967.00           1455       41068.00    179992.40
  378.77        2967.25           1459       41256.00    180820.90
  378.79        2967.50           1462       41116.00    180203.90
  378.82        2967.75           1465       40952.00    179481.30
  378.85        2968.00           1469       40428.00    177172.40
  378.88        2968.25           1472       39459.00    172903.70
  378.91        2968.50           1475       38163.00    167196.20
  378.94        2968.75           1479       35614.00    155976.20
  378.96        2969.00           1482       33579.00    147024.10
  378.99        2969.25           1485       31732.00    138903.30
  379.02        2969.50           1489       29149.00    127553.00
  379.05        2969.75           1492       27442.00    120056.30
  379.08        2970.00           1495       25343.00    110842.70
  379.10        2970.25           1499       22696.00     99230.88
  379.13        2970.50           1502       21017.00     91869.69
  379.17        2970.75           1505       19275.00     84235.71
  379.20        2971.00           1509       16639.00     72690.60
  379.22        2971.25           1512       14706.00     64229.58
  379.25        2971.50           1515       12700.00     55453.56
  379.28        2971.75           1519        9926.00     43325.24
  379.31        2972.00           1522        8223.00     35883.86
  379.33        2972.25           1525        6524.00     28463.27
  379.36        2972.50           1529        4132.00     18021.51
  379.39        2972.75           1532        2448.00     10674.30
  379.42        2973.00           1536         886.00      3862.26
  379.44        2973.25           1539         402.00      1752.05
  379.47        2973.50           1542         188.00       819.11
  379.50        2973.75           1546         141.00       614.22
  379.53        2974.00           1549         141.00       614.22
  379.56        2974.25           1552         124.00       540.11
  379.58        2974.50           1556         116.00       505.24
  379.61        2974.75           1559         119.00       518.32
  379.64        2975.00           1562         109.00       474.72
  379.67        2975.25           1566         117.00       509.60
  379.69        2975.50           1569         113.00       492.16
  379.72        2975.75           1572         105.00       457.29
  379.75        2976.00           1576         110.00       479.08
  379.78        2976.25           1579         105.00       457.29
  379.80        2976.50           1582         108.00       470.36
  379.83        2976.75           1586         107.00       466.00
  379.86        2977.00           1589         107.00       466.00
  379.89        2977.25           1592         111.00       483.44
  379.91        2977.50           1596         111.00       483.44
  379.94        2977.75           1599         103.00       448.57
  379.97        2978.00           1602         108.00       470.36
  380.00        2978.25           1606         113.00       492.16
  380.02        2978.50           1609         116.00       505.24
  380.05        2978.75           1612         109.00       474.72
  380.08        2979.00           1616         112.00       487.80
  380.11        2979.25           1619         104.00       452.93
  380.14        2979.50           1623         110.00       479.08
  380.16        2979.75           1626          95.00       413.69
  380.19        2980.00           1629         111.00       483.44
  380.22        2980.25           1633          96.00       418.05
  380.25        2980.50           1636         117.00       509.60
  380.28        2980.75           1639         101.00       439.85
  380.31        2981.00           1643         112.00       487.80
  380.33        2981.25           1646         107.00       466.00
  380.36        2981.50           1649         100.00       435.49
  380.39        2981.75           1653          98.00       426.77
  380.42        2982.00           1656          98.00       426.77
  380.45        2982.25           1659          96.00       418.05
  380.47        2982.50           1663          98.00       426.77
  380.50        2982.75           1666         105.00       457.29
  380.53        2983.00           1669         112.00       487.80
  380.56        2983.25           1673         118.00       513.96
  380.58        2983.50           1676          98.00       426.77
  380.61        2983.75           1679          99.00       431.13
  380.64        2984.00           1683         118.00       513.96
HS scan finished at 06:20:56
end
