************************************************************
  HS Scan of (1) Internal mercury lamp
************************************************************
Integration time is 0.2294 seconds per sample
dh190117DelftKZ 51.997-4.386 2.10676pr1000
************************************************************
Dead Time -------------------------  3E-08 
Number of Cycles Used -------------  4 
Starting Wavelength (Angstroms) ---  2950 
Final Wavelength (Angstoms) -------  2984 
Wavelength Increment (Angstroms) --  .25 
Filter Wheel #1 Position ---------- (1) Ground quartz diffuser (ND=2.32)
Filter Wheel #2 Position ---------- (1) Neutral Density 0.494



************************************************************
HS scan start time = 06:13:14
Dark Count =  .1 


Time (GMT)  Wavelength (Ang)  Step Number  Raw Counts  Counts/Second

  373.69        2950.00           1229         125.00       544.47
  373.79        2950.25           1232         119.00       518.32
  373.82        2950.50           1236         131.00       570.63
  373.84        2950.75           1239         130.00       566.27
  373.87        2951.00           1242         130.00       566.27
  373.90        2951.25           1246         136.00       592.43
  373.93        2951.50           1249         119.00       518.32
  373.95        2951.75           1252         118.00       513.96
  373.98        2952.00           1255         127.00       553.19
  374.01        2952.25           1259         126.00       548.83
  374.04        2952.50           1262         122.00       531.39
  374.07        2952.75           1265         141.00       614.22
  374.09        2953.00           1269         126.00       548.83
  374.12        2953.25           1272         124.00       540.11
  374.15        2953.50           1275         122.00       531.39
  374.18        2953.75           1279         138.00       601.14
  374.20        2954.00           1282         118.00       513.96
  374.23        2954.25           1285         130.00       566.27
  374.26        2954.50           1289         127.00       553.19
  374.29        2954.75           1292         122.00       531.39
  374.32        2955.00           1295         131.00       570.63
  374.34        2955.25           1299         119.00       518.32
  374.37        2955.50           1302         124.00       540.11
  374.40        2955.75           1305         126.00       548.83
  374.43        2956.00           1309         132.00       574.99
  374.45        2956.25           1312         123.00       535.75
  374.48        2956.50           1315         127.00       553.19
  374.51        2956.75           1319         128.00       557.55
  374.54        2957.00           1322         120.00       522.68
  374.56        2957.25           1325         125.00       544.47
  374.59        2957.50           1329         125.00       544.47
  374.62        2957.75           1332         121.00       527.04
  374.65        2958.00           1335         118.00       513.96
  374.68        2958.25           1339         113.00       492.16
  374.71        2958.50           1342         122.00       531.39
  374.74        2958.75           1345         126.00       548.83
  374.77        2959.00           1349         115.00       500.88
  374.79        2959.25           1352         129.00       561.91
  374.82        2959.50           1355         120.00       522.68
  374.85        2959.75           1359         129.00       561.91
  374.88        2960.00           1362         129.00       561.91
  374.90        2960.25           1365         134.00       583.71
  374.93        2960.50           1369         149.00       649.10
  374.96        2960.75           1372         136.00       592.43
  374.99        2961.00           1375         145.00       631.66
  375.01        2961.25           1379         157.00       683.97
  375.04        2961.50           1382         249.00      1085.04
  375.07        2961.75           1385         671.00      2924.84
  375.10        2962.00           1389        2107.00      9186.93
  375.13        2962.25           1392        3902.00     17017.84
  375.15        2962.50           1395        5497.00     23979.32
  375.18        2962.75           1399        7782.00     33957.42
  375.21        2963.00           1402        9922.00     43307.76
  375.24        2963.25           1405       11894.00     51928.70
  375.26        2963.50           1409       14569.00     63630.07
  375.29        2963.75           1412       16659.00     72778.18
  375.32        2964.00           1415       18531.00     80976.35
  375.35        2964.25           1419       20936.00     91514.64
  375.37        2964.50           1422       23130.00    101134.20
  375.40        2964.75           1425       25102.00    109785.20
  375.43        2965.00           1429       27633.00    120895.00
  375.46        2965.25           1432       29582.00    129455.20
  375.49        2965.50           1435       31129.00    136252.90
  375.51        2965.75           1439       33661.00    147384.80
  375.54        2966.00           1442       35653.00    156147.80
  375.57        2966.25           1445       37474.00    164162.60
  375.60        2966.50           1449       39749.00    174181.10
  375.63        2966.75           1452       40803.00    178824.70
  375.66        2967.00           1455       41359.00    181274.80
  375.69        2967.25           1459       41486.00    181834.50
  375.71        2967.50           1462       41026.00    179807.30
  375.74        2967.75           1465       40956.00    179498.90
  375.77        2968.00           1469       39930.00    174978.50
  375.80        2968.25           1472       39004.00    170899.70
  375.83        2968.50           1475       37670.00    165025.50
  375.86        2968.75           1479       35523.00    155575.80
  375.88        2969.00           1482       33725.00    147666.20
  375.91        2969.25           1485       31566.00    138173.60
  375.94        2969.50           1489       28812.00    126072.70
  375.97        2969.75           1492       27066.00    118405.50
  376.00        2970.00           1495       25200.00    110215.20
  376.03        2970.25           1499       22531.00     98507.34
  376.05        2970.50           1502       20612.00     90094.54
  376.08        2970.75           1505       18438.00     80568.96
  376.11        2971.00           1509       16157.00     70580.41
  376.14        2971.25           1512       14607.00     63796.35
  376.17        2971.50           1515       12940.00     56503.29
  376.19        2971.75           1519       10465.00     45681.14
  376.22        2972.00           1522        8387.00     36600.33
  376.25        2972.25           1525        6468.00     28218.74
  376.28        2972.50           1529        4037.00     17606.94
  376.30        2972.75           1532        2346.00     10229.38
  376.33        2973.00           1536         853.00      3718.38
  376.36        2973.25           1539         346.00      1507.91
  376.39        2973.50           1542         177.00       771.16
  376.42        2973.75           1546         140.00       609.86
  376.45        2974.00           1549         128.00       557.55
  376.47        2974.25           1552         122.00       531.39
  376.50        2974.50           1556         122.00       531.39
  376.53        2974.75           1559         123.00       535.75
  376.56        2975.00           1562         114.00       496.52
  376.58        2975.25           1566         112.00       487.80
  376.61        2975.50           1569         109.00       474.72
  376.64        2975.75           1572         119.00       518.32
  376.67        2976.00           1576         108.00       470.36
  376.70        2976.25           1579         113.00       492.16
  376.72        2976.50           1582         107.00       466.00
  376.75        2976.75           1586         117.00       509.60
  376.78        2977.00           1589         115.00       500.88
  376.80        2977.25           1592         120.00       522.68
  376.83        2977.50           1596         113.00       492.16
  376.86        2977.75           1599         112.00       487.80
  376.89        2978.00           1602         111.00       483.44
  376.92        2978.25           1606         105.00       457.29
  376.94        2978.50           1609         113.00       492.16
  376.97        2978.75           1612         109.00       474.72
  377.00        2979.00           1616         106.00       461.65
  377.03        2979.25           1619         120.00       522.68
  377.05        2979.50           1623         107.00       466.00
  377.08        2979.75           1626         103.00       448.57
  377.11        2980.00           1629         103.00       448.57
  377.14        2980.25           1633         102.00       444.21
  377.17        2980.50           1636         108.00       470.36
  377.19        2980.75           1639         101.00       439.85
  377.22        2981.00           1643         104.00       452.93
  377.25        2981.25           1646         104.00       452.93
  377.28        2981.50           1649         108.00       470.36
  377.30        2981.75           1653         102.00       444.21
  377.33        2982.00           1656         110.00       479.08
  377.36        2982.25           1659         103.00       448.57
  377.39        2982.50           1663         106.00       461.65
  377.41        2982.75           1666          98.00       426.77
  377.44        2983.00           1669         103.00       448.57
  377.47        2983.25           1673         110.00       479.08
  377.50        2983.50           1676         110.00       479.08
  377.52        2983.75           1679          98.00       426.77
  377.55        2984.00           1683         104.00       452.93
HS scan finished at 06:17:51
end
