************************************************************
  HS Scan of (1) Internal mercury lamp
************************************************************
Integration time is 0.2294 seconds per sample
dh100117DelftKZ 51.997-4.386 2.321352pr1000
************************************************************
Dead Time -------------------------  3E-08 
Number of Cycles Used -------------  4 
Starting Wavelength (Angstroms) ---  2950 
Final Wavelength (Angstoms) -------  2984 
Wavelength Increment (Angstroms) --  .25 
Filter Wheel #1 Position ---------- (1) Ground quartz diffuser (ND=2.32)
Filter Wheel #2 Position ---------- (1) Neutral Density 0.494



************************************************************
HS scan start time = 06:18:05
Dark Count =  .1 


Time (GMT)  Wavelength (Ang)  Step Number  Raw Counts  Counts/Second

  378.54        2950.00           1229         141.00       614.22
  378.63        2950.25           1232         139.00       605.50
  378.66        2950.50           1236         130.00       566.27
  378.69        2950.75           1239         137.00       596.78
  378.72        2951.00           1242         144.00       627.30
  378.75        2951.25           1246         130.00       566.27
  378.77        2951.50           1249         123.00       535.75
  378.80        2951.75           1252         128.00       557.55
  378.83        2952.00           1255         139.00       605.50
  378.86        2952.25           1259         131.00       570.63
  378.88        2952.50           1262         123.00       535.75
  378.91        2952.75           1265         129.00       561.91
  378.94        2953.00           1269         141.00       614.22
  378.97        2953.25           1272         134.00       583.71
  378.99        2953.50           1275         142.00       618.58
  379.02        2953.75           1279         130.00       566.27
  379.05        2954.00           1282         131.00       570.63
  379.08        2954.25           1285         135.00       588.07
  379.11        2954.50           1289         133.00       579.35
  379.13        2954.75           1292         131.00       570.63
  379.16        2955.00           1295         132.00       574.99
  379.19        2955.25           1299         131.00       570.63
  379.22        2955.50           1302         135.00       588.07
  379.24        2955.75           1305         131.00       570.63
  379.27        2956.00           1309         132.00       574.99
  379.30        2956.25           1312         137.00       596.78
  379.33        2956.50           1315         132.00       574.99
  379.35        2956.75           1319         134.00       583.71
  379.38        2957.00           1322         129.00       561.91
  379.41        2957.25           1325         125.00       544.47
  379.44        2957.50           1329         123.00       535.75
  379.47        2957.75           1332         132.00       574.99
  379.50        2958.00           1335         131.00       570.63
  379.53        2958.25           1339         129.00       561.91
  379.55        2958.50           1342         128.00       557.55
  379.58        2958.75           1345         124.00       540.11
  379.61        2959.00           1349         124.00       540.11
  379.64        2959.25           1352         125.00       544.47
  379.67        2959.50           1355         129.00       561.91
  379.70        2959.75           1359         125.00       544.47
  379.72        2960.00           1362         134.00       583.71
  379.76        2960.25           1365         136.00       592.43
  379.79        2960.50           1369         146.00       636.02
  379.81        2960.75           1372         144.00       627.30
  379.84        2961.00           1375         160.00       697.05
  379.87        2961.25           1379         163.00       710.13
  379.90        2961.50           1382         219.00       954.26
  379.92        2961.75           1385         631.00      2750.44
  379.95        2962.00           1389        2256.00      9836.82
  379.98        2962.25           1392        4000.00     17445.48
  380.01        2962.50           1395        5984.00     26105.44
  380.03        2962.75           1399        9211.00     40200.60
  380.06        2963.00           1402       11782.00     51438.96
  380.09        2963.25           1405       13823.00     60365.98
  380.12        2963.50           1409       16611.00     72568.02
  380.15        2963.75           1412       18614.00     81339.93
  380.18        2964.00           1415       20719.00     90563.51
  380.21        2964.25           1419       23674.00    103520.20
  380.23        2964.50           1422       26416.00    115552.00
  380.26        2964.75           1425       28043.00    122695.40
  380.29        2965.00           1429       30916.00    135316.70
  380.32        2965.25           1432       32985.00    144412.00
  380.34        2965.50           1435       35161.00    153983.00
  380.37        2965.75           1439       38126.00    167033.30
  380.40        2966.00           1442       40187.00    176110.60
  380.43        2966.25           1445       41890.00    183615.00
  380.46        2966.50           1449       44899.00    196882.70
  380.48        2966.75           1452       45968.00    201598.80
  380.51        2967.00           1455       46455.00    203747.70
  380.54        2967.25           1459       46696.00    204811.20
  380.57        2967.50           1462       46594.00    204361.10
  380.59        2967.75           1465       46522.00    204043.40
  380.62        2968.00           1469       45363.00    198929.50
  380.65        2968.25           1472       44086.00    193296.80
  380.68        2968.50           1475       42294.00    185395.80
  380.71        2968.75           1479       39851.00    174630.40
  380.73        2969.00           1482       38178.00    167262.20
  380.76        2969.25           1485       36230.00    158686.90
  380.79        2969.50           1489       33259.00    145616.90
  380.82        2969.75           1492       30962.00    135518.90
  380.86        2970.00           1495       28785.00    125954.10
  380.88        2970.25           1499       25522.00    111628.20
  380.91        2970.50           1502       23469.00    102621.00
  380.94        2970.75           1505       21403.00     93561.74
  380.97        2971.00           1509       18433.00     80547.06
  380.99        2971.25           1512       16332.00     71346.53
  381.02        2971.50           1515       14161.00     61844.81
  381.05        2971.75           1519       11547.00     50411.41
  381.08        2972.00           1522        9659.00     42158.35
  381.11        2972.25           1525        7826.00     34149.61
  381.13        2972.50           1529        5042.00     21993.15
  381.16        2972.75           1532        2768.00     12070.19
  381.19        2973.00           1536        1033.00      4503.22
  381.22        2973.25           1539         395.00      1721.54
  381.24        2973.50           1542         197.00       858.35
  381.27        2973.75           1546         142.00       618.58
  381.31        2974.00           1549         142.00       618.58
  381.34        2974.25           1552         127.00       553.19
  381.37        2974.50           1556         122.00       531.39
  381.39        2974.75           1559         121.00       527.04
  381.42        2975.00           1562         117.00       509.60
  381.45        2975.25           1566         109.00       474.72
  381.48        2975.50           1569         115.00       500.88
  381.50        2975.75           1572         123.00       535.75
  381.53        2976.00           1576         114.00       496.52
  381.56        2976.25           1579         115.00       500.88
  381.59        2976.50           1582         120.00       522.68
  381.61        2976.75           1586         123.00       535.75
  381.64        2977.00           1589         111.00       483.44
  381.67        2977.25           1592         110.00       479.08
  381.70        2977.50           1596         104.00       452.93
  381.72        2977.75           1599         120.00       522.68
  381.75        2978.00           1602         107.00       466.00
  381.78        2978.25           1606         107.00       466.00
  381.81        2978.50           1609         106.00       461.65
  381.84        2978.75           1612         104.00       452.93
  381.86        2979.00           1616         111.00       483.44
  381.89        2979.25           1619         114.00       496.52
  381.92        2979.50           1623         105.00       457.29
  381.95        2979.75           1626         115.00       500.88
  381.98        2980.00           1629         117.00       509.60
  382.01        2980.25           1633         107.00       466.00
  382.04        2980.50           1636         110.00       479.08
  382.07        2980.75           1639         106.00       461.65
  382.10        2981.00           1643         109.00       474.72
  382.13        2981.25           1646         112.00       487.80
  382.15        2981.50           1649         102.00       444.21
  382.18        2981.75           1653         105.00       457.29
  382.21        2982.00           1656         114.00       496.52
  382.24        2982.25           1659         104.00       452.93
  382.27        2982.50           1663         109.00       474.72
  382.29        2982.75           1666         115.00       500.88
  382.32        2983.00           1669         110.00       479.08
  382.35        2983.25           1673         111.00       483.44
  382.38        2983.50           1676         104.00       452.93
  382.40        2983.75           1679         100.00       435.49
  382.43        2984.00           1683          99.00       431.13
HS scan finished at 06:22:44
end
