************************************************************
  HS Scan of (1) Internal mercury lamp
************************************************************
Integration time is 0.2294 seconds per sample
dh130117DelftKZ 51.997-4.386 2.160408pr1000
************************************************************
Dead Time -------------------------  3E-08 
Number of Cycles Used -------------  4 
Starting Wavelength (Angstroms) ---  2950 
Final Wavelength (Angstoms) -------  2984 
Wavelength Increment (Angstroms) --  .25 
Filter Wheel #1 Position ---------- (1) Ground quartz diffuser (ND=2.32)
Filter Wheel #2 Position ---------- (1) Neutral Density 0.494



************************************************************
HS scan start time = 00:32:38
Dark Count =  .1 


Time (GMT)  Wavelength (Ang)  Step Number  Raw Counts  Counts/Second

   33.09        2950.00           1229         141.00       614.22
   33.19        2950.25           1232         134.00       583.71
   33.21        2950.50           1236         128.00       557.55
   33.24        2950.75           1239         144.00       627.30
   33.27        2951.00           1242         138.00       601.14
   33.30        2951.25           1246         135.00       588.07
   33.32        2951.50           1249         134.00       583.71
   33.35        2951.75           1252         127.00       553.19
   33.38        2952.00           1255         131.00       570.63
   33.41        2952.25           1259         137.00       596.78
   33.43        2952.50           1262         134.00       583.71
   33.46        2952.75           1265         137.00       596.78
   33.49        2953.00           1269         139.00       605.50
   33.52        2953.25           1272         129.00       561.91
   33.55        2953.50           1275         140.00       609.86
   33.57        2953.75           1279         128.00       557.55
   33.60        2954.00           1282         126.00       548.83
   33.63        2954.25           1285         135.00       588.07
   33.66        2954.50           1289         125.00       544.47
   33.69        2954.75           1292         123.00       535.75
   33.72        2955.00           1295         130.00       566.27
   33.75        2955.25           1299         142.00       618.58
   33.78        2955.50           1302         124.00       540.11
   33.80        2955.75           1305         136.00       592.43
   33.83        2956.00           1309         125.00       544.47
   33.86        2956.25           1312         132.00       574.99
   33.89        2956.50           1315         130.00       566.27
   33.91        2956.75           1319         131.00       570.63
   33.94        2957.00           1322         127.00       553.19
   33.97        2957.25           1325         125.00       544.47
   34.00        2957.50           1329         120.00       522.68
   34.02        2957.75           1332         138.00       601.14
   34.05        2958.00           1335         129.00       561.91
   34.09        2958.25           1339         123.00       535.75
   34.12        2958.50           1342         129.00       561.91
   34.14        2958.75           1345         131.00       570.63
   34.17        2959.00           1349         135.00       588.07
   34.20        2959.25           1352         123.00       535.75
   34.23        2959.50           1355         131.00       570.63
   34.26        2959.75           1359         128.00       557.55
   34.28        2960.00           1362         129.00       561.91
   34.31        2960.25           1365         129.00       561.91
   34.34        2960.50           1369         140.00       609.86
   34.37        2960.75           1372         140.00       609.86
   34.39        2961.00           1375         152.00       662.18
   34.42        2961.25           1379         161.00       701.41
   34.45        2961.50           1382         212.00       923.74
   34.48        2961.75           1385         447.00      1948.24
   34.50        2962.00           1389        1662.00      7246.13
   34.53        2962.25           1392        3385.00     14761.99
   34.56        2962.50           1395        5166.00     22534.41
   34.59        2962.75           1399        7701.00     33603.61
   34.62        2963.00           1402        9991.00     43609.33
   34.64        2963.25           1405       12280.00     53616.69
   34.67        2963.50           1409       15510.00     67748.28
   34.70        2963.75           1412       17754.00     77573.09
   34.73        2964.00           1415       19658.00     85913.83
   34.75        2964.25           1419       22317.00     97568.96
   34.78        2964.50           1422       24673.00    107902.80
   34.81        2964.75           1425       26994.00    118089.40
   34.84        2965.00           1429       29325.00    128326.10
   34.87        2965.25           1432       31849.00    139417.60
   34.89        2965.50           1435       34109.00    149355.20
   34.92        2965.75           1439       36903.00    161649.10
   34.95        2966.00           1442       38757.00    169811.90
   34.98        2966.25           1445       41020.00    179780.90
   35.00        2966.50           1449       43608.00    191188.90
   35.03        2966.75           1452       44325.00    194350.90
   35.06        2967.00           1455       44889.00    196838.50
   35.09        2967.25           1459       45064.00    197610.50
   35.12        2967.50           1462       45215.00    198276.60
   35.14        2967.75           1465       44858.00    196701.80
   35.17        2968.00           1469       43738.00    191762.20
   35.20        2968.25           1472       42712.00    187238.40
   35.23        2968.50           1475       41232.00    180715.10
   35.26        2968.75           1479       38640.00    169296.60
   35.29        2969.00           1482       36737.00    160918.40
   35.32        2969.25           1485       34483.00    151000.30
   35.35        2969.50           1489       32278.00    141303.50
   35.38        2969.75           1492       30110.00    131774.90
   35.41        2970.00           1495       28257.00    123635.20
   35.44        2970.25           1499       25347.00    110860.20
   35.46        2970.50           1502       23102.00    101011.40
   35.49        2970.75           1505       20891.00     91317.39
   35.52        2971.00           1509       17983.00     78576.03
   35.55        2971.25           1512       16035.00     70046.35
   35.57        2971.50           1515       14211.00     62063.58
   35.60        2971.75           1519       11338.00     49497.60
   35.63        2972.00           1522        9252.00     40379.76
   35.66        2972.25           1525        7392.00     32253.95
   35.69        2972.50           1529        5383.00     23481.66
   35.71        2972.75           1532        3458.00     15080.49
   35.74        2973.00           1536        1387.00      6046.87
   35.77        2973.25           1539         619.00      2698.13
   35.80        2973.50           1542         235.00      1024.01
   35.82        2973.75           1546         149.00       649.10
   35.85        2974.00           1549         143.00       622.94
   35.88        2974.25           1552         127.00       553.19
   35.91        2974.50           1556         132.00       574.99
   35.93        2974.75           1559         111.00       483.44
   35.96        2975.00           1562         114.00       496.52
   35.99        2975.25           1566         105.00       457.29
   36.02        2975.50           1569         115.00       500.88
   36.05        2975.75           1572         115.00       500.88
   36.07        2976.00           1576         120.00       522.68
   36.10        2976.25           1579         114.00       496.52
   36.13        2976.50           1582         107.00       466.00
   36.16        2976.75           1586         110.00       479.08
   36.18        2977.00           1589         120.00       522.68
   36.21        2977.25           1592         110.00       479.08
   36.24        2977.50           1596         117.00       509.60
   36.27        2977.75           1599         113.00       492.16
   36.29        2978.00           1602         110.00       479.08
   36.32        2978.25           1606         109.00       474.72
   36.35        2978.50           1609         103.00       448.57
   36.38        2978.75           1612         114.00       496.52
   36.40        2979.00           1616         115.00       500.88
   36.43        2979.25           1619         120.00       522.68
   36.46        2979.50           1623         119.00       518.32
   36.49        2979.75           1626         101.00       439.85
   36.52        2980.00           1629         112.00       487.80
   36.54        2980.25           1633         114.00       496.52
   36.57        2980.50           1636         109.00       474.72
   36.60        2980.75           1639         110.00       479.08
   36.63        2981.00           1643         111.00       483.44
   36.65        2981.25           1646         105.00       457.29
   36.68        2981.50           1649         101.00       439.85
   36.71        2981.75           1653         113.00       492.16
   36.74        2982.00           1656         107.00       466.00
   36.77        2982.25           1659         105.00       457.29
   36.79        2982.50           1663          99.00       431.13
   36.82        2982.75           1666         109.00       474.72
   36.85        2983.00           1669         108.00       470.36
   36.88        2983.25           1673         106.00       461.65
   36.90        2983.50           1676         109.00       474.72
   36.93        2983.75           1679         110.00       479.08
   36.96        2984.00           1683         109.00       474.72
HS scan finished at 00:37:15
end
************************************************************
  HS Scan of (1) Internal mercury lamp
************************************************************
Integration time is 0.2294 seconds per sample
dh130117DelftKZ 51.997-4.386 2.214056pr1000
************************************************************
Dead Time -------------------------  3E-08 
Number of Cycles Used -------------  4 
Starting Wavelength (Angstroms) ---  2950 
Final Wavelength (Angstoms) -------  2984 
Wavelength Increment (Angstroms) --  .25 
Filter Wheel #1 Position ---------- (1) Ground quartz diffuser (ND=2.32)
Filter Wheel #2 Position ---------- (1) Neutral Density 0.494



************************************************************
HS scan start time = 06:16:54
Dark Count =  .1 


Time (GMT)  Wavelength (Ang)  Step Number  Raw Counts  Counts/Second

  377.34        2950.00           1229         138.00       601.14
  377.44        2950.25           1232         133.00       579.35
  377.47        2950.50           1236         126.00       548.83
  377.50        2950.75           1239         125.00       544.47
  377.53        2951.00           1242         131.00       570.63
  377.55        2951.25           1246         134.00       583.71
  377.58        2951.50           1249         136.00       592.43
  377.61        2951.75           1252         138.00       601.14
  377.64        2952.00           1255         130.00       566.27
  377.67        2952.25           1259         131.00       570.63
  377.69        2952.50           1262         137.00       596.78
  377.72        2952.75           1265         138.00       601.14
  377.75        2953.00           1269         118.00       513.96
  377.78        2953.25           1272         133.00       579.35
  377.80        2953.50           1275         133.00       579.35
  377.83        2953.75           1279         134.00       583.71
  377.86        2954.00           1282         126.00       548.83
  377.89        2954.25           1285         127.00       553.19
  377.91        2954.50           1289         124.00       540.11
  377.94        2954.75           1292         127.00       553.19
  377.97        2955.00           1295         138.00       601.14
  378.00        2955.25           1299         123.00       535.75
  378.03        2955.50           1302         127.00       553.19
  378.05        2955.75           1305         125.00       544.47
  378.08        2956.00           1309         122.00       531.39
  378.11        2956.25           1312         120.00       522.68
  378.14        2956.50           1315         137.00       596.78
  378.16        2956.75           1319         141.00       614.22
  378.19        2957.00           1322         130.00       566.27
  378.22        2957.25           1325         130.00       566.27
  378.25        2957.50           1329         123.00       535.75
  378.28        2957.75           1332         129.00       561.91
  378.30        2958.00           1335         123.00       535.75
  378.33        2958.25           1339         137.00       596.78
  378.36        2958.50           1342         121.00       527.04
  378.38        2958.75           1345         119.00       518.32
  378.41        2959.00           1349         125.00       544.47
  378.44        2959.25           1352         127.00       553.19
  378.47        2959.50           1355         122.00       531.39
  378.50        2959.75           1359         127.00       553.19
  378.52        2960.00           1362         125.00       544.47
  378.55        2960.25           1365         126.00       548.83
  378.58        2960.50           1369         131.00       570.63
  378.61        2960.75           1372         137.00       596.78
  378.63        2961.00           1375         147.00       640.38
  378.66        2961.25           1379         160.00       697.05
  378.69        2961.50           1382         208.00       906.30
  378.72        2961.75           1385         622.00      2711.21
  378.74        2962.00           1389        1806.00      7874.14
  378.77        2962.25           1392        3189.00     13906.85
  378.80        2962.50           1395        4955.00     21613.40
  378.83        2962.75           1399        7887.00     34416.08
  378.86        2963.00           1402       10138.00     44251.83
  378.88        2963.25           1405       12053.00     52624.00
  378.91        2963.50           1409       14619.00     63848.87
  378.94        2963.75           1412       16929.00     73960.35
  378.97        2964.00           1415       19097.00     83455.86
  378.99        2964.25           1419       21527.00     94105.33
  379.02        2964.50           1422       23851.00    104296.60
  379.05        2964.75           1425       26029.00    113853.40
  379.08        2965.00           1429       28618.00    125220.60
  379.11        2965.25           1432       30704.00    134385.10
  379.13        2965.50           1435       32759.00    143418.30
  379.16        2965.75           1439       35277.00    154493.40
  379.19        2966.00           1442       37092.00    162481.00
  379.22        2966.25           1445       38735.00    169715.00
  379.24        2966.50           1449       41195.00    180552.10
  379.27        2966.75           1452       42207.00    185012.30
  379.30        2967.00           1455       42733.00    187331.00
  379.33        2967.25           1459       42792.00    187591.10
  379.36        2967.50           1462       42837.00    187789.50
  379.38        2967.75           1465       42648.00    186956.30
  379.41        2968.00           1469       41759.00    183037.70
  379.44        2968.25           1472       40712.00    178423.70
  379.47        2968.50           1475       39067.00    171177.10
  379.50        2968.75           1479       36648.00    160526.70
  379.53        2969.00           1482       35306.00    154621.00
  379.55        2969.25           1485       33301.00    145801.60
  379.58        2969.50           1489       30767.00    134661.90
  379.61        2969.75           1492       28770.00    125888.20
  379.64        2970.00           1495       26644.00    116552.90
  379.67        2970.25           1499       23521.00    102849.10
  379.70        2970.50           1502       21651.00     94648.93
  379.73        2970.75           1505       19645.00     85856.86
  379.76        2971.00           1509       17116.00     74779.18
  379.79        2971.25           1512       15096.00     65936.31
  379.81        2971.50           1515       12998.00     56756.99
  379.84        2971.75           1519       10925.00     47691.99
  379.87        2972.00           1522        9051.00     39501.45
  379.90        2972.25           1525        7118.00     31057.26
  379.93        2972.50           1529        4491.00     19588.23
  379.95        2972.75           1532        2557.00     11149.76
  379.98        2973.00           1536         913.00      3979.99
  380.02        2973.25           1539         432.00      1882.84
  380.05        2973.50           1542         199.00       867.07
  380.07        2973.75           1546         150.00       653.46
  380.10        2974.00           1549         129.00       561.91
  380.13        2974.25           1552         132.00       574.99
  380.16        2974.50           1556         120.00       522.68
  380.18        2974.75           1559         112.00       487.80
  380.21        2975.00           1562         123.00       535.75
  380.24        2975.25           1566         121.00       527.04
  380.27        2975.50           1569         107.00       466.00
  380.30        2975.75           1572         121.00       527.04
  380.32        2976.00           1576         100.00       435.49
  380.35        2976.25           1579         112.00       487.80
  380.38        2976.50           1582         110.00       479.08
  380.41        2976.75           1586         112.00       487.80
  380.43        2977.00           1589         111.00       483.44
  380.46        2977.25           1592         111.00       483.44
  380.49        2977.50           1596         117.00       509.60
  380.52        2977.75           1599         114.00       496.52
  380.54        2978.00           1602         106.00       461.65
  380.57        2978.25           1606          99.00       431.13
  380.60        2978.50           1609         105.00       457.29
  380.63        2978.75           1612         109.00       474.72
  380.65        2979.00           1616         117.00       509.60
  380.68        2979.25           1619         110.00       479.08
  380.71        2979.50           1623         109.00       474.72
  380.74        2979.75           1626         109.00       474.72
  380.76        2980.00           1629         113.00       492.16
  380.79        2980.25           1633         109.00       474.72
  380.82        2980.50           1636         100.00       435.49
  380.85        2980.75           1639         103.00       448.57
  380.87        2981.00           1643         108.00       470.36
  380.90        2981.25           1646         108.00       470.36
  380.93        2981.50           1649         104.00       452.93
  380.96        2981.75           1653         115.00       500.88
  380.99        2982.00           1656         104.00       452.93
  381.01        2982.25           1659         107.00       466.00
  381.04        2982.50           1663         101.00       439.85
  381.07        2982.75           1666         109.00       474.72
  381.10        2983.00           1669         107.00       466.00
  381.12        2983.25           1673         106.00       461.65
  381.15        2983.50           1676          98.00       426.77
  381.18        2983.75           1679         111.00       483.44
  381.21        2984.00           1683         108.00       470.36
HS scan finished at 06:21:30
end
