************************************************************
  HS Scan of (1) Internal mercury lamp
************************************************************
Integration time is 0.2294 seconds per sample
dh160117DelftKZ 51.997-4.386 2.214056pr1000
************************************************************
Dead Time -------------------------  3E-08 
Number of Cycles Used -------------  4 
Starting Wavelength (Angstroms) ---  2950 
Final Wavelength (Angstoms) -------  2984 
Wavelength Increment (Angstroms) --  .25 
Filter Wheel #1 Position ---------- (1) Ground quartz diffuser (ND=2.32)
Filter Wheel #2 Position ---------- (1) Neutral Density 0.494



************************************************************
HS scan start time = 06:15:13
Dark Count =  0 


Time (GMT)  Wavelength (Ang)  Step Number  Raw Counts  Counts/Second

  375.67        2950.00           1229         140.00       610.30
  375.77        2950.25           1232         136.00       592.86
  375.80        2950.50           1236         138.00       601.58
  375.82        2950.75           1239         135.00       588.50
  375.85        2951.00           1242         128.00       557.99
  375.88        2951.25           1246         129.00       562.35
  375.91        2951.50           1249         133.00       579.78
  375.93        2951.75           1252         137.00       597.22
  375.96        2952.00           1255         125.00       544.91
  375.99        2952.25           1259         133.00       579.78
  376.02        2952.50           1262         138.00       601.58
  376.04        2952.75           1265         138.00       601.58
  376.07        2953.00           1269         125.00       544.91
  376.10        2953.25           1272         129.00       562.35
  376.13        2953.50           1275         129.00       562.35
  376.15        2953.75           1279         128.00       557.99
  376.18        2954.00           1282         120.00       523.11
  376.21        2954.25           1285         132.00       575.42
  376.24        2954.50           1289         125.00       544.91
  376.26        2954.75           1292         118.00       514.39
  376.29        2955.00           1295         135.00       588.50
  376.32        2955.25           1299         124.00       540.55
  376.35        2955.50           1302         119.00       518.75
  376.38        2955.75           1305         128.00       557.99
  376.40        2956.00           1309         128.00       557.99
  376.43        2956.25           1312         128.00       557.99
  376.46        2956.50           1315         123.00       536.19
  376.49        2956.75           1319         129.00       562.35
  376.52        2957.00           1322         140.00       610.30
  376.55        2957.25           1325         131.00       571.06
  376.57        2957.50           1329         118.00       514.39
  376.60        2957.75           1332         133.00       579.78
  376.63        2958.00           1335         120.00       523.11
  376.66        2958.25           1339         131.00       571.06
  376.68        2958.50           1342         119.00       518.75
  376.71        2958.75           1345         115.00       501.32
  376.74        2959.00           1349         125.00       544.91
  376.77        2959.25           1352         126.00       549.27
  376.80        2959.50           1355         125.00       544.91
  376.82        2959.75           1359         122.00       531.83
  376.85        2960.00           1362         122.00       531.83
  376.88        2960.25           1365         132.00       575.42
  376.91        2960.50           1369         131.00       571.06
  376.93        2960.75           1372         141.00       614.66
  376.96        2961.00           1375         145.00       632.10
  376.99        2961.25           1379         156.00       680.05
  377.02        2961.50           1382         229.00       998.29
  377.04        2961.75           1385         654.00      2851.16
  377.07        2962.00           1389        2025.00      8829.71
  377.11        2962.25           1392        3577.00     15600.15
  377.14        2962.50           1395        5406.00     23582.50
  377.17        2962.75           1399        7968.00     34770.34
  377.19        2963.00           1402        9807.00     42805.59
  377.22        2963.25           1405       11674.00     50967.15
  377.25        2963.50           1409       14482.00     63249.81
  377.28        2963.75           1412       16311.00     71255.04
  377.31        2964.00           1415       18378.00     80306.59
  377.33        2964.25           1419       20565.00     89888.99
  377.36        2964.50           1422       22426.00     98047.35
  377.39        2964.75           1425       24411.00    106753.70
  377.42        2965.00           1429       26896.00    117659.60
  377.44        2965.25           1432       28981.00    126815.50
  377.47        2965.50           1435       30764.00    134649.20
  377.50        2965.75           1439       32783.00    143524.30
  377.53        2966.00           1442       34603.00    151528.60
  377.56        2966.25           1445       36767.00    161050.90
  377.58        2966.50           1449       39086.00    171261.30
  377.62        2966.75           1452       39910.00    174890.80
  377.65        2967.00           1455       40397.00    177036.30
  377.68        2967.25           1459       40465.00    177335.90
  377.71        2967.50           1462       40345.00    176807.20
  377.73        2967.75           1465       40230.00    176300.50
  377.76        2968.00           1469       39448.00    172855.70
  377.79        2968.25           1472       37897.00    166025.40
  377.82        2968.50           1475       36839.00    161367.80
  377.84        2968.75           1479       34630.00    151647.40
  377.88        2969.00           1482       32924.00    144144.20
  377.91        2969.25           1485       31004.00    135703.90
  377.94        2969.50           1489       28451.00    124487.60
  377.97        2969.75           1492       26481.00    115837.80
  377.99        2970.00           1495       24656.00    107828.60
  378.02        2970.25           1499       21987.00     96122.48
  378.05        2970.50           1502       20211.00     88337.54
  378.08        2970.75           1505       18424.00     80508.08
  378.11        2971.00           1509       15644.00     68335.25
  378.13        2971.25           1512       14016.00     61210.82
  378.16        2971.50           1515       12494.00     54553.03
  378.19        2971.75           1519       10320.00     45047.76
  378.22        2972.00           1522        8524.00     37199.30
  378.24        2972.25           1525        6509.00     28398.20
  378.27        2972.50           1529        3875.00     16900.46
  378.30        2972.75           1532        2198.00      9584.27
  378.33        2973.00           1536         849.00      3701.37
  378.36        2973.25           1539         342.00      1490.91
  378.39        2973.50           1542         163.00       710.56
  378.42        2973.75           1546         129.00       562.35
  378.45        2974.00           1549         129.00       562.35
  378.48        2974.25           1552         131.00       571.06
  378.51        2974.50           1556         117.00       510.03
  378.54        2974.75           1559         108.00       470.80
  378.57        2975.00           1562         115.00       501.32
  378.60        2975.25           1566         108.00       470.80
  378.62        2975.50           1569         109.00       475.16
  378.65        2975.75           1572         108.00       470.80
  378.68        2976.00           1576         114.00       496.96
  378.71        2976.25           1579         113.00       492.60
  378.74        2976.50           1582         110.00       479.52
  378.76        2976.75           1586         106.00       462.08
  378.79        2977.00           1589         104.00       453.36
  378.82        2977.25           1592         102.00       444.64
  378.85        2977.50           1596         109.00       475.16
  378.87        2977.75           1599         114.00       496.96
  378.90        2978.00           1602         109.00       475.16
  378.93        2978.25           1606         109.00       475.16
  378.96        2978.50           1609         106.00       462.08
  378.98        2978.75           1612         125.00       544.91
  379.01        2979.00           1616         104.00       453.36
  379.04        2979.25           1619         110.00       479.52
  379.07        2979.50           1623         112.00       488.24
  379.09        2979.75           1626         107.00       466.44
  379.12        2980.00           1629         108.00       470.80
  379.15        2980.25           1633         102.00       444.64
  379.18        2980.50           1636         114.00       496.96
  379.21        2980.75           1639         110.00       479.52
  379.23        2981.00           1643          97.00       422.85
  379.26        2981.25           1646          97.00       422.85
  379.29        2981.50           1649         103.00       449.00
  379.32        2981.75           1653         107.00       466.44
  379.34        2982.00           1656         101.00       440.28
  379.37        2982.25           1659         104.00       453.36
  379.40        2982.50           1663         102.00       444.64
  379.43        2982.75           1666         101.00       440.28
  379.46        2983.00           1669         103.00       449.00
  379.48        2983.25           1673         101.00       440.28
  379.51        2983.50           1676         107.00       466.44
  379.54        2983.75           1679         107.00       466.44
  379.56        2984.00           1683         117.00       510.03
HS scan finished at 06:19:52
end
