************************************************************
  HS Scan of (1) Internal mercury lamp
************************************************************
Integration time is 0.2294 seconds per sample
dh170117DelftKZ 51.997-4.386 2.10676pr1000
************************************************************
Dead Time -------------------------  3E-08 
Number of Cycles Used -------------  4 
Starting Wavelength (Angstroms) ---  2950 
Final Wavelength (Angstoms) -------  2984 
Wavelength Increment (Angstroms) --  .25 
Filter Wheel #1 Position ---------- (1) Ground quartz diffuser (ND=2.32)
Filter Wheel #2 Position ---------- (1) Neutral Density 0.494



************************************************************
HS scan start time = 06:14:36
Dark Count =  .1 


Time (GMT)  Wavelength (Ang)  Step Number  Raw Counts  Counts/Second

  375.05        2950.00           1229         133.00       579.35
  375.15        2950.25           1232         122.00       531.39
  375.18        2950.50           1236         132.00       574.99
  375.21        2950.75           1239         132.00       574.99
  375.24        2951.00           1242         133.00       579.35
  375.26        2951.25           1246         138.00       601.14
  375.29        2951.50           1249         123.00       535.75
  375.32        2951.75           1252         129.00       561.91
  375.35        2952.00           1255         130.00       566.27
  375.37        2952.25           1259         119.00       518.32
  375.40        2952.50           1262         129.00       561.91
  375.43        2952.75           1265         131.00       570.63
  375.46        2953.00           1269         133.00       579.35
  375.48        2953.25           1272         126.00       548.83
  375.51        2953.50           1275         122.00       531.39
  375.54        2953.75           1279         126.00       548.83
  375.57        2954.00           1282         131.00       570.63
  375.60        2954.25           1285         136.00       592.43
  375.62        2954.50           1289         121.00       527.04
  375.65        2954.75           1292         135.00       588.07
  375.68        2955.00           1295         124.00       540.11
  375.71        2955.25           1299         132.00       574.99
  375.73        2955.50           1302         119.00       518.32
  375.76        2955.75           1305         121.00       527.04
  375.79        2956.00           1309         130.00       566.27
  375.82        2956.25           1312         132.00       574.99
  375.85        2956.50           1315         127.00       553.19
  375.87        2956.75           1319         119.00       518.32
  375.90        2957.00           1322         131.00       570.63
  375.93        2957.25           1325         128.00       557.55
  375.96        2957.50           1329         125.00       544.47
  375.98        2957.75           1332         128.00       557.55
  376.01        2958.00           1335         127.00       553.19
  376.04        2958.25           1339         122.00       531.39
  376.07        2958.50           1342         129.00       561.91
  376.09        2958.75           1345         118.00       513.96
  376.12        2959.00           1349         128.00       557.55
  376.15        2959.25           1352         125.00       544.47
  376.18        2959.50           1355         127.00       553.19
  376.20        2959.75           1359         123.00       535.75
  376.23        2960.00           1362         139.00       605.50
  376.26        2960.25           1365         123.00       535.75
  376.29        2960.50           1369         126.00       548.83
  376.32        2960.75           1372         141.00       614.22
  376.34        2961.00           1375         132.00       574.99
  376.37        2961.25           1379         158.00       688.33
  376.40        2961.50           1382         231.00      1006.57
  376.43        2961.75           1385         621.00      2706.85
  376.45        2962.00           1389        1916.00      8353.88
  376.48        2962.25           1392        3626.00     15813.52
  376.51        2962.50           1395        5212.00     22735.20
  376.54        2962.75           1399        8123.00     35447.00
  376.56        2963.00           1402       10349.00     45174.09
  376.59        2963.25           1405       12574.00     54902.48
  376.62        2963.50           1409       15268.00     66689.10
  376.65        2963.75           1412       17018.00     74350.06
  376.68        2964.00           1415       18660.00     81541.43
  376.71        2964.25           1419       21090.00     92189.66
  376.74        2964.50           1422       22942.00    100309.70
  376.77        2964.75           1425       24994.00    109311.20
  376.79        2965.00           1429       27684.00    121118.90
  376.82        2965.25           1432       29548.00    129305.80
  376.85        2965.50           1435       31220.00    136652.80
  376.88        2965.75           1439       33776.00    147890.50
  376.90        2966.00           1442       35881.00    157151.10
  376.93        2966.25           1445       37875.00    165928.10
  376.96        2966.50           1449       39839.00    174577.60
  376.99        2966.75           1452       40745.00    178569.10
  377.02        2967.00           1455       41351.00    181239.50
  377.05        2967.25           1459       41414.00    181517.20
  377.08        2967.50           1462       41646.00    182539.60
  377.11        2967.75           1465       41703.00    182790.80
  377.14        2968.00           1469       40511.00    177538.10
  377.17        2968.25           1472       39288.00    172150.50
  377.19        2968.50           1475       37789.00    165549.50
  377.22        2968.75           1479       35543.00    155663.80
  377.25        2969.00           1482       33600.00    147116.50
  377.28        2969.25           1485       31705.00    138784.60
  377.30        2969.50           1489       29714.00    130035.10
  377.33        2969.75           1492       27724.00    121294.50
  377.36        2970.00           1495       25698.00    112400.60
  377.39        2970.25           1499       23072.00    100879.80
  377.42        2970.50           1502       20793.00     90887.85
  377.44        2970.75           1505       18773.00     82036.45
  377.47        2971.00           1509       16599.00     72515.48
  377.50        2971.25           1512       14568.00     63625.69
  377.53        2971.50           1515       12712.00     55506.04
  377.55        2971.75           1519       10069.00     43950.24
  377.58        2972.00           1522        8235.00     35936.29
  377.61        2972.25           1525        6676.00     29127.01
  377.64        2972.50           1529        4357.00     19003.42
  377.67        2972.75           1532        2830.00     12340.66
  377.69        2973.00           1536        1060.00      4620.95
  377.72        2973.25           1539         399.00      1738.97
  377.75        2973.50           1542         183.00       797.32
  377.78        2973.75           1546         141.00       614.22
  377.80        2974.00           1549         127.00       553.19
  377.83        2974.25           1552         131.00       570.63
  377.86        2974.50           1556         126.00       548.83
  377.89        2974.75           1559         109.00       474.72
  377.92        2975.00           1562         115.00       500.88
  377.94        2975.25           1566         109.00       474.72
  377.97        2975.50           1569         109.00       474.72
  378.00        2975.75           1572         114.00       496.52
  378.03        2976.00           1576         109.00       474.72
  378.05        2976.25           1579         102.00       444.21
  378.08        2976.50           1582         110.00       479.08
  378.11        2976.75           1586         120.00       522.68
  378.14        2977.00           1589         111.00       483.44
  378.17        2977.25           1592         110.00       479.08
  378.20        2977.50           1596         110.00       479.08
  378.22        2977.75           1599         108.00       470.36
  378.25        2978.00           1602         115.00       500.88
  378.28        2978.25           1606         107.00       466.00
  378.31        2978.50           1609         117.00       509.60
  378.34        2978.75           1612         106.00       461.65
  378.36        2979.00           1616         109.00       474.72
  378.39        2979.25           1619         117.00       509.60
  378.42        2979.50           1623          98.00       426.77
  378.45        2979.75           1626         112.00       487.80
  378.47        2980.00           1629         111.00       483.44
  378.50        2980.25           1633         101.00       439.85
  378.53        2980.50           1636         107.00       466.00
  378.56        2980.75           1639         108.00       470.36
  378.58        2981.00           1643         104.00       452.93
  378.61        2981.25           1646         104.00       452.93
  378.64        2981.50           1649         106.00       461.65
  378.67        2981.75           1653         108.00       470.36
  378.69        2982.00           1656         106.00       461.65
  378.72        2982.25           1659          99.00       431.13
  378.75        2982.50           1663         103.00       448.57
  378.78        2982.75           1666         105.00       457.29
  378.81        2983.00           1669         103.00       448.57
  378.83        2983.25           1673          98.00       426.77
  378.86        2983.50           1676         104.00       452.93
  378.89        2983.75           1679         101.00       439.85
  378.92        2984.00           1683         101.00       439.85
HS scan finished at 06:19:13
end
