************************************************************
  HS Scan of (1) Internal mercury lamp
************************************************************
Integration time is 0.2294 seconds per sample
dh180117DelftKZ 51.997-4.386 2.10676pr1000
************************************************************
Dead Time -------------------------  3E-08 
Number of Cycles Used -------------  4 
Starting Wavelength (Angstroms) ---  2950 
Final Wavelength (Angstoms) -------  2984 
Wavelength Increment (Angstroms) --  .25 
Filter Wheel #1 Position ---------- (1) Ground quartz diffuser (ND=2.32)
Filter Wheel #2 Position ---------- (1) Neutral Density 0.494



************************************************************
HS scan start time = 06:13:45
Dark Count =  0 


Time (GMT)  Wavelength (Ang)  Step Number  Raw Counts  Counts/Second

  374.20        2950.00           1229         127.00       553.63
  374.30        2950.25           1232         136.00       592.86
  374.33        2950.50           1236         138.00       601.58
  374.36        2950.75           1239         131.00       571.06
  374.39        2951.00           1242         129.00       562.35
  374.41        2951.25           1246         129.00       562.35
  374.44        2951.50           1249         127.00       553.63
  374.47        2951.75           1252         131.00       571.06
  374.50        2952.00           1255         133.00       579.78
  374.53        2952.25           1259         128.00       557.99
  374.55        2952.50           1262         131.00       571.06
  374.58        2952.75           1265         131.00       571.06
  374.61        2953.00           1269         124.00       540.55
  374.64        2953.25           1272         133.00       579.78
  374.66        2953.50           1275         133.00       579.78
  374.69        2953.75           1279         122.00       531.83
  374.72        2954.00           1282         125.00       544.91
  374.75        2954.25           1285         133.00       579.78
  374.77        2954.50           1289         123.00       536.19
  374.80        2954.75           1292         127.00       553.63
  374.83        2955.00           1295         123.00       536.19
  374.86        2955.25           1299         135.00       588.50
  374.88        2955.50           1302         117.00       510.03
  374.91        2955.75           1305         121.00       527.47
  374.94        2956.00           1309         116.00       505.67
  374.97        2956.25           1312         127.00       553.63
  375.00        2956.50           1315         114.00       496.96
  375.03        2956.75           1319         118.00       514.39
  375.06        2957.00           1322         124.00       540.55
  375.08        2957.25           1325         128.00       557.99
  375.11        2957.50           1329         123.00       536.19
  375.14        2957.75           1332         125.00       544.91
  375.17        2958.00           1335         119.00       518.75
  375.19        2958.25           1339         114.00       496.96
  375.22        2958.50           1342         125.00       544.91
  375.25        2958.75           1345         131.00       571.06
  375.28        2959.00           1349         129.00       562.35
  375.30        2959.25           1352         110.00       479.52
  375.33        2959.50           1355         135.00       588.50
  375.36        2959.75           1359         121.00       527.47
  375.39        2960.00           1362         129.00       562.35
  375.42        2960.25           1365         124.00       540.55
  375.44        2960.50           1369         135.00       588.50
  375.48        2960.75           1372         136.00       592.86
  375.51        2961.00           1375         133.00       579.78
  375.54        2961.25           1379         157.00       684.41
  375.56        2961.50           1382         214.00       932.89
  375.59        2961.75           1385         623.00      2716.00
  375.62        2962.00           1389        2114.00      9217.89
  375.65        2962.25           1392        3707.00     16167.39
  375.68        2962.50           1395        5340.00     23294.39
  375.71        2962.75           1399        8079.00     35255.23
  375.74        2963.00           1402       10294.00     44934.12
  375.76        2963.25           1405       12405.00     54163.80
  375.79        2963.50           1409       14623.00     63866.80
  375.82        2963.75           1412       16438.00     71811.03
  375.85        2964.00           1415       18264.00     79807.24
  375.87        2964.25           1419       20886.00     91295.92
  375.90        2964.50           1422       22980.00    100476.80
  375.93        2964.75           1425       24915.00    108965.10
  375.96        2965.00           1429       27197.00    118981.10
  375.99        2965.25           1432       29010.00    126942.90
  376.01        2965.50           1435       30875.00    135137.00
  376.04        2965.75           1439       33709.00    147596.30
  376.07        2966.00           1442       35281.00    154511.40
  376.10        2966.25           1445       37058.00    162331.80
  376.12        2966.50           1449       39106.00    171349.40
  376.15        2966.75           1452       40191.00    176128.70
  376.18        2967.00           1455       40647.00    178137.80
  376.21        2967.25           1459       40937.00    179415.60
  376.24        2967.50           1462       41007.00    179724.10
  376.26        2967.75           1465       40617.00    178005.60
  376.29        2968.00           1469       39806.00    174432.60
  376.32        2968.25           1472       38823.00    170103.00
  376.35        2968.50           1475       37069.00    162380.20
  376.37        2968.75           1479       34874.00    152720.80
  376.40        2969.00           1482       33323.00    145898.80
  376.43        2969.25           1485       31710.00    138807.00
  376.46        2969.50           1489       29077.00    127237.10
  376.49        2969.75           1492       27199.00    118989.80
  376.51        2970.00           1495       25223.00    110316.50
  376.54        2970.25           1499       22400.00     97933.34
  376.57        2970.50           1502       20528.00     89726.82
  376.60        2970.75           1505       18683.00     81642.62
  376.63        2971.00           1509       16174.00     70655.28
  376.65        2971.25           1512       14334.00     62602.21
  376.68        2971.50           1515       12481.00     54496.18
  376.71        2971.75           1519        9889.00     43163.97
  376.74        2972.00           1522        8232.00     35923.61
  376.76        2972.25           1525        6596.00     28778.10
  376.79        2972.50           1529        4372.00     19069.32
  376.82        2972.75           1532        2581.00     11254.89
  376.85        2973.00           1536         905.00      3945.54
  376.87        2973.25           1539         357.00      1556.31
  376.90        2973.50           1542         171.00       745.44
  376.93        2973.75           1546         125.00       544.91
  376.96        2974.00           1549         124.00       540.55
  376.99        2974.25           1552         124.00       540.55
  377.02        2974.50           1556         126.00       549.27
  377.05        2974.75           1559         105.00       457.72
  377.07        2975.00           1562         113.00       492.60
  377.10        2975.25           1566         112.00       488.24
  377.13        2975.50           1569         116.00       505.67
  377.16        2975.75           1572         117.00       510.03
  377.18        2976.00           1576         115.00       501.32
  377.21        2976.25           1579         114.00       496.96
  377.24        2976.50           1582         117.00       510.03
  377.27        2976.75           1586         110.00       479.52
  377.30        2977.00           1589         106.00       462.08
  377.32        2977.25           1592         107.00       466.44
  377.35        2977.50           1596         118.00       514.39
  377.38        2977.75           1599         108.00       470.80
  377.41        2978.00           1602         111.00       483.88
  377.43        2978.25           1606         105.00       457.72
  377.46        2978.50           1609         106.00       462.08
  377.49        2978.75           1612         106.00       462.08
  377.52        2979.00           1616         110.00       479.52
  377.54        2979.25           1619         106.00       462.08
  377.57        2979.50           1623         105.00       457.72
  377.60        2979.75           1626         110.00       479.52
  377.63        2980.00           1629         102.00       444.64
  377.65        2980.25           1633         109.00       475.16
  377.68        2980.50           1636         108.00       470.80
  377.71        2980.75           1639         111.00       483.88
  377.74        2981.00           1643         110.00       479.52
  377.77        2981.25           1646         102.00       444.64
  377.79        2981.50           1649         112.00       488.24
  377.82        2981.75           1653         102.00       444.64
  377.85        2982.00           1656         112.00       488.24
  377.88        2982.25           1659          96.00       418.49
  377.90        2982.50           1663         110.00       479.52
  377.93        2982.75           1666         102.00       444.64
  377.96        2983.00           1669          95.00       414.13
  377.99        2983.25           1673          95.00       414.13
  378.01        2983.50           1676          99.00       431.57
  378.04        2983.75           1679         108.00       470.80
  378.07        2984.00           1683         100.00       435.93
HS scan finished at 06:18:22
end
