************************************************************
  HS Scan of (1) Internal mercury lamp
************************************************************
Integration time is 0.2294 seconds per sample
dh230117DelftKZ 51.997-4.386 2.160408pr1000
************************************************************
Dead Time -------------------------  3E-08 
Number of Cycles Used -------------  4 
Starting Wavelength (Angstroms) ---  2950 
Final Wavelength (Angstoms) -------  2984 
Wavelength Increment (Angstroms) --  .25 
Filter Wheel #1 Position ---------- (1) Ground quartz diffuser (ND=2.32)
Filter Wheel #2 Position ---------- (1) Neutral Density 0.494



************************************************************
HS scan start time = 06:08:43
Dark Count =  .2 


Time (GMT)  Wavelength (Ang)  Step Number  Raw Counts  Counts/Second

  369.16        2950.00           1229         129.00       561.47
  369.26        2950.25           1232         134.00       583.27
  369.29        2950.50           1236         134.00       583.27
  369.31        2950.75           1239         127.00       552.76
  369.34        2951.00           1242         127.00       552.76
  369.37        2951.25           1246         121.00       526.60
  369.40        2951.50           1249         136.00       591.99
  369.42        2951.75           1252         127.00       552.76
  369.45        2952.00           1255         121.00       526.60
  369.48        2952.25           1259         138.00       600.71
  369.51        2952.50           1262         131.00       570.19
  369.53        2952.75           1265         133.00       578.91
  369.56        2953.00           1269         125.00       544.04
  369.59        2953.25           1272         122.00       530.96
  369.62        2953.50           1275         124.00       539.68
  369.64        2953.75           1279         124.00       539.68
  369.67        2954.00           1282         122.00       530.96
  369.70        2954.25           1285         124.00       539.68
  369.73        2954.50           1289         130.00       565.83
  369.75        2954.75           1292         125.00       544.04
  369.78        2955.00           1295         124.00       539.68
  369.81        2955.25           1299         134.00       583.27
  369.84        2955.50           1302         123.00       535.32
  369.86        2955.75           1305         126.00       548.40
  369.89        2956.00           1309         131.00       570.19
  369.92        2956.25           1312         124.00       539.68
  369.95        2956.50           1315         112.00       487.37
  369.97        2956.75           1319         120.00       522.24
  370.00        2957.00           1322         127.00       552.76
  370.03        2957.25           1325         122.00       530.96
  370.06        2957.50           1329         120.00       522.24
  370.08        2957.75           1332         122.00       530.96
  370.11        2958.00           1335         135.00       587.63
  370.14        2958.25           1339         124.00       539.68
  370.17        2958.50           1342         129.00       561.47
  370.19        2958.75           1345         127.00       552.76
  370.22        2959.00           1349         122.00       530.96
  370.25        2959.25           1352         140.00       609.43
  370.28        2959.50           1355         123.00       535.32
  370.30        2959.75           1359         127.00       552.76
  370.33        2960.00           1362         126.00       548.40
  370.36        2960.25           1365         125.00       544.04
  370.38        2960.50           1369         125.00       544.04
  370.41        2960.75           1372         139.00       605.07
  370.44        2961.00           1375         151.00       657.38
  370.47        2961.25           1379         158.00       687.90
  370.49        2961.50           1382         198.00       862.27
  370.52        2961.75           1385         554.00      2414.30
  370.55        2962.00           1389        1738.00      7577.14
  370.58        2962.25           1392        3218.00     14032.93
  370.61        2962.50           1395        4994.00     21783.19
  370.63        2962.75           1399        7621.00     33253.74
  370.66        2963.00           1402        9788.00     42721.68
  370.69        2963.25           1405       11793.00     51486.62
  370.72        2963.50           1409       14436.00     63047.65
  370.74        2963.75           1412       16173.00     70650.03
  370.77        2964.00           1415       17843.00     77962.44
  370.80        2964.25           1419       20060.00     87674.94
  370.83        2964.50           1422       21990.00     96134.76
  370.85        2964.75           1425       23799.00    104068.10
  370.88        2965.00           1429       26284.00    114972.20
  370.91        2965.25           1432       28222.00    123481.00
  370.94        2965.50           1435       29793.00    130381.70
  370.96        2965.75           1439       31992.00    140045.80
  370.99        2966.00           1442       34112.00    149367.90
  371.02        2966.25           1445       35927.00    157353.10
  371.05        2966.50           1449       38323.00    167900.30
  371.07        2966.75           1452       39031.00    171018.20
  371.10        2967.00           1455       39483.00    173009.00
  371.13        2967.25           1459       39714.00    174026.50
  371.16        2967.50           1462       39927.00    174964.80
  371.18        2967.75           1465       39773.00    174286.40
  371.21        2968.00           1469       38805.00    170022.90
  371.24        2968.25           1472       37792.00    165562.20
  371.27        2968.50           1475       36509.00    159914.40
  371.30        2968.75           1479       34203.00    149768.20
  371.32        2969.00           1482       32248.00    141171.20
  371.35        2969.25           1485       30656.00    134173.70
  371.38        2969.50           1489       28350.00    124043.20
  371.41        2969.75           1492       26858.00    117491.90
  371.43        2970.00           1495       25025.00    109446.80
  371.46        2970.25           1499       22222.00     97151.97
  371.49        2970.50           1502       20137.00     88012.38
  371.52        2970.75           1505       18180.00     79438.44
  371.54        2971.00           1509       15798.00     69008.46
  371.57        2971.25           1512       14254.00     62251.29
  371.60        2971.50           1515       12453.00     54372.84
  371.63        2971.75           1519       10038.00     43814.31
  371.65        2972.00           1522        8206.00     35809.16
  371.68        2972.25           1525        6380.00     27834.05
  371.71        2972.50           1529        4182.00     18239.27
  371.74        2972.75           1532        2687.00     11716.41
  371.77        2973.00           1536        1194.00      5204.82
  371.80        2973.25           1539         441.00      1921.65
  371.82        2973.50           1542         161.00       700.97
  371.85        2973.75           1546         134.00       583.27
  371.88        2974.00           1549         140.00       609.43
  371.91        2974.25           1552         124.00       539.68
  371.93        2974.50           1556         118.00       513.52
  371.96        2974.75           1559         119.00       517.88
  371.99        2975.00           1562         119.00       517.88
  372.02        2975.25           1566         106.00       461.21
  372.05        2975.50           1569         104.00       452.49
  372.07        2975.75           1572         116.00       504.80
  372.10        2976.00           1576         101.00       439.41
  372.13        2976.25           1579         111.00       483.01
  372.16        2976.50           1582         114.00       496.08
  372.18        2976.75           1586         113.00       491.72
  372.21        2977.00           1589         101.00       439.41
  372.24        2977.25           1592         113.00       491.72
  372.27        2977.50           1596         103.00       448.13
  372.29        2977.75           1599         110.00       478.65
  372.32        2978.00           1602         105.00       456.85
  372.35        2978.25           1606         114.00       496.08
  372.38        2978.50           1609          98.00       426.34
  372.40        2978.75           1612         108.00       469.93
  372.43        2979.00           1616         112.00       487.37
  372.46        2979.25           1619         111.00       483.01
  372.49        2979.50           1623         103.00       448.13
  372.51        2979.75           1626         108.00       469.93
  372.54        2980.00           1629         110.00       478.65
  372.57        2980.25           1633         105.00       456.85
  372.60        2980.50           1636         104.00       452.49
  372.62        2980.75           1639         106.00       461.21
  372.65        2981.00           1643         102.00       443.77
  372.68        2981.25           1646          94.00       408.90
  372.71        2981.50           1649          96.00       417.62
  372.73        2981.75           1653         109.00       474.29
  372.76        2982.00           1656         111.00       483.01
  372.79        2982.25           1659         105.00       456.85
  372.82        2982.50           1663         103.00       448.13
  372.84        2982.75           1666         108.00       469.93
  372.87        2983.00           1669         103.00       448.13
  372.90        2983.25           1673         111.00       483.01
  372.93        2983.50           1676         105.00       456.85
  372.95        2983.75           1679         105.00       456.85
  372.98        2984.00           1683         103.00       448.13
HS scan finished at 06:13:17
end
