************************************************************
  HS Scan of (1) Internal mercury lamp
************************************************************
Integration time is 0.2294 seconds per sample
dh250119NARL 13.459-79.1756 3.072425pr1000
************************************************************
Dead Time -------------------------  2.8E-08 
Number of Cycles Used -------------  4 
Starting Wavelength (Angstroms) ---  2950 
Final Wavelength (Angstoms) -------  2984 
Wavelength Increment (Angstroms) --  .25 
Filter Wheel #1 Position ---------- (1) Ground quartz diffuser (ND=2.32)
Filter Wheel #2 Position ---------- (1) Neutral Density 0.494



************************************************************
HS scan start time = 00:53:39
Dark Count =  .2 


Time (GMT)  Wavelength (Ang)  Step Number  Raw Counts  Counts/Second

   54.11        2950.00           1232         123.00       535.32
   54.21        2950.25           1236         112.00       487.36
   54.23        2950.50           1239         111.00       483.01
   54.26        2950.75           1242         117.00       509.16
   54.29        2951.00           1246         122.00       530.96
   54.32        2951.25           1249         108.00       469.93
   54.35        2951.50           1252         120.00       522.24
   54.38        2951.75           1256         122.00       530.96
   54.41        2952.00           1259         118.00       513.52
   54.43        2952.25           1262         122.00       530.96
   54.46        2952.50           1265         121.00       526.60
   54.49        2952.75           1269         114.00       496.08
   54.52        2953.00           1272         108.00       469.93
   54.55        2953.25           1275         117.00       509.16
   54.58        2953.50           1279         116.00       504.80
   54.60        2953.75           1282         114.00       496.08
   54.63        2954.00           1285         117.00       509.16
   54.66        2954.25           1289         113.00       491.72
   54.69        2954.50           1292         113.00       491.72
   54.72        2954.75           1295         110.00       478.65
   54.75        2955.00           1299         112.00       487.36
   54.77        2955.25           1302         120.00       522.24
   54.80        2955.50           1305         120.00       522.24
   54.83        2955.75           1309         108.00       469.93
   54.86        2956.00           1312         116.00       504.80
   54.89        2956.25           1315         109.00       474.29
   54.92        2956.50           1318         109.00       474.29
   54.95        2956.75           1322         105.00       456.85
   54.97        2957.00           1325         117.00       509.16
   55.00        2957.25           1328         110.00       478.65
   55.03        2957.50           1332         110.00       478.65
   55.06        2957.75           1335         104.00       452.49
   55.09        2958.00           1338         111.00       483.01
   55.12        2958.25           1342         114.00       496.08
   55.14        2958.50           1345         110.00       478.65
   55.17        2958.75           1348         116.00       504.80
   55.20        2959.00           1352         112.00       487.36
   55.23        2959.25           1355         113.00       491.72
   55.26        2959.50           1358         106.00       461.21
   55.29        2959.75           1362         114.00       496.08
   55.31        2960.00           1365         118.00       513.52
   55.34        2960.25           1368         119.00       517.88
   55.37        2960.50           1372         136.00       591.99
   55.40        2960.75           1375         136.00       591.99
   55.43        2961.00           1378         162.00       705.33
   55.46        2961.25           1382         247.00      1075.88
   55.48        2961.50           1385         886.00      3861.80
   55.51        2961.75           1388        2248.00      9801.29
   55.54        2962.00           1391        4457.00     19438.65
   55.57        2962.25           1395        8505.00     37112.65
   55.60        2962.50           1398       12136.00     52980.89
   55.63        2962.75           1401       15637.00     68294.38
   55.66        2963.00           1405       20143.00     88023.13
   55.68        2963.25           1408       23558.00    102989.70
   55.71        2963.50           1411       27630.00    120852.00
   55.74        2963.75           1415       32654.00    142915.10
   55.77        2964.00           1418       36141.00    158244.50
   55.80        2964.25           1421       40243.00    176294.40
   55.83        2964.50           1425       44813.00    196425.20
   55.86        2964.75           1428       48834.00    214156.50
   55.89        2965.00           1431       52274.00    229339.90
   55.91        2965.25           1435       56837.00    249499.80
   55.94        2965.50           1438       60560.00    265965.50
   55.97        2965.75           1441       63748.00    280077.10
   56.00        2966.00           1445       67404.00    296274.10
   56.03        2966.25           1448       70855.00    311576.50
   56.06        2966.50           1451       73053.00    321329.70
   56.08        2966.75           1455       74924.00    329636.20
   56.11        2967.00           1458       74692.00    328606.00
   56.14        2967.25           1461       74568.00    328055.40
   56.17        2967.50           1465       74807.00    329116.60
   56.20        2967.75           1468       74026.00    325649.00
   56.23        2968.00           1471       72372.00    318307.40
   56.26        2968.25           1475       68761.00    302289.80
   56.29        2968.50           1478       66096.00    290477.60
   56.31        2968.75           1481       63137.00    277371.70
   56.34        2969.00           1485       58813.00    258237.10
   56.37        2969.25           1488       55548.00    243802.50
   56.40        2969.50           1491       52033.00    228275.70
   56.43        2969.75           1495       46629.00    204431.00
   56.46        2970.00           1498       42761.00    187383.40
   56.49        2970.25           1501       39422.00    172680.40
   56.52        2970.50           1505       34722.00    152004.80
   56.54        2970.75           1508       31161.00    136355.70
   56.57        2971.00           1511       27435.00    119996.20
   56.60        2971.25           1515       23174.00    101306.20
   56.63        2971.50           1518       20340.00     88886.18
   56.66        2971.75           1521       17168.00     74995.16
   56.69        2972.00           1525       12552.00     54799.80
   56.71        2972.25           1528        8801.00     38405.71
   56.74        2972.50           1531        4949.00     21585.84
   56.77        2972.75           1535        1740.00      7585.74
   56.80        2973.00           1538         671.00      2924.39
   56.83        2973.25           1541         247.00      1075.88
   56.86        2973.50           1544         166.00       722.77
   56.88        2973.75           1548         164.00       714.05
   56.91        2974.00           1551         139.00       605.07
   56.94        2974.25           1554         127.00       552.75
   56.97        2974.50           1558         126.00       548.40
   57.00        2974.75           1561         117.00       509.16
   57.03        2975.00           1564         117.00       509.16
   57.06        2975.25           1568         110.00       478.65
   57.08        2975.50           1571          99.00       430.69
   57.11        2975.75           1574          94.00       408.90
   57.14        2976.00           1578          95.00       413.26
   57.17        2976.25           1581          95.00       413.26
   57.20        2976.50           1584         103.00       448.13
   57.23        2976.75           1588         104.00       452.49
   57.26        2977.00           1591         105.00       456.85
   57.28        2977.25           1595          99.00       430.69
   57.31        2977.50           1598         110.00       478.65
   57.34        2977.75           1601         108.00       469.93
   57.37        2978.00           1605          92.00       400.18
   57.40        2978.25           1608         104.00       452.49
   57.43        2978.50           1611         102.00       443.77
   57.45        2978.75           1615         102.00       443.77
   57.48        2979.00           1618         101.00       439.41
   57.51        2979.25           1621         101.00       439.41
   57.54        2979.50           1625         102.00       443.77
   57.57        2979.75           1628         104.00       452.49
   57.60        2980.00           1631         100.00       435.05
   57.63        2980.25           1635         101.00       439.41
   57.66        2980.50           1638         103.00       448.13
   57.68        2980.75           1641          90.00       391.46
   57.71        2981.00           1645          98.00       426.33
   57.74        2981.25           1648          89.00       387.10
   57.77        2981.50           1651          93.00       404.54
   57.79        2981.75           1655         100.00       435.05
   57.82        2982.00           1658          90.00       391.46
   57.85        2982.25           1661         110.00       478.65
   57.88        2982.50           1665          96.00       417.62
   57.91        2982.75           1668          98.00       426.33
   57.94        2983.00           1671         105.00       456.85
   57.97        2983.25           1675          97.00       421.98
   58.00        2983.50           1678          98.00       426.33
   58.02        2983.75           1681          99.00       430.69
   58.05        2984.00           1685         106.00       461.21
HS scan finished at 00:58:21
end
