************************************************************
  HS Scan of (1) Internal mercury lamp
************************************************************
Integration time is 0.2294 seconds per sample
dh250117DelftKZ 51.997-4.386 2.214056pr1000
************************************************************
Dead Time -------------------------  3E-08 
Number of Cycles Used -------------  4 
Starting Wavelength (Angstroms) ---  2950 
Final Wavelength (Angstoms) -------  2984 
Wavelength Increment (Angstroms) --  .25 
Filter Wheel #1 Position ---------- (1) Ground quartz diffuser (ND=2.32)
Filter Wheel #2 Position ---------- (1) Neutral Density 0.494



************************************************************
HS scan start time = 06:07:16
Dark Count =  0 


Time (GMT)  Wavelength (Ang)  Step Number  Raw Counts  Counts/Second

  367.72        2950.00           1229         137.00       597.22
  367.82        2950.25           1232         138.00       601.58
  367.84        2950.50           1236         136.00       592.86
  367.87        2950.75           1239         123.00       536.19
  367.90        2951.00           1242         136.00       592.86
  367.93        2951.25           1246         138.00       601.58
  367.95        2951.50           1249         130.00       566.71
  367.98        2951.75           1252         127.00       553.63
  368.01        2952.00           1255         144.00       627.74
  368.04        2952.25           1259         133.00       579.78
  368.07        2952.50           1262         129.00       562.35
  368.09        2952.75           1265         132.00       575.42
  368.12        2953.00           1269         131.00       571.06
  368.15        2953.25           1272         143.00       623.38
  368.18        2953.50           1275         125.00       544.91
  368.20        2953.75           1279         134.00       584.14
  368.23        2954.00           1282         122.00       531.83
  368.26        2954.25           1285         126.00       549.27
  368.29        2954.50           1289         129.00       562.35
  368.31        2954.75           1292         133.00       579.78
  368.34        2955.00           1295         132.00       575.42
  368.37        2955.25           1299         128.00       557.99
  368.40        2955.50           1302         131.00       571.06
  368.42        2955.75           1305         118.00       514.39
  368.45        2956.00           1309         123.00       536.19
  368.48        2956.25           1312         121.00       527.47
  368.51        2956.50           1315         124.00       540.55
  368.53        2956.75           1319         125.00       544.91
  368.56        2957.00           1322         118.00       514.39
  368.59        2957.25           1325         125.00       544.91
  368.62        2957.50           1329         115.00       501.32
  368.65        2957.75           1332         121.00       527.47
  368.67        2958.00           1335         128.00       557.99
  368.70        2958.25           1339         123.00       536.19
  368.73        2958.50           1342         133.00       579.78
  368.76        2958.75           1345         120.00       523.11
  368.78        2959.00           1349         122.00       531.83
  368.81        2959.25           1352         125.00       544.91
  368.84        2959.50           1355         130.00       566.71
  368.87        2959.75           1359         123.00       536.19
  368.89        2960.00           1362         129.00       562.35
  368.92        2960.25           1365         129.00       562.35
  368.95        2960.50           1369         142.00       619.02
  368.98        2960.75           1372         131.00       571.06
  369.00        2961.00           1375         147.00       640.81
  369.03        2961.25           1379         157.00       684.41
  369.06        2961.50           1382         238.00      1037.52
  369.10        2961.75           1385         597.00      2602.64
  369.13        2962.00           1389        1691.00      7373.03
  369.15        2962.25           1392        3132.00     13658.60
  369.18        2962.50           1395        4863.00     21212.27
  369.21        2962.75           1399        7767.00     33892.34
  369.24        2963.00           1402        9778.00     42678.85
  369.26        2963.25           1405       11498.00     50197.60
  369.29        2963.50           1409       14068.00     61438.34
  369.32        2963.75           1412       16140.00     70506.43
  369.35        2964.00           1415       18319.00     80048.15
  369.38        2964.25           1419       20748.00     90691.05
  369.40        2964.50           1422       22560.00     98634.94
  369.44        2964.75           1425       24410.00    106749.30
  369.47        2965.00           1429       26967.00    117971.30
  369.49        2965.25           1432       29100.00    127338.20
  369.52        2965.50           1435       30918.00    135326.00
  369.55        2965.75           1439       33639.00    147288.40
  369.58        2966.00           1442       35526.00    155589.40
  369.61        2966.25           1445       37432.00    163978.20
  369.63        2966.50           1449       39343.00    172393.20
  369.66        2966.75           1452       40337.00    176771.90
  369.69        2967.00           1455       40709.00    178411.00
  369.72        2967.25           1459       40845.00    179010.20
  369.74        2967.50           1462       40648.00    178142.20
  369.77        2967.75           1465       40613.00    177988.00
  369.80        2968.00           1469       39697.00    173952.50
  369.83        2968.25           1472       38419.00    168323.90
  369.86        2968.50           1475       36787.00    161138.90
  369.89        2968.75           1479       34747.00    152162.10
  369.91        2969.00           1482       32990.00    144434.40
  369.94        2969.25           1485       31120.00    136213.70
  369.97        2969.50           1489       28523.00    124803.80
  370.00        2969.75           1492       26667.00    116654.30
  370.03        2970.00           1495       24929.00    109026.50
  370.05        2970.25           1499       22407.00     97964.03
  370.08        2970.50           1502       20799.00     90914.59
  370.11        2970.75           1505       19004.00     83048.85
  370.14        2971.00           1509       16320.00     71294.43
  370.16        2971.25           1512       14346.00     62654.71
  370.19        2971.50           1515       12538.00     54745.46
  370.22        2971.75           1519        9914.00     43273.23
  370.25        2972.00           1522        8283.00     36146.41
  370.27        2972.25           1525        6440.00     28096.91
  370.30        2972.50           1529        3990.00     17402.28
  370.33        2972.75           1532        2407.00     10495.90
  370.36        2973.00           1536        1100.00      4795.81
  370.39        2973.25           1539         509.00      2218.98
  370.41        2973.50           1542         207.00       902.38
  370.44        2973.75           1546         137.00       597.22
  370.47        2974.00           1549         139.00       605.94
  370.50        2974.25           1552         118.00       514.39
  370.52        2974.50           1556         121.00       527.47
  370.55        2974.75           1559         106.00       462.08
  370.58        2975.00           1562         123.00       536.19
  370.61        2975.25           1566         125.00       544.91
  370.63        2975.50           1569         106.00       462.08
  370.66        2975.75           1572         115.00       501.32
  370.69        2976.00           1576         111.00       483.88
  370.72        2976.25           1579         105.00       457.72
  370.74        2976.50           1582         116.00       505.67
  370.77        2976.75           1586         112.00       488.24
  370.80        2977.00           1589         110.00       479.52
  370.83        2977.25           1592         103.00       449.00
  370.85        2977.50           1596         108.00       470.80
  370.88        2977.75           1599         108.00       470.80
  370.91        2978.00           1602         109.00       475.16
  370.94        2978.25           1606          97.00       422.85
  370.96        2978.50           1609         106.00       462.08
  370.99        2978.75           1612         105.00       457.72
  371.02        2979.00           1616         110.00       479.52
  371.05        2979.25           1619         108.00       470.80
  371.07        2979.50           1623         112.00       488.24
  371.10        2979.75           1626         113.00       492.60
  371.13        2980.00           1629         108.00       470.80
  371.16        2980.25           1633         107.00       466.44
  371.18        2980.50           1636          99.00       431.57
  371.21        2980.75           1639         103.00       449.00
  371.24        2981.00           1643         109.00       475.16
  371.27        2981.25           1646         101.00       440.28
  371.29        2981.50           1649         108.00       470.80
  371.32        2981.75           1653         108.00       470.80
  371.35        2982.00           1656          94.00       409.77
  371.38        2982.25           1659          99.00       431.57
  371.40        2982.50           1663         100.00       435.93
  371.43        2982.75           1666         104.00       453.36
  371.46        2983.00           1669          95.00       414.13
  371.49        2983.25           1673         110.00       479.52
  371.51        2983.50           1676         101.00       440.28
  371.54        2983.75           1679         108.00       470.80
  371.57        2984.00           1683         108.00       470.80
HS scan finished at 06:11:52
end
