************************************************************
  HS Scan of (1) Internal mercury lamp
************************************************************
Integration time is 0.2294 seconds per sample
dh220119NARL 13.459-79.1756 2.857833pr1000
************************************************************
Dead Time -------------------------  2.8E-08 
Number of Cycles Used -------------  4 
Starting Wavelength (Angstroms) ---  2950 
Final Wavelength (Angstoms) -------  2984 
Wavelength Increment (Angstroms) --  .25 
Filter Wheel #1 Position ---------- (1) Ground quartz diffuser (ND=2.32)
Filter Wheel #2 Position ---------- (1) Neutral Density 0.494



************************************************************
HS scan start time = 00:53:39
Dark Count =  .1 


Time (GMT)  Wavelength (Ang)  Step Number  Raw Counts  Counts/Second

   54.11        2950.00           1232         128.00       557.55
   54.21        2950.25           1236         127.00       553.19
   54.24        2950.50           1239         125.00       544.47
   54.26        2950.75           1242         124.00       540.11
   54.29        2951.00           1246         134.00       583.71
   54.32        2951.25           1249         140.00       609.86
   54.35        2951.50           1252         138.00       601.14
   54.38        2951.75           1256         127.00       553.19
   54.41        2952.00           1259         120.00       522.68
   54.43        2952.25           1262         130.00       566.27
   54.46        2952.50           1265         119.00       518.32
   54.49        2952.75           1269         120.00       522.68
   54.52        2953.00           1272         123.00       535.75
   54.55        2953.25           1275         125.00       544.47
   54.58        2953.50           1279         116.00       505.24
   54.60        2953.75           1282         125.00       544.47
   54.63        2954.00           1285         124.00       540.11
   54.66        2954.25           1289         126.00       548.83
   54.69        2954.50           1292         121.00       527.03
   54.72        2954.75           1295         131.00       570.63
   54.74        2955.00           1299         138.00       601.14
   54.77        2955.25           1302         134.00       583.71
   54.80        2955.50           1305         128.00       557.55
   54.83        2955.75           1309         124.00       540.11
   54.86        2956.00           1312         120.00       522.68
   54.89        2956.25           1315         128.00       557.55
   54.91        2956.50           1318         126.00       548.83
   54.94        2956.75           1322         117.00       509.60
   54.97        2957.00           1325         124.00       540.11
   55.00        2957.25           1328         128.00       557.55
   55.03        2957.50           1332         130.00       566.27
   55.05        2957.75           1335         124.00       540.11
   55.08        2958.00           1338         128.00       557.55
   55.11        2958.25           1342         129.00       561.91
   55.14        2958.50           1345         117.00       509.60
   55.17        2958.75           1348         119.00       518.32
   55.20        2959.00           1352         116.00       505.24
   55.23        2959.25           1355         131.00       570.63
   55.25        2959.50           1358         117.00       509.60
   55.28        2959.75           1362         121.00       527.03
   55.31        2960.00           1365         124.00       540.11
   55.34        2960.25           1368         127.00       553.19
   55.36        2960.50           1372         131.00       570.63
   55.39        2960.75           1375         149.00       649.10
   55.42        2961.00           1378         156.00       679.61
   55.45        2961.25           1382         249.00      1085.04
   55.48        2961.50           1385         779.00      3395.70
   55.51        2961.75           1388        2405.00     10486.51
   55.53        2962.00           1391        4847.00     21141.11
   55.56        2962.25           1395        8911.00     38886.70
   55.59        2962.50           1398       12531.00     54708.42
   55.62        2962.75           1401       16091.00     70281.60
   55.65        2963.00           1405       20830.00     91033.41
   55.67        2963.25           1408       24518.00    107199.70
   55.70        2963.50           1411       27477.00    120181.00
   55.73        2963.75           1415       31740.00    138899.70
   55.76        2964.00           1418       34963.00    153064.80
   55.79        2964.25           1421       38288.00    167690.10
   55.81        2964.50           1425       43265.00    189604.20
   55.84        2964.75           1428       46323.00    203082.20
   55.87        2965.00           1431       49516.00    217166.10
   55.90        2965.25           1435       53705.00    235660.20
   55.93        2965.50           1438       56964.00    250061.70
   55.96        2965.75           1441       60319.00    264899.60
   55.99        2966.00           1445       64571.00    283722.40
   56.01        2966.25           1448       67047.00    294692.40
   56.04        2966.50           1451       69528.00    305691.20
   56.07        2966.75           1455       70758.00    311146.70
   56.10        2967.00           1458       71239.00    313280.50
   56.13        2967.25           1461       70975.00    312109.30
   56.16        2967.50           1465       70732.00    311031.30
   56.18        2967.75           1468       69708.00    306489.50
   56.21        2968.00           1471       68168.00    299661.20
   56.24        2968.25           1475       64451.00    283190.90
   56.27        2968.50           1478       61261.00    269067.90
   56.30        2968.75           1481       58293.00    255937.90
   56.32        2969.00           1485       54333.00    238434.40
   56.35        2969.25           1488       51531.00    226059.80
   56.38        2969.50           1491       48563.00    212961.40
   56.41        2969.75           1495       44070.00    193151.20
   56.44        2970.00           1498       40374.00    176871.60
   56.47        2970.25           1501       36541.00    160004.30
   56.49        2970.50           1505       32487.00    142181.70
   56.52        2970.75           1508       29123.00    127406.20
   56.55        2971.00           1511       25624.00    112050.70
   56.58        2971.25           1515       21452.00     93758.89
   56.61        2971.50           1518       17874.00     78086.41
   56.64        2971.75           1521       14856.00     64877.56
   56.67        2972.00           1525       11144.00     48644.68
   56.69        2972.25           1528        8137.00     35505.64
   56.72        2972.50           1531        5335.00     23271.04
   56.75        2972.75           1535        1845.00      8044.10
   56.78        2973.00           1538         585.00      2549.88
   56.81        2973.25           1541         235.00      1024.01
   56.83        2973.50           1544         193.00       840.91
   56.86        2973.75           1548         155.00       675.25
   56.89        2974.00           1551         136.00       592.42
   56.92        2974.25           1554         131.00       570.63
   56.95        2974.50           1558         130.00       566.27
   56.97        2974.75           1561         128.00       557.55
   57.00        2975.00           1564         117.00       509.60
   57.03        2975.25           1568         113.00       492.16
   57.06        2975.50           1571         109.00       474.72
   57.09        2975.75           1574         125.00       544.47
   57.12        2976.00           1578         110.00       479.08
   57.14        2976.25           1581         119.00       518.32
   57.17        2976.50           1584         117.00       509.60
   57.20        2976.75           1588         103.00       448.57
   57.23        2977.00           1591         113.00       492.16
   57.26        2977.25           1595         118.00       513.96
   57.29        2977.50           1598         115.00       500.88
   57.31        2977.75           1601         105.00       457.29
   57.34        2978.00           1605         104.00       452.93
   57.37        2978.25           1608         120.00       522.68
   57.40        2978.50           1611         124.00       540.11
   57.43        2978.75           1615         113.00       492.16
   57.45        2979.00           1618         109.00       474.72
   57.48        2979.25           1621         118.00       513.96
   57.51        2979.50           1625         112.00       487.80
   57.54        2979.75           1628         123.00       535.75
   57.57        2980.00           1631         106.00       461.65
   57.60        2980.25           1635         112.00       487.80
   57.62        2980.50           1638         111.00       483.44
   57.65        2980.75           1641         108.00       470.36
   57.68        2981.00           1645         107.00       466.00
   57.71        2981.25           1648         109.00       474.72
   57.74        2981.50           1651         105.00       457.29
   57.76        2981.75           1655         118.00       513.96
   57.79        2982.00           1658         113.00       492.16
   57.82        2982.25           1661         111.00       483.44
   57.85        2982.50           1665         100.00       435.49
   57.88        2982.75           1668         102.00       444.21
   57.90        2983.00           1671         101.00       439.85
   57.93        2983.25           1675         104.00       452.93
   57.96        2983.50           1678         109.00       474.72
   57.99        2983.75           1681         101.00       439.85
   58.02        2984.00           1685         101.00       439.85
HS scan finished at 00:58:19
end
************************************************************
  HS Scan of (1) Internal mercury lamp
************************************************************
Integration time is 0.2294 seconds per sample
dh220119NARL 13.459-79.1756 3.50161pr1000
************************************************************
Dead Time -------------------------  2.8E-08 
Number of Cycles Used -------------  4 
Starting Wavelength (Angstroms) ---  2950 
Final Wavelength (Angstoms) -------  2984 
Wavelength Increment (Angstroms) --  .25 
Filter Wheel #1 Position ---------- (1) Ground quartz diffuser (ND=2.32)
Filter Wheel #2 Position ---------- (1) Neutral Density 0.494



************************************************************
HS scan start time = 13:32:41
Dark Count =  .7 


Time (GMT)  Wavelength (Ang)  Step Number  Raw Counts  Counts/Second

  813.13        2950.00           1232         106.00       459.03
  813.23        2950.25           1236         102.00       441.59
  813.26        2950.50           1239         107.00       463.39
  813.28        2950.75           1242          99.00       428.51
  813.31        2951.00           1246         107.00       463.39
  813.34        2951.25           1249          93.00       402.36
  813.37        2951.50           1252         108.00       467.75
  813.40        2951.75           1256         100.00       432.87
  813.43        2952.00           1259         100.00       432.87
  813.45        2952.25           1262          92.00       398.00
  813.48        2952.50           1265          97.00       419.80
  813.51        2952.75           1269         103.00       445.95
  813.54        2953.00           1272         109.00       472.11
  813.57        2953.25           1275          97.00       419.80
  813.59        2953.50           1279         101.00       437.23
  813.62        2953.75           1282         113.00       489.54
  813.65        2954.00           1285          89.00       384.92
  813.68        2954.25           1289         102.00       441.59
  813.71        2954.50           1292         107.00       463.39
  813.74        2954.75           1295          98.00       424.16
  813.76        2955.00           1299         105.00       454.67
  813.79        2955.25           1302          96.00       415.44
  813.82        2955.50           1305         103.00       445.95
  813.85        2955.75           1309          99.00       428.51
  813.88        2956.00           1312         107.00       463.39
  813.91        2956.25           1315         110.00       476.47
  813.93        2956.50           1318          92.00       398.00
  813.96        2956.75           1322          94.00       406.72
  813.99        2957.00           1325          95.00       411.08
  814.02        2957.25           1328         102.00       441.59
  814.04        2957.50           1332          95.00       411.08
  814.07        2957.75           1335          97.00       419.80
  814.10        2958.00           1338          98.00       424.16
  814.13        2958.25           1342         108.00       467.75
  814.16        2958.50           1345         104.00       450.31
  814.19        2958.75           1348         103.00       445.95
  814.21        2959.00           1352          95.00       411.08
  814.24        2959.25           1355         100.00       432.87
  814.27        2959.50           1358         102.00       441.59
  814.30        2959.75           1362          92.00       398.00
  814.33        2960.00           1365          97.00       419.80
  814.35        2960.25           1368         115.00       498.26
  814.38        2960.50           1372         120.00       520.06
  814.41        2960.75           1375         128.00       554.93
  814.44        2961.00           1378         136.00       589.81
  814.47        2961.25           1382         206.00       894.97
  814.50        2961.50           1385         903.00      3933.74
  814.52        2961.75           1388        2522.00     10994.23
  814.55        2962.00           1391        4807.00     20963.91
  814.58        2962.25           1395        9072.00     39587.45
  814.61        2962.50           1398       12840.00     56056.97
  814.64        2962.75           1401       16094.00     70292.10
  814.66        2963.00           1405       21568.00     94264.60
  814.69        2963.25           1408       25622.00    112039.20
  814.72        2963.50           1411       29177.00    127640.60
  814.75        2963.75           1415       34468.00    150885.90
  814.78        2964.00           1418       37986.00    166358.60
  814.81        2964.25           1421       41895.00    183566.60
  814.83        2964.50           1425       46816.00    205253.40
  814.86        2964.75           1428       49613.00    217591.50
  814.89        2965.00           1431       52822.00    231757.60
  814.92        2965.25           1435       57483.00    252353.60
  814.95        2965.50           1438       61459.00    269941.50
  814.98        2965.75           1441       65259.00    286767.20
  815.00        2966.00           1445       69425.00    305231.80
  815.03        2966.25           1448       72599.00    319312.50
  815.06        2966.50           1451       75036.00    330131.30
  815.09        2966.75           1455       76814.00    338028.60
  815.12        2967.00           1458       76850.00    338188.60
  815.14        2967.25           1461       76969.00    338717.30
  815.17        2967.50           1465       76715.00    337588.80
  815.20        2967.75           1468       76292.00    335709.70
  815.23        2968.00           1471       74965.00    329816.00
  815.26        2968.25           1475       71426.00    314107.50
  815.29        2968.50           1478       68284.00    300172.80
  815.31        2968.75           1481       64025.00    281301.50
  815.34        2969.00           1485       59103.00    259517.60
  815.37        2969.25           1488       55836.00    245073.10
  815.40        2969.50           1491       52077.00    228467.80
  815.43        2969.75           1495       47094.00    206479.40
  815.46        2970.00           1498       43884.00    192328.90
  815.48        2970.25           1501       40584.00    177793.50
  815.51        2970.50           1505       36189.00    158453.40
  815.54        2970.75           1508       32473.00    142117.60
  815.57        2971.00           1511       28643.00    125296.30
  815.60        2971.25           1515       23355.00    102097.50
  815.63        2971.50           1518       19722.00     86176.75
  815.65        2971.75           1521       16361.00     71460.63
  815.68        2972.00           1525       12052.00     52611.46
  815.71        2972.25           1528        8568.00     37385.67
  815.74        2972.50           1531        5001.00     21810.61
  815.77        2972.75           1535        1360.00      5926.44
  815.80        2973.00           1538         464.00      2019.73
  815.82        2973.25           1541         228.00       990.87
  815.85        2973.50           1544         183.00       794.70
  815.88        2973.75           1548         168.00       729.31
  815.91        2974.00           1551         152.00       659.56
  815.94        2974.25           1554         124.00       537.50
  815.97        2974.50           1558         117.00       506.98
  815.99        2974.75           1561         106.00       459.03
  816.02        2975.00           1564         108.00       467.75
  816.05        2975.25           1568          95.00       411.08
  816.08        2975.50           1571          93.00       402.36
  816.11        2975.75           1574          91.00       393.64
  816.14        2976.00           1578          92.00       398.00
  816.17        2976.25           1581         103.00       445.95
  816.20        2976.50           1584          92.00       398.00
  816.22        2976.75           1588          98.00       424.16
  816.25        2977.00           1591          99.00       428.51
  816.28        2977.25           1595          82.00       354.41
  816.31        2977.50           1598          98.00       424.16
  816.34        2977.75           1601         101.00       437.23
  816.37        2978.00           1605          98.00       424.16
  816.40        2978.25           1608          92.00       398.00
  816.42        2978.50           1611          96.00       415.44
  816.45        2978.75           1615          83.00       358.77
  816.48        2979.00           1618          93.00       402.36
  816.51        2979.25           1621         103.00       445.95
  816.54        2979.50           1625          89.00       384.92
  816.57        2979.75           1628         100.00       432.87
  816.60        2980.00           1631          94.00       406.72
  816.63        2980.25           1635          95.00       411.08
  816.66        2980.50           1638          94.00       406.72
  816.69        2980.75           1641          88.00       380.56
  816.71        2981.00           1645          95.00       411.08
  816.74        2981.25           1648          92.00       398.00
  816.77        2981.50           1651          97.00       419.80
  816.80        2981.75           1655          88.00       380.56
  816.83        2982.00           1658          97.00       419.80
  816.86        2982.25           1661          93.00       402.36
  816.88        2982.50           1665          90.00       389.28
  816.91        2982.75           1668          89.00       384.92
  816.94        2983.00           1671          99.00       428.51
  816.97        2983.25           1675          82.00       354.41
  817.00        2983.50           1678          96.00       415.44
  817.02        2983.75           1681          82.00       354.41
  817.05        2984.00           1685          92.00       398.00
HS scan finished at 13:37:21
end
