************************************************************
  HS Scan of (1) Internal mercury lamp
************************************************************
Integration time is 0.2294 seconds per sample
dh270117DelftKZ 51.997-4.386 2.10676pr1000
************************************************************
Dead Time -------------------------  3E-08 
Number of Cycles Used -------------  4 
Starting Wavelength (Angstroms) ---  2950 
Final Wavelength (Angstoms) -------  2984 
Wavelength Increment (Angstroms) --  .25 
Filter Wheel #1 Position ---------- (1) Ground quartz diffuser (ND=2.32)
Filter Wheel #2 Position ---------- (1) Neutral Density 0.494



************************************************************
HS scan start time = 00:34:24
Dark Count =  0 


Time (GMT)  Wavelength (Ang)  Step Number  Raw Counts  Counts/Second

   34.85        2950.00           1229         136.00       592.86
   34.95        2950.25           1232         145.00       632.10
   34.98        2950.50           1236         142.00       619.02
   35.01        2950.75           1239         139.00       605.94
   35.03        2951.00           1242         128.00       557.99
   35.06        2951.25           1246         140.00       610.30
   35.09        2951.50           1249         138.00       601.58
   35.12        2951.75           1252         127.00       553.63
   35.15        2952.00           1255         132.00       575.42
   35.18        2952.25           1259         130.00       566.71
   35.20        2952.50           1262         134.00       584.14
   35.23        2952.75           1265         128.00       557.99
   35.26        2953.00           1269         149.00       649.53
   35.29        2953.25           1272         133.00       579.78
   35.32        2953.50           1275         144.00       627.74
   35.34        2953.75           1279         126.00       549.27
   35.37        2954.00           1282         137.00       597.22
   35.40        2954.25           1285         126.00       549.27
   35.43        2954.50           1289         131.00       571.06
   35.45        2954.75           1292         140.00       610.30
   35.48        2955.00           1295         133.00       579.78
   35.51        2955.25           1299         140.00       610.30
   35.54        2955.50           1302         132.00       575.42
   35.56        2955.75           1305         130.00       566.71
   35.59        2956.00           1309         147.00       640.81
   35.62        2956.25           1312         135.00       588.50
   35.65        2956.50           1315         128.00       557.99
   35.67        2956.75           1319         134.00       584.14
   35.70        2957.00           1322         121.00       527.47
   35.73        2957.25           1325         133.00       579.78
   35.76        2957.50           1329         126.00       549.27
   35.78        2957.75           1332         129.00       562.35
   35.81        2958.00           1335         130.00       566.71
   35.84        2958.25           1339         129.00       562.35
   35.87        2958.50           1342         115.00       501.32
   35.90        2958.75           1345         126.00       549.27
   35.92        2959.00           1349         124.00       540.55
   35.95        2959.25           1352         123.00       536.19
   35.98        2959.50           1355         134.00       584.14
   36.01        2959.75           1359         132.00       575.42
   36.03        2960.00           1362         128.00       557.99
   36.06        2960.25           1365         137.00       597.22
   36.09        2960.50           1369         134.00       584.14
   36.12        2960.75           1372         151.00       658.25
   36.14        2961.00           1375         163.00       710.56
   36.17        2961.25           1379         175.00       762.88
   36.20        2961.50           1382         236.00      1028.80
   36.23        2961.75           1385         776.00      3383.08
   36.26        2962.00           1389        2274.00      9915.77
   36.29        2962.25           1392        4031.00     17581.20
   36.32        2962.50           1395        5825.00     25411.69
   36.34        2962.75           1399        8361.00     36487.17
   36.37        2963.00           1402       10920.00     47670.57
   36.40        2963.25           1405       13260.00     57903.47
   36.43        2963.50           1409       15963.00     69731.60
   36.45        2963.75           1412       18418.00     80481.79
   36.48        2964.00           1415       20682.00     90401.77
   36.51        2964.25           1419       23540.00    102932.90
   36.54        2964.50           1422       25708.00    112444.90
   36.57        2964.75           1425       27859.00    121887.80
   36.60        2965.00           1429       30571.00    133801.10
   36.63        2965.25           1432       32505.00    142301.90
   36.66        2965.50           1435       34016.00    148946.60
   36.69        2965.75           1439       36747.00    160962.90
   36.72        2966.00           1442       38739.00    169733.10
   36.74        2966.25           1445       41015.00    179759.30
   36.77        2966.50           1449       43258.00    189646.10
   36.80        2966.75           1452       44321.00    194333.70
   36.83        2967.00           1455       44630.00    195696.50
   36.85        2967.25           1459       44840.00    196622.90
   36.88        2967.50           1462       44664.00    195846.50
   36.91        2967.75           1465       44453.00    194915.90
   36.94        2968.00           1469       43649.00    191370.20
   36.96        2968.25           1472       42554.00    186542.40
   36.99        2968.50           1475       40780.00    178723.80
   37.02        2968.75           1479       38759.00    169821.10
   37.05        2969.00           1482       36560.00    160139.80
   37.08        2969.25           1485       34430.00    150767.60
   37.10        2969.50           1489       31248.00    136776.30
   37.13        2969.75           1492       28995.00    126877.00
   37.16        2970.00           1495       27167.00    118849.30
   37.19        2970.25           1499       24359.00    106525.60
   37.21        2970.50           1502       22034.00     96328.55
   37.24        2970.75           1505       19847.00     86742.44
   37.27        2971.00           1509       17697.00     77323.90
   37.30        2971.25           1512       15693.00     68549.73
   37.33        2971.50           1515       13635.00     59543.94
   37.36        2971.75           1519       10786.00     47084.78
   37.39        2972.00           1522        8574.00     37417.75
   37.41        2972.25           1525        6533.00     28503.00
   37.44        2972.50           1529        4049.00     17659.75
   37.47        2972.75           1532        2442.00     10648.56
   37.50        2973.00           1536         924.00      4028.39
   37.52        2973.25           1539         329.00      1434.24
   37.55        2973.50           1542         177.00       771.60
   37.58        2973.75           1546         156.00       680.05
   37.61        2974.00           1549         128.00       557.99
   37.64        2974.25           1552         125.00       544.91
   37.66        2974.50           1556         129.00       562.35
   37.69        2974.75           1559         118.00       514.39
   37.72        2975.00           1562         114.00       496.96
   37.75        2975.25           1566         116.00       505.67
   37.77        2975.50           1569         125.00       544.91
   37.80        2975.75           1572         117.00       510.03
   37.83        2976.00           1576         117.00       510.03
   37.86        2976.25           1579         118.00       514.39
   37.88        2976.50           1582         110.00       479.52
   37.92        2976.75           1586         115.00       501.32
   37.95        2977.00           1589         118.00       514.39
   37.98        2977.25           1592         115.00       501.32
   38.01        2977.50           1596         112.00       488.24
   38.03        2977.75           1599         102.00       444.64
   38.06        2978.00           1602         115.00       501.32
   38.09        2978.25           1606         109.00       475.16
   38.12        2978.50           1609         108.00       470.80
   38.14        2978.75           1612         109.00       475.16
   38.17        2979.00           1616         104.00       453.36
   38.20        2979.25           1619         115.00       501.32
   38.23        2979.50           1623         126.00       549.27
   38.25        2979.75           1626         119.00       518.75
   38.28        2980.00           1629         106.00       462.08
   38.31        2980.25           1633         121.00       527.47
   38.34        2980.50           1636         111.00       483.88
   38.36        2980.75           1639         110.00       479.52
   38.39        2981.00           1643         112.00       488.24
   38.42        2981.25           1646         106.00       462.08
   38.45        2981.50           1649         111.00       483.88
   38.48        2981.75           1653         114.00       496.96
   38.50        2982.00           1656         108.00       470.80
   38.53        2982.25           1659         104.00       453.36
   38.56        2982.50           1663         109.00       475.16
   38.59        2982.75           1666         103.00       449.00
   38.62        2983.00           1669         107.00       466.44
   38.65        2983.25           1673          97.00       422.85
   38.68        2983.50           1676         114.00       496.96
   38.71        2983.75           1679         109.00       475.16
   38.73        2984.00           1683         109.00       475.16
HS scan finished at 00:39:02
end
************************************************************
  HS Scan of (1) Internal mercury lamp
************************************************************
Integration time is 0.2294 seconds per sample
dh270117DelftKZ 51.997-4.386 2.10676pr1000
************************************************************
Dead Time -------------------------  3E-08 
Number of Cycles Used -------------  4 
Starting Wavelength (Angstroms) ---  2950 
Final Wavelength (Angstoms) -------  2984 
Wavelength Increment (Angstroms) --  .25 
Filter Wheel #1 Position ---------- (1) Ground quartz diffuser (ND=2.32)
Filter Wheel #2 Position ---------- (1) Neutral Density 0.494



************************************************************
HS scan start time = 06:05:11
Dark Count =  0 


Time (GMT)  Wavelength (Ang)  Step Number  Raw Counts  Counts/Second

  365.64        2950.00           1229         142.00       619.02
  365.74        2950.25           1232         138.00       601.58
  365.77        2950.50           1236         136.00       592.86
  365.80        2950.75           1239         134.00       584.14
  365.82        2951.00           1242         130.00       566.71
  365.85        2951.25           1246         137.00       597.22
  365.88        2951.50           1249         124.00       540.55
  365.91        2951.75           1252         130.00       566.71
  365.93        2952.00           1255         129.00       562.35
  365.96        2952.25           1259         124.00       540.55
  365.99        2952.50           1262         133.00       579.78
  366.02        2952.75           1265         133.00       579.78
  366.05        2953.00           1269         138.00       601.58
  366.08        2953.25           1272         133.00       579.78
  366.11        2953.50           1275         126.00       549.27
  366.14        2953.75           1279         132.00       575.42
  366.16        2954.00           1282         133.00       579.78
  366.19        2954.25           1285         124.00       540.55
  366.22        2954.50           1289         129.00       562.35
  366.25        2954.75           1292         138.00       601.58
  366.28        2955.00           1295         126.00       549.27
  366.31        2955.25           1299         127.00       553.63
  366.34        2955.50           1302         134.00       584.14
  366.37        2955.75           1305         130.00       566.71
  366.40        2956.00           1309         132.00       575.42
  366.42        2956.25           1312         119.00       518.75
  366.45        2956.50           1315         135.00       588.50
  366.48        2956.75           1319         113.00       492.60
  366.52        2957.00           1322         119.00       518.75
  366.55        2957.25           1325         133.00       579.78
  366.57        2957.50           1329         136.00       592.86
  366.60        2957.75           1332         126.00       549.27
  366.63        2958.00           1335         125.00       544.91
  366.66        2958.25           1339         134.00       584.14
  366.69        2958.50           1342         122.00       531.83
  366.72        2958.75           1345         127.00       553.63
  366.75        2959.00           1349         130.00       566.71
  366.78        2959.25           1352         129.00       562.35
  366.81        2959.50           1355         123.00       536.19
  366.83        2959.75           1359         119.00       518.75
  366.86        2960.00           1362         128.00       557.99
  366.89        2960.25           1365         142.00       619.02
  366.92        2960.50           1369         141.00       614.66
  366.94        2960.75           1372         138.00       601.58
  366.97        2961.00           1375         146.00       636.46
  367.00        2961.25           1379         160.00       697.49
  367.03        2961.50           1382         281.00      1224.98
  367.05        2961.75           1385         692.00      3016.84
  367.08        2962.00           1389        1938.00      8450.27
  367.11        2962.25           1392        3653.00     15931.76
  367.14        2962.50           1395        5501.00     23997.22
  367.16        2962.75           1399        7978.00     34814.02
  367.19        2963.00           1402       10450.00     45616.01
  367.22        2963.25           1405       12447.00     54347.48
  367.25        2963.50           1409       15081.00     65871.10
  367.27        2963.75           1412       17089.00     74661.38
  367.30        2964.00           1415       19039.00     83202.20
  367.33        2964.25           1419       21827.00     95420.99
  367.36        2964.50           1422       23478.00    102660.90
  367.39        2964.75           1425       25114.00    109838.20
  367.41        2965.00           1429       27381.00    119788.90
  367.44        2965.25           1432       29371.00    128528.70
  367.47        2965.50           1435       31462.00    137716.90
  367.50        2965.75           1439       33962.00    148709.00
  367.52        2966.00           1442       35496.00    155457.40
  367.55        2966.25           1445       37593.00    164687.00
  367.58        2966.50           1449       39714.00    174027.40
  367.61        2966.75           1452       40632.00    178071.70
  367.63        2967.00           1455       41142.00    180318.90
  367.66        2967.25           1459       40998.00    179684.40
  367.69        2967.50           1462       41208.00    180609.80
  367.72        2967.75           1465       41115.00    180200.00
  367.74        2968.00           1469       40344.00    176802.80
  367.77        2968.25           1472       38975.00    170772.40
  367.80        2968.50           1475       37484.00    164207.10
  367.83        2968.75           1479       34994.00    153248.70
  367.86        2969.00           1482       33181.00    145274.30
  367.88        2969.25           1485       31661.00    138591.60
  367.91        2969.50           1489       28914.00    126521.20
  367.94        2969.75           1492       26905.00    117699.10
  367.97        2970.00           1495       25000.00    109338.00
  367.99        2970.25           1499       22846.00     99889.12
  368.03        2970.50           1502       20683.00     90406.15
  368.06        2970.75           1505       18774.00     82041.27
  368.09        2971.00           1509       16047.00     70099.31
  368.12        2971.25           1512       14004.00     61158.32
  368.14        2971.50           1515       12128.00     52952.40
  368.17        2971.75           1519        9698.00     42329.23
  368.20        2972.00           1522        7854.00     34272.36
  368.23        2972.25           1525        6066.00     26463.90
  368.25        2972.50           1529        3564.00     15543.43
  368.28        2972.75           1532        2020.00      8807.91
  368.31        2973.00           1536         819.00      3570.57
  368.34        2973.25           1539         334.00      1456.04
  368.36        2973.50           1542         184.00       802.11
  368.39        2973.75           1546         153.00       666.97
  368.42        2974.00           1549         134.00       584.14
  368.45        2974.25           1552         130.00       566.71
  368.48        2974.50           1556         122.00       531.83
  368.50        2974.75           1559         118.00       514.39
  368.53        2975.00           1562         106.00       462.08
  368.56        2975.25           1566          98.00       427.21
  368.59        2975.50           1569         107.00       466.44
  368.61        2975.75           1572         107.00       466.44
  368.64        2976.00           1576         115.00       501.32
  368.67        2976.25           1579         109.00       475.16
  368.70        2976.50           1582         106.00       462.08
  368.72        2976.75           1586         106.00       462.08
  368.75        2977.00           1589         115.00       501.32
  368.78        2977.25           1592         115.00       501.32
  368.81        2977.50           1596         103.00       449.00
  368.83        2977.75           1599         116.00       505.67
  368.86        2978.00           1602         114.00       496.96
  368.89        2978.25           1606         107.00       466.44
  368.92        2978.50           1609         109.00       475.16
  368.94        2978.75           1612         120.00       523.11
  368.97        2979.00           1616         107.00       466.44
  369.01        2979.25           1619         111.00       483.88
  369.04        2979.50           1623         108.00       470.80
  369.06        2979.75           1626         109.00       475.16
  369.09        2980.00           1629          98.00       427.21
  369.12        2980.25           1633         105.00       457.72
  369.15        2980.50           1636         105.00       457.72
  369.18        2980.75           1639         105.00       457.72
  369.21        2981.00           1643         111.00       483.88
  369.24        2981.25           1646         109.00       475.16
  369.26        2981.50           1649         103.00       449.00
  369.29        2981.75           1653         105.00       457.72
  369.32        2982.00           1656         103.00       449.00
  369.35        2982.25           1659         108.00       470.80
  369.38        2982.50           1663         112.00       488.24
  369.41        2982.75           1666         100.00       435.93
  369.44        2983.00           1669          94.00       409.77
  369.47        2983.25           1673         108.00       470.80
  369.49        2983.50           1676         104.00       453.36
  369.52        2983.75           1679          95.00       414.13
  369.55        2984.00           1683         100.00       435.93
HS scan finished at 06:09:51
end
