************************************************************
  HS Scan of (1) Internal mercury lamp
************************************************************
Integration time is 0.2294 seconds per sample
dh240119NARL 13.459-79.1756 3.126073pr1000
************************************************************
Dead Time -------------------------  2.8E-08 
Number of Cycles Used -------------  4 
Starting Wavelength (Angstroms) ---  2950 
Final Wavelength (Angstoms) -------  2984 
Wavelength Increment (Angstroms) --  .25 
Filter Wheel #1 Position ---------- (1) Ground quartz diffuser (ND=2.32)
Filter Wheel #2 Position ---------- (1) Neutral Density 0.494



************************************************************
HS scan start time = 00:53:39
Dark Count =  .2 


Time (GMT)  Wavelength (Ang)  Step Number  Raw Counts  Counts/Second

   54.11        2950.00           1232         118.00       513.52
   54.21        2950.25           1236         121.00       526.60
   54.24        2950.50           1239         111.00       483.01
   54.26        2950.75           1242         120.00       522.24
   54.29        2951.00           1246         118.00       513.52
   54.32        2951.25           1249         124.00       539.68
   54.35        2951.50           1252         110.00       478.65
   54.38        2951.75           1256         119.00       517.88
   54.41        2952.00           1259         104.00       452.49
   54.43        2952.25           1262         119.00       517.88
   54.46        2952.50           1265         110.00       478.65
   54.49        2952.75           1269         115.00       500.44
   54.52        2953.00           1272         110.00       478.65
   54.55        2953.25           1275         120.00       522.24
   54.58        2953.50           1279         109.00       474.29
   54.60        2953.75           1282         117.00       509.16
   54.63        2954.00           1285         118.00       513.52
   54.66        2954.25           1289         117.00       509.16
   54.69        2954.50           1292         123.00       535.32
   54.72        2954.75           1295         113.00       491.72
   54.75        2955.00           1299         113.00       491.72
   54.77        2955.25           1302         107.00       465.57
   54.80        2955.50           1305         109.00       474.29
   54.83        2955.75           1309         109.00       474.29
   54.86        2956.00           1312         120.00       522.24
   54.89        2956.25           1315         119.00       517.88
   54.91        2956.50           1318         122.00       530.96
   54.94        2956.75           1322          97.00       421.98
   54.97        2957.00           1325         114.00       496.08
   55.00        2957.25           1328         113.00       491.72
   55.03        2957.50           1332         119.00       517.88
   55.05        2957.75           1335         113.00       491.72
   55.08        2958.00           1338         116.00       504.80
   55.11        2958.25           1342         113.00       491.72
   55.14        2958.50           1345         114.00       496.08
   55.17        2958.75           1348         112.00       487.36
   55.20        2959.00           1352         129.00       561.47
   55.22        2959.25           1355         119.00       517.88
   55.25        2959.50           1358         114.00       496.08
   55.28        2959.75           1362         113.00       491.72
   55.31        2960.00           1365         120.00       522.24
   55.34        2960.25           1368         125.00       544.04
   55.37        2960.50           1372         135.00       587.63
   55.39        2960.75           1375         146.00       635.58
   55.42        2961.00           1378         154.00       670.46
   55.45        2961.25           1382         220.00       958.18
   55.48        2961.50           1385         903.00      3935.92
   55.51        2961.75           1388        2410.00     10507.89
   55.53        2962.00           1391        4407.00     19220.46
   55.56        2962.25           1395        8156.00     35588.19
   55.59        2962.50           1398       12043.00     52574.29
   55.62        2962.75           1401       15583.00     68058.08
   55.65        2963.00           1405       20534.00     89736.09
   55.68        2963.25           1408       24632.00    107699.20
   55.70        2963.50           1411       28380.00    124144.00
   55.73        2963.75           1415       33426.00    146307.80
   55.76        2964.00           1418       36848.00    161354.20
   55.79        2964.25           1421       40390.00    176941.60
   55.82        2964.50           1425       45433.00    199158.10
   55.85        2964.75           1428       48705.00    213587.40
   55.88        2965.00           1431       51589.00    226315.40
   55.91        2965.25           1435       56153.00    246476.40
   55.94        2965.50           1438       59371.00    260705.20
   55.97        2965.75           1441       63388.00    278483.00
   55.99        2966.00           1445       67782.00    297949.60
   56.02        2966.25           1448       70618.00    310525.20
   56.05        2966.50           1451       73437.00    323034.20
   56.08        2966.75           1455       74588.00    328144.20
   56.11        2967.00           1458       74843.00    329276.50
   56.14        2967.25           1461       74841.00    329267.60
   56.16        2967.50           1465       74719.00    328725.90
   56.19        2967.75           1468       74555.00    327997.60
   56.22        2968.00           1471       72890.00    320606.30
   56.25        2968.25           1475       69822.00    306994.60
   56.28        2968.50           1478       66667.00    293007.90
   56.31        2968.75           1481       62774.00    275764.50
   56.34        2969.00           1485       57867.00    254053.70
   56.37        2969.25           1488       54631.00    239750.50
   56.40        2969.50           1491       51356.00    225286.80
   56.42        2969.75           1495       46425.00    203531.50
   56.45        2970.00           1498       42919.00    188079.40
   56.48        2970.25           1501       39620.00    173551.90
   56.51        2970.50           1505       35367.00    154840.80
   56.54        2970.75           1508       31784.00    139092.50
   56.57        2971.00           1511       28345.00    123990.30
   56.60        2971.25           1515       23267.00    101713.90
   56.63        2971.50           1518       19537.00     85368.59
   56.66        2971.75           1521       15980.00     69795.38
   56.69        2972.00           1525       11561.00     50467.08
   56.72        2972.25           1528        8256.00     36024.99
   56.74        2972.50           1531        5212.00     22733.73
   56.77        2972.75           1535        1828.00      7969.52
   56.80        2973.00           1538         584.00      2545.08
   56.83        2973.25           1541         241.00      1049.73
   56.86        2973.50           1544         188.00       818.68
   56.88        2973.75           1548         152.00       661.74
   56.91        2974.00           1551         148.00       644.30
   56.94        2974.25           1554         135.00       587.63
   56.97        2974.50           1558         135.00       587.63
   57.00        2974.75           1561         120.00       522.24
   57.03        2975.00           1564         113.00       491.72
   57.05        2975.25           1568         112.00       487.36
   57.08        2975.50           1571         110.00       478.65
   57.11        2975.75           1574         100.00       435.05
   57.14        2976.00           1578         106.00       461.21
   57.17        2976.25           1581         101.00       439.41
   57.19        2976.50           1584         113.00       491.72
   57.22        2976.75           1588         105.00       456.85
   57.25        2977.00           1591         103.00       448.13
   57.28        2977.25           1595         105.00       456.85
   57.31        2977.50           1598         103.00       448.13
   57.33        2977.75           1601         111.00       483.01
   57.36        2978.00           1605         104.00       452.49
   57.39        2978.25           1608         101.00       439.41
   57.42        2978.50           1611         100.00       435.05
   57.45        2978.75           1615         105.00       456.85
   57.48        2979.00           1618         101.00       439.41
   57.50        2979.25           1621         110.00       478.65
   57.53        2979.50           1625         103.00       448.13
   57.56        2979.75           1628          97.00       421.98
   57.59        2980.00           1631          99.00       430.69
   57.62        2980.25           1635          95.00       413.26
   57.64        2980.50           1638          94.00       408.90
   57.67        2980.75           1641         111.00       483.01
   57.70        2981.00           1645         101.00       439.41
   57.73        2981.25           1648         101.00       439.41
   57.76        2981.50           1651          98.00       426.33
   57.78        2981.75           1655         100.00       435.05
   57.81        2982.00           1658         102.00       443.77
   57.84        2982.25           1661         102.00       443.77
   57.87        2982.50           1665         103.00       448.13
   57.90        2982.75           1668          97.00       421.98
   57.93        2983.00           1671         103.00       448.13
   57.95        2983.25           1675          99.00       430.69
   57.98        2983.50           1678         102.00       443.77
   58.01        2983.75           1681          91.00       395.82
   58.04        2984.00           1685          88.00       382.74
HS scan finished at 00:58:20
end
************************************************************
  HS Scan of (1) Internal mercury lamp
************************************************************
Integration time is 0.2294 seconds per sample
dh240119NARL 13.459-79.1756 3.555258pr1000
************************************************************
Dead Time -------------------------  2.8E-08 
Number of Cycles Used -------------  4 
Starting Wavelength (Angstroms) ---  2950 
Final Wavelength (Angstoms) -------  2984 
Wavelength Increment (Angstroms) --  .25 
Filter Wheel #1 Position ---------- (1) Ground quartz diffuser (ND=2.32)
Filter Wheel #2 Position ---------- (1) Neutral Density 0.494



************************************************************
HS scan start time = 13:25:03
Dark Count =  .4 


Time (GMT)  Wavelength (Ang)  Step Number  Raw Counts  Counts/Second

  805.50        2950.00           1232          96.00       416.74
  805.60        2950.25           1236         101.00       438.54
  805.63        2950.50           1239          96.00       416.74
  805.65        2950.75           1242         100.00       434.18
  805.68        2951.00           1246         103.00       447.26
  805.71        2951.25           1249          97.00       421.10
  805.74        2951.50           1252         101.00       438.54
  805.77        2951.75           1256         103.00       447.26
  805.80        2952.00           1259         101.00       438.54
  805.83        2952.25           1262          99.00       429.82
  805.85        2952.50           1265          97.00       421.10
  805.88        2952.75           1269         103.00       447.26
  805.91        2953.00           1272         105.00       455.98
  805.94        2953.25           1275         107.00       464.70
  805.97        2953.50           1279          95.00       412.38
  806.00        2953.75           1282          98.00       425.46
  806.03        2954.00           1285          99.00       429.82
  806.05        2954.25           1289         106.00       460.34
  806.08        2954.50           1292         104.00       451.62
  806.11        2954.75           1295          98.00       425.46
  806.14        2955.00           1299         103.00       447.26
  806.17        2955.25           1302          99.00       429.82
  806.20        2955.50           1305          98.00       425.46
  806.22        2955.75           1309          93.00       403.67
  806.25        2956.00           1312         107.00       464.70
  806.28        2956.25           1315          99.00       429.82
  806.31        2956.50           1318         101.00       438.54
  806.34        2956.75           1322          96.00       416.74
  806.37        2957.00           1325          93.00       403.67
  806.39        2957.25           1328          99.00       429.82
  806.42        2957.50           1332          93.00       403.67
  806.45        2957.75           1335          97.00       421.10
  806.48        2958.00           1338         108.00       469.06
  806.51        2958.25           1342         103.00       447.26
  806.54        2958.50           1345          99.00       429.82
  806.56        2958.75           1348         100.00       434.18
  806.59        2959.00           1352          94.00       408.03
  806.62        2959.25           1355         104.00       451.62
  806.65        2959.50           1358         115.00       499.57
  806.68        2959.75           1362         106.00       460.34
  806.71        2960.00           1365         102.00       442.90
  806.74        2960.25           1368         112.00       486.49
  806.76        2960.50           1372         114.00       495.21
  806.79        2960.75           1375         122.00       530.09
  806.82        2961.00           1378         145.00       630.35
  806.85        2961.25           1382         171.00       743.69
  806.88        2961.50           1385         594.00      2587.81
  806.91        2961.75           1388        2042.00      8901.96
  806.93        2962.00           1391        4886.00     21310.01
  806.96        2962.25           1395        9363.00     40860.15
  806.99        2962.50           1398       12688.00     55393.61
  807.02        2962.75           1401       16449.00     71847.10
  807.05        2963.00           1405       21728.00     94967.10
  807.08        2963.25           1408       25626.00    112058.10
  807.10        2963.50           1411       29113.00    127361.00
  807.13        2963.75           1415       33575.00    146961.90
  807.16        2964.00           1418       37393.00    163750.80
  807.19        2964.25           1421       40672.00    178182.30
  807.22        2964.50           1425       45823.00    200876.50
  807.25        2964.75           1428       49208.00    215805.80
  807.28        2965.00           1431       52389.00    229846.80
  807.31        2965.25           1435       57579.00    252779.40
  807.33        2965.50           1438       60981.00    267827.50
  807.36        2965.75           1441       64954.00    285417.50
  807.39        2966.00           1445       69592.00    305973.70
  807.42        2966.25           1448       72228.00    317667.50
  807.45        2966.50           1451       75220.00    330949.70
  807.48        2966.75           1455       77128.00    339425.10
  807.50        2967.00           1458       77354.00    340429.20
  807.53        2967.25           1461       77293.00    340158.20
  807.56        2967.50           1465       77315.00    340256.00
  807.59        2967.75           1468       76089.00    334809.40
  807.62        2968.00           1471       74455.00    327552.80
  807.65        2968.25           1475       71220.00    313194.90
  807.68        2968.50           1478       67418.00    296335.30
  807.70        2968.75           1481       63948.00    280961.90
  807.73        2969.00           1485       60031.00    263624.00
  807.76        2969.25           1488       56876.00    249671.40
  807.79        2969.50           1491       53099.00    232982.20
  807.82        2969.75           1495       48496.00    212664.50
  807.85        2970.00           1498       44667.00    195780.90
  807.88        2970.25           1501       40883.00    179111.40
  807.90        2970.50           1505       36083.00    157988.60
  807.93        2970.75           1508       32637.00    142839.60
  807.96        2971.00           1511       29159.00    127562.90
  807.99        2971.25           1515       24339.00    106413.40
  808.02        2971.50           1518       20621.00     90116.37
  808.05        2971.75           1521       17261.00     75401.40
  808.08        2972.00           1525       13322.00     58166.15
  808.10        2972.25           1528        9849.00     42983.70
  808.13        2972.50           1531        6595.00     28770.34
  808.16        2972.75           1535        2213.00      9647.77
  808.19        2973.00           1538         698.00      3041.24
  808.22        2973.25           1541         246.00      1070.65
  808.25        2973.50           1544         183.00       796.01
  808.28        2973.75           1548         139.00       604.20
  808.31        2974.00           1551         128.00       556.24
  808.33        2974.25           1554         122.00       530.09
  808.36        2974.50           1558         117.00       508.29
  808.39        2974.75           1561         121.00       525.73
  808.42        2975.00           1564         101.00       438.54
  808.45        2975.25           1568         103.00       447.26
  808.47        2975.50           1571          92.00       399.31
  808.50        2975.75           1574          97.00       421.10
  808.53        2976.00           1578          89.00       386.23
  808.56        2976.25           1581          91.00       394.95
  808.59        2976.50           1584          98.00       425.46
  808.62        2976.75           1588          99.00       429.82
  808.64        2977.00           1591          95.00       412.38
  808.67        2977.25           1595          89.00       386.23
  808.70        2977.50           1598          89.00       386.23
  808.73        2977.75           1601          89.00       386.23
  808.76        2978.00           1605          91.00       394.95
  808.79        2978.25           1608         100.00       434.18
  808.82        2978.50           1611          87.00       377.51
  808.84        2978.75           1615          91.00       394.95
  808.87        2979.00           1618          87.00       377.51
  808.90        2979.25           1621          88.00       381.87
  808.93        2979.50           1625          85.00       368.79
  808.96        2979.75           1628          86.00       373.15
  808.99        2980.00           1631          88.00       381.87
  809.01        2980.25           1635          93.00       403.67
  809.04        2980.50           1638          83.00       360.07
  809.07        2980.75           1641          87.00       377.51
  809.10        2981.00           1645          89.00       386.23
  809.13        2981.25           1648          89.00       386.23
  809.16        2981.50           1651          94.00       408.03
  809.18        2981.75           1655          88.00       381.87
  809.21        2982.00           1658          87.00       377.51
  809.24        2982.25           1661          84.00       364.43
  809.27        2982.50           1665          92.00       399.31
  809.30        2982.75           1668          87.00       377.51
  809.33        2983.00           1671          90.00       390.59
  809.36        2983.25           1675          82.00       355.71
  809.38        2983.50           1678          88.00       381.87
  809.41        2983.75           1681          93.00       403.67
  809.44        2984.00           1685          99.00       429.82
HS scan finished at 13:29:44
end
