************************************************************
  HS Scan of (1) Internal mercury lamp
************************************************************
Integration time is 0.2294 seconds per sample
dh210117DelftKZ 51.997-4.386 2.160408pr1000
************************************************************
Dead Time -------------------------  3E-08 
Number of Cycles Used -------------  4 
Starting Wavelength (Angstroms) ---  2950 
Final Wavelength (Angstoms) -------  2984 
Wavelength Increment (Angstroms) --  .25 
Filter Wheel #1 Position ---------- (1) Ground quartz diffuser (ND=2.32)
Filter Wheel #2 Position ---------- (1) Neutral Density 0.494



************************************************************
HS scan start time = 06:10:27
Dark Count =  .1 


Time (GMT)  Wavelength (Ang)  Step Number  Raw Counts  Counts/Second

  370.89        2950.00           1229         134.00       583.71
  370.99        2950.25           1232         133.00       579.35
  371.02        2950.50           1236         132.00       574.99
  371.05        2950.75           1239         140.00       609.86
  371.08        2951.00           1242         131.00       570.63
  371.10        2951.25           1246         126.00       548.83
  371.13        2951.50           1249         133.00       579.35
  371.16        2951.75           1252         123.00       535.75
  371.19        2952.00           1255         127.00       553.19
  371.21        2952.25           1259         132.00       574.99
  371.24        2952.50           1262         136.00       592.43
  371.27        2952.75           1265         139.00       605.50
  371.29        2953.00           1269         131.00       570.63
  371.32        2953.25           1272         140.00       609.86
  371.35        2953.50           1275         125.00       544.47
  371.38        2953.75           1279         115.00       500.88
  371.40        2954.00           1282         129.00       561.91
  371.43        2954.25           1285         130.00       566.27
  371.46        2954.50           1289         115.00       500.88
  371.49        2954.75           1292         123.00       535.75
  371.51        2955.00           1295         132.00       574.99
  371.54        2955.25           1299         123.00       535.75
  371.57        2955.50           1302         130.00       566.27
  371.60        2955.75           1305         122.00       531.39
  371.62        2956.00           1309         127.00       553.19
  371.65        2956.25           1312         137.00       596.78
  371.68        2956.50           1315         127.00       553.19
  371.71        2956.75           1319         135.00       588.07
  371.73        2957.00           1322         133.00       579.35
  371.76        2957.25           1325         132.00       574.99
  371.79        2957.50           1329         126.00       548.83
  371.82        2957.75           1332         122.00       531.39
  371.84        2958.00           1335         133.00       579.35
  371.87        2958.25           1339         126.00       548.83
  371.90        2958.50           1342         121.00       527.04
  371.93        2958.75           1345         122.00       531.39
  371.95        2959.00           1349         128.00       557.55
  371.98        2959.25           1352         127.00       553.19
  372.01        2959.50           1355         127.00       553.19
  372.04        2959.75           1359         122.00       531.39
  372.06        2960.00           1362         120.00       522.68
  372.09        2960.25           1365         131.00       570.63
  372.12        2960.50           1369         130.00       566.27
  372.15        2960.75           1372         146.00       636.02
  372.17        2961.00           1375         138.00       601.14
  372.20        2961.25           1379         154.00       670.89
  372.23        2961.50           1382         213.00       928.10
  372.26        2961.75           1385         562.00      2449.61
  372.28        2962.00           1389        1949.00      8497.81
  372.31        2962.25           1392        3449.00     15041.22
  372.34        2962.50           1395        5186.00     22621.71
  372.37        2962.75           1399        7809.00     34075.36
  372.39        2963.00           1402       10059.00     43906.54
  372.42        2963.25           1405       11999.00     52387.85
  372.45        2963.50           1409       14314.00     62514.26
  372.48        2963.75           1412       15965.00     69739.93
  372.50        2964.00           1415       18066.00     78939.56
  372.53        2964.25           1419       20540.00     89778.98
  372.56        2964.50           1422       22625.00     98919.54
  372.59        2964.75           1425       24607.00    107613.20
  372.61        2965.00           1429       26606.00    116386.10
  372.64        2965.25           1432       28349.00    124039.20
  372.67        2965.50           1435       30467.00    133343.60
  372.70        2965.75           1439       32964.00    144319.70
  372.72        2966.00           1442       34653.00    151748.10
  372.75        2966.25           1445       36221.00    158647.40
  372.78        2966.50           1449       38613.00    169177.70
  372.81        2966.75           1452       39787.00    174348.50
  372.83        2967.00           1455       40447.00    177256.10
  372.86        2967.25           1459       40428.00    177172.40
  372.89        2967.50           1462       40230.00    176300.10
  372.92        2967.75           1465       40113.00    175784.60
  372.94        2968.00           1469       39457.00    172894.90
  372.97        2968.25           1472       38262.00    167632.10
  373.00        2968.50           1475       36554.00    160112.90
  373.03        2968.75           1479       34722.00    152051.60
  373.05        2969.00           1482       32955.00    144280.10
  373.08        2969.25           1485       31568.00    138182.40
  373.11        2969.50           1489       28911.00    126507.60
  373.14        2969.75           1492       26889.00    117628.40
  373.17        2970.00           1495       24913.00    108955.80
  373.19        2970.25           1499       22101.00     96621.88
  373.22        2970.50           1502       20447.00     89371.38
  373.25        2970.75           1505       18426.00     80516.40
  373.28        2971.00           1509       16177.00     70667.97
  373.30        2971.25           1512       14359.00     62711.16
  373.33        2971.50           1515       12364.00     53984.05
  373.36        2971.75           1519        9998.00     43639.93
  373.39        2972.00           1522        8298.00     36211.51
  373.41        2972.25           1525        6822.00     29764.58
  373.44        2972.50           1529        4525.00     19736.62
  373.47        2972.75           1532        2582.00     11258.82
  373.50        2973.00           1536         984.00      4289.57
  373.52        2973.25           1539         390.00      1699.74
  373.55        2973.50           1542         166.00       723.21
  373.58        2973.75           1546         140.00       609.86
  373.61        2974.00           1549         129.00       561.91
  373.63        2974.25           1552         129.00       561.91
  373.66        2974.50           1556         124.00       540.11
  373.69        2974.75           1559         116.00       505.24
  373.72        2975.00           1562         113.00       492.16
  373.74        2975.25           1566         106.00       461.65
  373.77        2975.50           1569         112.00       487.80
  373.80        2975.75           1572         114.00       496.52
  373.83        2976.00           1576         111.00       483.44
  373.85        2976.25           1579         113.00       492.16
  373.88        2976.50           1582         109.00       474.72
  373.91        2976.75           1586         115.00       500.88
  373.93        2977.00           1589         105.00       457.29
  373.96        2977.25           1592         105.00       457.29
  373.99        2977.50           1596         107.00       466.00
  374.02        2977.75           1599         115.00       500.88
  374.04        2978.00           1602         114.00       496.52
  374.07        2978.25           1606         112.00       487.80
  374.10        2978.50           1609          99.00       431.13
  374.13        2978.75           1612         116.00       505.24
  374.15        2979.00           1616         109.00       474.72
  374.18        2979.25           1619         102.00       444.21
  374.21        2979.50           1623         108.00       470.36
  374.24        2979.75           1626         118.00       513.96
  374.26        2980.00           1629         109.00       474.72
  374.29        2980.25           1633         112.00       487.80
  374.32        2980.50           1636          98.00       426.77
  374.35        2980.75           1639         100.00       435.49
  374.37        2981.00           1643         116.00       505.24
  374.40        2981.25           1646         106.00       461.65
  374.43        2981.50           1649         118.00       513.96
  374.46        2981.75           1653         108.00       470.36
  374.48        2982.00           1656         112.00       487.80
  374.51        2982.25           1659         107.00       466.00
  374.54        2982.50           1663         103.00       448.57
  374.57        2982.75           1666         105.00       457.29
  374.59        2983.00           1669          99.00       431.13
  374.62        2983.25           1673         102.00       444.21
  374.65        2983.50           1676         108.00       470.36
  374.68        2983.75           1679         107.00       466.00
  374.70        2984.00           1683         102.00       444.21
HS scan finished at 06:15:00
end
