************************************************************
  HS Scan of (1) Internal mercury lamp
************************************************************
Integration time is 0.2294 seconds per sample
dh200117DelftKZ 51.997-4.386 2.10676pr1000
************************************************************
Dead Time -------------------------  3E-08 
Number of Cycles Used -------------  4 
Starting Wavelength (Angstroms) ---  2950 
Final Wavelength (Angstoms) -------  2984 
Wavelength Increment (Angstroms) --  .25 
Filter Wheel #1 Position ---------- (1) Ground quartz diffuser (ND=2.32)
Filter Wheel #2 Position ---------- (1) Neutral Density 0.494



************************************************************
HS scan start time = 00:32:53
Dark Count =  .1 


Time (GMT)  Wavelength (Ang)  Step Number  Raw Counts  Counts/Second

   33.33        2950.00           1229         132.00       574.99
   33.43        2950.25           1232         130.00       566.27
   33.46        2950.50           1236         137.00       596.78
   33.49        2950.75           1239         134.00       583.71
   33.52        2951.00           1242         132.00       574.99
   33.54        2951.25           1246         132.00       574.99
   33.58        2951.50           1249         136.00       592.43
   33.61        2951.75           1252         139.00       605.50
   33.64        2952.00           1255         121.00       527.04
   33.67        2952.25           1259         134.00       583.71
   33.69        2952.50           1262         129.00       561.91
   33.72        2952.75           1265         120.00       522.68
   33.75        2953.00           1269         133.00       579.35
   33.78        2953.25           1272         142.00       618.58
   33.80        2953.50           1275         126.00       548.83
   33.83        2953.75           1279         127.00       553.19
   33.86        2954.00           1282         136.00       592.43
   33.89        2954.25           1285         142.00       618.58
   33.91        2954.50           1289         142.00       618.58
   33.94        2954.75           1292         132.00       574.99
   33.97        2955.00           1295         124.00       540.11
   34.00        2955.25           1299         143.00       622.94
   34.02        2955.50           1302         134.00       583.71
   34.05        2955.75           1305         119.00       518.32
   34.08        2956.00           1309         125.00       544.47
   34.11        2956.25           1312         129.00       561.91
   34.14        2956.50           1315         120.00       522.68
   34.16        2956.75           1319         122.00       531.39
   34.19        2957.00           1322         130.00       566.27
   34.22        2957.25           1325         120.00       522.68
   34.25        2957.50           1329         138.00       601.14
   34.27        2957.75           1332         121.00       527.04
   34.30        2958.00           1335         121.00       527.04
   34.33        2958.25           1339         121.00       527.04
   34.36        2958.50           1342         126.00       548.83
   34.38        2958.75           1345         118.00       513.96
   34.41        2959.00           1349         125.00       544.47
   34.44        2959.25           1352         124.00       540.11
   34.47        2959.50           1355         124.00       540.11
   34.49        2959.75           1359         117.00       509.60
   34.52        2960.00           1362         130.00       566.27
   34.55        2960.25           1365         134.00       583.71
   34.58        2960.50           1369         141.00       614.22
   34.60        2960.75           1372         133.00       579.35
   34.63        2961.00           1375         147.00       640.38
   34.66        2961.25           1379         155.00       675.25
   34.69        2961.50           1382         215.00       936.82
   34.72        2961.75           1385         610.00      2658.89
   34.74        2962.00           1389        1908.00      8318.99
   34.77        2962.25           1392        3690.00     16092.77
   34.80        2962.50           1395        5571.00     24302.37
   34.83        2962.75           1399        8585.00     37465.37
   34.85        2963.00           1402       10941.00     47761.94
   34.88        2963.25           1405       13144.00     57395.61
   34.91        2963.50           1409       16069.00     70195.18
   34.94        2963.75           1412       17922.00     78308.86
   34.97        2964.00           1415       19718.00     86176.74
   34.99        2964.25           1419       22244.00     97248.88
   35.02        2964.50           1422       24354.00    106503.20
   35.05        2964.75           1425       26390.00    115437.90
   35.08        2965.00           1429       29203.00    127790.20
   35.11        2965.25           1432       31246.00    136767.10
   35.13        2965.50           1435       33192.00    145322.20
   35.16        2965.75           1439       35840.00    156970.70
   35.19        2966.00           1442       37711.00    165206.10
   35.22        2966.25           1445       39954.00    175084.20
   35.24        2966.50           1449       42264.00    185263.50
   35.27        2966.75           1452       43295.00    189808.80
   35.30        2967.00           1455       43908.00    192511.80
   35.33        2967.25           1459       44065.00    193204.20
   35.35        2967.50           1462       43946.00    192679.40
   35.38        2967.75           1465       43735.00    191748.90
   35.41        2968.00           1469       43121.00    189041.60
   35.44        2968.25           1472       41708.00    182812.90
   35.47        2968.50           1475       40310.00    176652.50
   35.50        2968.75           1479       37985.00    166412.40
   35.53        2969.00           1482       35652.00    156143.40
   35.56        2969.25           1485       33818.00    148075.30
   35.58        2969.50           1489       31495.00    137861.50
   35.61        2969.75           1492       29441.00    128835.70
   35.64        2970.00           1495       27585.00    120684.20
   35.67        2970.25           1499       24508.00    107178.90
   35.69        2970.50           1502       22136.00     96775.34
   35.72        2970.75           1505       19950.00     87193.34
   35.75        2971.00           1509       17478.00     76364.38
   35.78        2971.25           1512       15565.00     67989.02
   35.81        2971.50           1515       13734.00     59976.61
   35.83        2971.75           1519       10871.00     47455.92
   35.86        2972.00           1522        8890.00     38797.97
   35.89        2972.25           1525        7099.00     30974.28
   35.92        2972.50           1529        4639.00     20234.16
   35.94        2972.75           1532        2977.00     12981.95
   35.97        2973.00           1536        1204.00      5248.87
   36.00        2973.25           1539         456.00      1987.48
   36.03        2973.50           1542         190.00       827.83
   36.05        2973.75           1546         149.00       649.10
   36.08        2974.00           1549         138.00       601.14
   36.11        2974.25           1552         138.00       601.14
   36.14        2974.50           1556         124.00       540.11
   36.17        2974.75           1559         121.00       527.04
   36.19        2975.00           1562         117.00       509.60
   36.22        2975.25           1566         121.00       527.04
   36.25        2975.50           1569         121.00       527.04
   36.28        2975.75           1572         106.00       461.65
   36.30        2976.00           1576         117.00       509.60
   36.33        2976.25           1579         106.00       461.65
   36.36        2976.50           1582         106.00       461.65
   36.39        2976.75           1586         112.00       487.80
   36.41        2977.00           1589         116.00       505.24
   36.44        2977.25           1592         113.00       492.16
   36.47        2977.50           1596         114.00       496.52
   36.50        2977.75           1599         121.00       527.04
   36.52        2978.00           1602         108.00       470.36
   36.55        2978.25           1606         106.00       461.65
   36.58        2978.50           1609         103.00       448.57
   36.61        2978.75           1612         115.00       500.88
   36.63        2979.00           1616         114.00       496.52
   36.66        2979.25           1619         113.00       492.16
   36.69        2979.50           1623         111.00       483.44
   36.72        2979.75           1626         103.00       448.57
   36.74        2980.00           1629         107.00       466.00
   36.77        2980.25           1633         111.00       483.44
   36.80        2980.50           1636         107.00       466.00
   36.83        2980.75           1639         108.00       470.36
   36.86        2981.00           1643         115.00       500.88
   36.88        2981.25           1646         106.00       461.65
   36.91        2981.50           1649         104.00       452.93
   36.94        2981.75           1653         110.00       479.08
   36.97        2982.00           1656         109.00       474.72
   36.99        2982.25           1659         103.00       448.57
   37.02        2982.50           1663         102.00       444.21
   37.05        2982.75           1666         104.00       452.93
   37.08        2983.00           1669         115.00       500.88
   37.10        2983.25           1673         109.00       474.72
   37.13        2983.50           1676         100.00       435.49
   37.16        2983.75           1679         103.00       448.57
   37.19        2984.00           1683          97.00       422.41
HS scan finished at 00:37:29
end
************************************************************
  HS Scan of (1) Internal mercury lamp
************************************************************
Integration time is 0.2294 seconds per sample
dh200117DelftKZ 51.997-4.386 2.10676pr1000
************************************************************
Dead Time -------------------------  3E-08 
Number of Cycles Used -------------  4 
Starting Wavelength (Angstroms) ---  2950 
Final Wavelength (Angstoms) -------  2984 
Wavelength Increment (Angstroms) --  .25 
Filter Wheel #1 Position ---------- (1) Ground quartz diffuser (ND=2.32)
Filter Wheel #2 Position ---------- (1) Neutral Density 0.494



************************************************************
HS scan start time = 06:12:26
Dark Count =  0 


Time (GMT)  Wavelength (Ang)  Step Number  Raw Counts  Counts/Second

  372.88        2950.00           1229         129.00       562.35
  372.98        2950.25           1232         140.00       610.30
  373.01        2950.50           1236         123.00       536.19
  373.04        2950.75           1239         126.00       549.27
  373.06        2951.00           1242         131.00       571.06
  373.09        2951.25           1246         141.00       614.66
  373.12        2951.50           1249         139.00       605.94
  373.15        2951.75           1252         125.00       544.91
  373.18        2952.00           1255         123.00       536.19
  373.21        2952.25           1259         134.00       584.14
  373.23        2952.50           1262         132.00       575.42
  373.26        2952.75           1265         129.00       562.35
  373.29        2953.00           1269         126.00       549.27
  373.32        2953.25           1272         126.00       549.27
  373.35        2953.50           1275         123.00       536.19
  373.37        2953.75           1279         136.00       592.86
  373.40        2954.00           1282         136.00       592.86
  373.43        2954.25           1285         134.00       584.14
  373.46        2954.50           1289         120.00       523.11
  373.48        2954.75           1292         125.00       544.91
  373.51        2955.00           1295         129.00       562.35
  373.54        2955.25           1299         129.00       562.35
  373.57        2955.50           1302         129.00       562.35
  373.59        2955.75           1305         131.00       571.06
  373.62        2956.00           1309         122.00       531.83
  373.65        2956.25           1312         127.00       553.63
  373.68        2956.50           1315         131.00       571.06
  373.71        2956.75           1319         124.00       540.55
  373.74        2957.00           1322         125.00       544.91
  373.77        2957.25           1325         121.00       527.47
  373.80        2957.50           1329         129.00       562.35
  373.83        2957.75           1332         121.00       527.47
  373.86        2958.00           1335         128.00       557.99
  373.89        2958.25           1339         120.00       523.11
  373.92        2958.50           1342         122.00       531.83
  373.94        2958.75           1345         111.00       483.88
  373.97        2959.00           1349         118.00       514.39
  374.00        2959.25           1352         118.00       514.39
  374.03        2959.50           1355         121.00       527.47
  374.05        2959.75           1359         125.00       544.91
  374.08        2960.00           1362         127.00       553.63
  374.11        2960.25           1365         133.00       579.78
  374.15        2960.50           1369         133.00       579.78
  374.18        2960.75           1372         138.00       601.58
  374.20        2961.00           1375         156.00       680.05
  374.23        2961.25           1379         158.00       688.77
  374.26        2961.50           1382         226.00       985.21
  374.29        2961.75           1385         675.00      2942.72
  374.32        2962.00           1389        2064.00      8999.81
  374.35        2962.25           1392        3583.00     15626.33
  374.37        2962.50           1395        5374.00     23442.81
  374.40        2962.75           1399        8246.00     35984.77
  374.43        2963.00           1402       10434.00     45546.07
  374.46        2963.25           1405       11973.00     52274.60
  374.49        2963.50           1409       14433.00     63035.39
  374.51        2963.75           1412       16374.00     71530.85
  374.54        2964.00           1415       18321.00     80056.91
  374.57        2964.25           1419       21010.00     91839.44
  374.60        2964.50           1422       22866.00     99976.84
  374.62        2964.75           1425       24571.00    107455.70
  374.65        2965.00           1429       26981.00    118032.70
  374.68        2965.25           1432       29135.00    127491.90
  374.71        2965.50           1435       30949.00    135462.20
  374.74        2965.75           1439       33520.00    146765.10
  374.76        2966.00           1442       34982.00    153195.90
  374.79        2966.25           1445       36718.00    160835.20
  374.82        2966.50           1449       39359.00    172463.70
  374.85        2966.75           1452       40355.00    176851.20
  374.88        2967.00           1455       40854.00    179049.90
  374.91        2967.25           1459       41021.00    179785.70
  374.94        2967.50           1462       40647.00    178137.80
  374.96        2967.75           1465       40905.00    179274.60
  374.99        2968.00           1469       39966.00    175137.50
  375.02        2968.25           1472       38485.00    168614.50
  375.05        2968.50           1475       36905.00    161658.30
  375.08        2968.75           1479       34856.00    152641.60
  375.10        2969.00           1482       33467.00    146532.00
  375.13        2969.25           1485       31544.00    138077.30
  375.16        2969.50           1489       29083.00    127263.50
  375.19        2969.75           1492       26981.00    118032.70
  375.21        2970.00           1495       24822.00    108557.00
  375.24        2970.25           1499       22351.00     97718.49
  375.27        2970.50           1502       20519.00     89687.38
  375.30        2970.75           1505       18626.00     81392.93
  375.33        2971.00           1509       16105.00     70353.22
  375.35        2971.25           1512       14097.00     61565.22
  375.38        2971.50           1515       12519.00     54662.37
  375.41        2971.75           1519       10191.00     44483.91
  375.44        2972.00           1522        8536.00     37251.72
  375.46        2972.25           1525        6910.00     30149.32
  375.49        2972.50           1529        4254.00     18554.36
  375.52        2972.75           1532        2380.00     10378.12
  375.55        2973.00           1536         823.00      3588.01
  375.57        2973.25           1539         342.00      1490.91
  375.60        2973.50           1542         158.00       688.77
  375.63        2973.75           1546         144.00       627.74
  375.66        2974.00           1549         135.00       588.50
  375.69        2974.25           1552         118.00       514.39
  375.71        2974.50           1556         121.00       527.47
  375.74        2974.75           1559         113.00       492.60
  375.77        2975.00           1562         119.00       518.75
  375.80        2975.25           1566         114.00       496.96
  375.83        2975.50           1569         111.00       483.88
  375.86        2975.75           1572         119.00       518.75
  375.88        2976.00           1576         107.00       466.44
  375.91        2976.25           1579         113.00       492.60
  375.94        2976.50           1582         109.00       475.16
  375.97        2976.75           1586         116.00       505.67
  375.99        2977.00           1589         107.00       466.44
  376.02        2977.25           1592         113.00       492.60
  376.05        2977.50           1596         104.00       453.36
  376.08        2977.75           1599         106.00       462.08
  376.10        2978.00           1602         101.00       440.28
  376.13        2978.25           1606         103.00       449.00
  376.16        2978.50           1609         107.00       466.44
  376.19        2978.75           1612         107.00       466.44
  376.22        2979.00           1616          99.00       431.57
  376.24        2979.25           1619         120.00       523.11
  376.27        2979.50           1623         115.00       501.32
  376.30        2979.75           1626         104.00       453.36
  376.33        2980.00           1629         107.00       466.44
  376.35        2980.25           1633         100.00       435.93
  376.38        2980.50           1636         107.00       466.44
  376.41        2980.75           1639         108.00       470.80
  376.44        2981.00           1643         105.00       457.72
  376.47        2981.25           1646         106.00       462.08
  376.49        2981.50           1649          98.00       427.21
  376.52        2981.75           1653         101.00       440.28
  376.56        2982.00           1656         102.00       444.64
  376.59        2982.25           1659         107.00       466.44
  376.61        2982.50           1663          98.00       427.21
  376.64        2982.75           1666         100.00       435.93
  376.67        2983.00           1669         107.00       466.44
  376.70        2983.25           1673         103.00       449.00
  376.72        2983.50           1676         105.00       457.72
  376.75        2983.75           1679          92.00       401.05
  376.78        2984.00           1683          95.00       414.13
HS scan finished at 06:17:05
end
