************************************************************
  HS Scan of (1) Internal mercury lamp
************************************************************
Integration time is 0.2294 seconds per sample
dh230119NARL 13.459-79.1756 3.072425pr1000
************************************************************
Dead Time -------------------------  2.8E-08 
Number of Cycles Used -------------  4 
Starting Wavelength (Angstroms) ---  2950 
Final Wavelength (Angstoms) -------  2984 
Wavelength Increment (Angstroms) --  .25 
Filter Wheel #1 Position ---------- (1) Ground quartz diffuser (ND=2.32)
Filter Wheel #2 Position ---------- (1) Neutral Density 0.494



************************************************************
HS scan start time = 00:53:38
Dark Count =  .1 


Time (GMT)  Wavelength (Ang)  Step Number  Raw Counts  Counts/Second

   54.08        2950.00           1232         119.00       518.32
   54.18        2950.25           1236         120.00       522.68
   54.21        2950.50           1239         119.00       518.32
   54.23        2950.75           1242         121.00       527.03
   54.26        2951.00           1246         107.00       466.00
   54.29        2951.25           1249         106.00       461.65
   54.32        2951.50           1252         123.00       535.75
   54.35        2951.75           1256         104.00       452.93
   54.38        2952.00           1259         120.00       522.68
   54.40        2952.25           1262         118.00       513.96
   54.43        2952.50           1265         106.00       461.65
   54.46        2952.75           1269         116.00       505.24
   54.49        2953.00           1272         122.00       531.39
   54.52        2953.25           1275         113.00       492.16
   54.54        2953.50           1279         118.00       513.96
   54.57        2953.75           1282         110.00       479.08
   54.60        2954.00           1285         120.00       522.68
   54.63        2954.25           1289         108.00       470.36
   54.66        2954.50           1292         108.00       470.36
   54.69        2954.75           1295         121.00       527.03
   54.71        2955.00           1299         113.00       492.16
   54.74        2955.25           1302         118.00       513.96
   54.77        2955.50           1305         114.00       496.52
   54.80        2955.75           1309         132.00       574.99
   54.83        2956.00           1312         108.00       470.36
   54.86        2956.25           1315         117.00       509.60
   54.88        2956.50           1318         111.00       483.44
   54.91        2956.75           1322         112.00       487.80
   54.94        2957.00           1325         104.00       452.93
   54.97        2957.25           1328         114.00       496.52
   55.00        2957.50           1332         116.00       505.24
   55.03        2957.75           1335         119.00       518.32
   55.05        2958.00           1338         110.00       479.08
   55.08        2958.25           1342         113.00       492.16
   55.11        2958.50           1345         115.00       500.88
   55.14        2958.75           1348         119.00       518.32
   55.17        2959.00           1352         106.00       461.65
   55.20        2959.25           1355         112.00       487.80
   55.22        2959.50           1358         114.00       496.52
   55.25        2959.75           1362         115.00       500.88
   55.28        2960.00           1365         119.00       518.32
   55.31        2960.25           1368         113.00       492.16
   55.34        2960.50           1372         135.00       588.07
   55.37        2960.75           1375         135.00       588.07
   55.39        2961.00           1378         152.00       662.17
   55.42        2961.25           1382         226.00       984.77
   55.45        2961.50           1385         728.00      3173.34
   55.48        2961.75           1388        2099.00      9151.87
   55.51        2962.00           1391        4365.00     19037.61
   55.54        2962.25           1395        9024.00     39380.37
   55.56        2962.50           1398       12480.00     54485.42
   55.59        2962.75           1401       15290.00     66776.44
   55.62        2963.00           1405       19927.00     87077.36
   55.65        2963.25           1408       23938.00    104656.30
   55.68        2963.50           1411       28015.00    122542.20
   55.71        2963.75           1415       32970.00    144304.20
   55.74        2964.00           1418       36427.00    159502.80
   55.76        2964.25           1421       39348.00    172355.10
   55.79        2964.50           1425       44053.00    193076.30
   55.82        2964.75           1428       48431.00    212379.10
   55.85        2965.00           1431       51695.00    226783.80
   55.88        2965.25           1435       56460.00    247833.70
   55.91        2965.50           1438       60573.00    266023.40
   55.93        2965.75           1441       63976.00    281087.30
   55.96        2966.00           1445       68401.00    300694.10
   55.99        2966.25           1448       71764.00    315609.80
   56.02        2966.50           1451       73434.00    323021.40
   56.05        2966.75           1455       74350.00    327087.90
   56.08        2967.00           1458       74699.00    328637.50
   56.10        2967.25           1461       74759.00    328903.90
   56.13        2967.50           1465       74769.00    328948.40
   56.16        2967.75           1468       73728.00    324326.40
   56.19        2968.00           1471       71790.00    315725.20
   56.22        2968.25           1475       68510.00    301177.40
   56.25        2968.50           1478       65391.00    287354.60
   56.27        2968.75           1481       61932.00    272037.70
   56.30        2969.00           1485       57653.00    253107.80
   56.33        2969.25           1488       53983.00    236888.20
   56.36        2969.50           1491       50748.00    222603.30
   56.39        2969.75           1495       46470.00    203730.40
   56.42        2970.00           1498       43003.00    188449.90
   56.45        2970.25           1501       39656.00    173710.80
   56.47        2970.50           1505       34503.00    151042.40
   56.50        2970.75           1508       31225.00    136637.30
   56.53        2971.00           1511       27402.00    119851.90
   56.56        2971.25           1515       22996.00    100526.20
   56.59        2971.50           1518       19713.00     86139.94
   56.62        2971.75           1521       16428.00     71756.50
   56.65        2972.00           1525       11592.00     50603.04
   56.67        2972.25           1528        8335.00     36370.50
   56.70        2972.50           1531        5652.00     24654.76
   56.73        2972.75           1535        2338.00     10194.28
   56.76        2973.00           1538         856.00      3731.43
   56.79        2973.25           1541         283.00      1233.26
   56.81        2973.50           1544         181.00       788.60
   56.84        2973.75           1548         168.00       731.92
   56.87        2974.00           1551         146.00       636.02
   56.90        2974.25           1554         133.00       579.35
   56.93        2974.50           1558         123.00       535.75
   56.95        2974.75           1561         116.00       505.24
   56.98        2975.00           1564         113.00       492.16
   57.01        2975.25           1568         112.00       487.80
   57.04        2975.50           1571         108.00       470.36
   57.07        2975.75           1574         105.00       457.29
   57.10        2976.00           1578         106.00       461.65
   57.12        2976.25           1581         100.00       435.49
   57.15        2976.50           1584         105.00       457.29
   57.18        2976.75           1588         103.00       448.57
   57.21        2977.00           1591         103.00       448.57
   57.24        2977.25           1595         105.00       457.29
   57.27        2977.50           1598         100.00       435.49
   57.29        2977.75           1601         107.00       466.00
   57.32        2978.00           1605         104.00       452.93
   57.35        2978.25           1608         103.00       448.57
   57.38        2978.50           1611          96.00       418.05
   57.41        2978.75           1615         100.00       435.49
   57.44        2979.00           1618          93.00       404.97
   57.46        2979.25           1621          98.00       426.77
   57.49        2979.50           1625         109.00       474.72
   57.52        2979.75           1628          97.00       422.41
   57.55        2980.00           1631          94.00       409.33
   57.58        2980.25           1635         108.00       470.36
   57.60        2980.50           1638         109.00       474.72
   57.63        2980.75           1641         105.00       457.29
   57.66        2981.00           1645         103.00       448.57
   57.69        2981.25           1648          99.00       431.13
   57.72        2981.50           1651          98.00       426.77
   57.75        2981.75           1655         103.00       448.57
   57.77        2982.00           1658          94.00       409.33
   57.80        2982.25           1661         100.00       435.49
   57.83        2982.50           1665         105.00       457.29
   57.86        2982.75           1668         106.00       461.65
   57.89        2983.00           1671         100.00       435.49
   57.92        2983.25           1675         109.00       474.72
   57.94        2983.50           1678          95.00       413.69
   57.97        2983.75           1681          97.00       422.41
   58.00        2984.00           1685          97.00       422.41
HS scan finished at 00:58:18
end
************************************************************
  HS Scan of (1) Internal mercury lamp
************************************************************
Integration time is 0.2294 seconds per sample
dh230119NARL 13.459-79.1756 3.555258pr1000
************************************************************
Dead Time -------------------------  2.8E-08 
Number of Cycles Used -------------  4 
Starting Wavelength (Angstroms) ---  2950 
Final Wavelength (Angstoms) -------  2984 
Wavelength Increment (Angstroms) --  .25 
Filter Wheel #1 Position ---------- (1) Ground quartz diffuser (ND=2.32)
Filter Wheel #2 Position ---------- (1) Neutral Density 0.494



************************************************************
HS scan start time = 13:24:39
Dark Count =  .6 


Time (GMT)  Wavelength (Ang)  Step Number  Raw Counts  Counts/Second

  805.09        2950.00           1232          98.00       424.59
  805.19        2950.25           1236         106.00       459.47
  805.22        2950.50           1239         103.00       446.39
  805.25        2950.75           1242         102.00       442.03
  805.28        2951.00           1246         104.00       450.75
  805.31        2951.25           1249         105.00       455.11
  805.33        2951.50           1252          92.00       398.44
  805.36        2951.75           1256          96.00       415.87
  805.39        2952.00           1259          99.00       428.95
  805.42        2952.25           1262          99.00       428.95
  805.45        2952.50           1265         105.00       455.11
  805.47        2952.75           1269         102.00       442.03
  805.50        2953.00           1272         107.00       463.82
  805.53        2953.25           1275         108.00       468.18
  805.56        2953.50           1279          96.00       415.87
  805.59        2953.75           1282         102.00       442.03
  805.62        2954.00           1285          99.00       428.95
  805.64        2954.25           1289         104.00       450.75
  805.67        2954.50           1292         105.00       455.11
  805.70        2954.75           1295          93.00       402.79
  805.73        2955.00           1299         106.00       459.47
  805.76        2955.25           1302          88.00       381.00
  805.78        2955.50           1305         110.00       476.90
  805.81        2955.75           1309         107.00       463.82
  805.84        2956.00           1312          97.00       420.23
  805.87        2956.25           1315          96.00       415.87
  805.90        2956.50           1318          97.00       420.23
  805.92        2956.75           1322         107.00       463.82
  805.95        2957.00           1325         104.00       450.75
  805.98        2957.25           1328          98.00       424.59
  806.01        2957.50           1332          96.00       415.87
  806.04        2957.75           1335          95.00       411.51
  806.07        2958.00           1338         109.00       472.54
  806.09        2958.25           1342         103.00       446.39
  806.12        2958.50           1345          96.00       415.87
  806.15        2958.75           1348         102.00       442.03
  806.18        2959.00           1352          96.00       415.87
  806.21        2959.25           1355          95.00       411.51
  806.24        2959.50           1358          99.00       428.95
  806.26        2959.75           1362          97.00       420.23
  806.29        2960.00           1365          98.00       424.59
  806.32        2960.25           1368         109.00       472.54
  806.35        2960.50           1372         110.00       476.90
  806.38        2960.75           1375         130.00       564.09
  806.40        2961.00           1378         134.00       581.53
  806.43        2961.25           1382         188.00       816.93
  806.46        2961.50           1385         807.00      3515.60
  806.49        2961.75           1388        1995.00      8696.10
  806.52        2962.00           1391        4062.00     17713.23
  806.55        2962.25           1395        7941.00     34647.38
  806.57        2962.50           1398       11660.00     50898.13
  806.60        2962.75           1401       15958.00     69697.36
  806.63        2963.00           1405       20628.00     90146.18
  806.66        2963.25           1408       23884.00    104417.30
  806.69        2963.50           1411       27363.00    119678.50
  806.72        2963.75           1415       32959.00    144253.70
  806.74        2964.00           1418       36777.00    161040.10
  806.77        2964.25           1421       40643.00    178053.80
  806.80        2964.50           1425       45258.00    198384.90
  806.83        2964.75           1428       48506.00    212707.70
  806.86        2965.00           1431       52262.00    229285.10
  806.89        2965.25           1435       57510.00    252473.40
  806.91        2965.50           1438       60573.00    266021.20
  806.94        2965.75           1441       65094.00    286036.70
  806.97        2966.00           1445       70069.00    308088.30
  807.00        2966.25           1448       73308.00    322459.80
  807.03        2966.50           1451       75732.00    333222.80
  807.05        2966.75           1455       76914.00    338473.40
  807.08        2967.00           1458       76975.00    338744.40
  807.11        2967.25           1461       76947.00    338620.00
  807.14        2967.50           1465       76818.00    338046.90
  807.17        2967.75           1468       76497.00    336620.80
  807.20        2968.00           1471       75186.00    330797.90
  807.22        2968.25           1475       71024.00    312324.50
  807.25        2968.50           1478       67352.00    296041.90
  807.28        2968.75           1481       64006.00    281217.90
  807.31        2969.00           1485       59441.00    261013.10
  807.34        2969.25           1488       55633.00    244176.40
  807.37        2969.50           1491       52434.00    230044.60
  807.39        2969.75           1495       47802.00    209602.30
  807.42        2970.00           1498       44762.00    196198.70
  807.45        2970.25           1501       41206.00    180532.80
  807.48        2970.50           1505       36582.00    160182.40
  807.51        2970.75           1508       33197.00    145299.60
  807.53        2971.00           1511       29378.00    128523.60
  807.56        2971.25           1515       24410.00    106723.90
  807.59        2971.50           1518       20655.00     90264.47
  807.62        2971.75           1521       17153.00     74927.75
  807.65        2972.00           1525       13315.00     58134.67
  807.68        2972.25           1528        9754.00     42567.71
  807.70        2972.50           1531        6083.00     26534.09
  807.73        2972.75           1535        2175.00      9481.16
  807.76        2973.00           1538         932.00      4060.62
  807.79        2973.25           1541         341.00      1483.93
  807.82        2973.50           1544         191.00       830.01
  807.85        2973.75           1548         151.00       655.64
  807.87        2974.00           1551         134.00       581.53
  807.90        2974.25           1554         132.00       572.81
  807.93        2974.50           1558         120.00       520.50
  807.96        2974.75           1561         106.00       459.47
  807.99        2975.00           1564         106.00       459.47
  808.01        2975.25           1568          89.00       385.36
  808.04        2975.50           1571         101.00       437.67
  808.07        2975.75           1574          94.00       407.15
  808.10        2976.00           1578          97.00       420.23
  808.13        2976.25           1581          96.00       415.87
  808.15        2976.50           1584          92.00       398.44
  808.18        2976.75           1588          89.00       385.36
  808.21        2977.00           1591          93.00       402.79
  808.24        2977.25           1595          99.00       428.95
  808.27        2977.50           1598          92.00       398.44
  808.29        2977.75           1601          86.00       372.28
  808.32        2978.00           1605         101.00       437.67
  808.35        2978.25           1608          93.00       402.79
  808.38        2978.50           1611          94.00       407.15
  808.41        2978.75           1615          89.00       385.36
  808.44        2979.00           1618          93.00       402.79
  808.46        2979.25           1621          98.00       424.59
  808.49        2979.50           1625          92.00       398.44
  808.52        2979.75           1628          91.00       394.08
  808.55        2980.00           1631          96.00       415.87
  808.58        2980.25           1635          98.00       424.59
  808.60        2980.50           1638          84.00       363.56
  808.63        2980.75           1641          91.00       394.08
  808.66        2981.00           1645          87.00       376.64
  808.69        2981.25           1648         103.00       446.39
  808.72        2981.50           1651          92.00       398.44
  808.75        2981.75           1655          94.00       407.15
  808.77        2982.00           1658          87.00       376.64
  808.80        2982.25           1661          95.00       411.51
  808.83        2982.50           1665          87.00       376.64
  808.86        2982.75           1668          86.00       372.28
  808.89        2983.00           1671          94.00       407.15
  808.92        2983.25           1675          83.00       359.20
  808.94        2983.50           1678          97.00       420.23
  808.97        2983.75           1681          85.00       367.92
  809.00        2984.00           1685          93.00       402.79
HS scan finished at 13:29:18
end
