************************************************************
  HS Scan of (1) Internal mercury lamp
************************************************************
Integration time is 0.2294 seconds per sample
dh240117DelftKZ 51.997-4.386 2.214056pr1000
************************************************************
Dead Time -------------------------  3E-08 
Number of Cycles Used -------------  4 
Starting Wavelength (Angstroms) ---  2950 
Final Wavelength (Angstoms) -------  2984 
Wavelength Increment (Angstroms) --  .25 
Filter Wheel #1 Position ---------- (1) Ground quartz diffuser (ND=2.32)
Filter Wheel #2 Position ---------- (1) Neutral Density 0.494



************************************************************
HS scan start time = 06:08:19
Dark Count =  0 


Time (GMT)  Wavelength (Ang)  Step Number  Raw Counts  Counts/Second

  368.77        2950.00           1229         130.00       566.71
  368.87        2950.25           1232         121.00       527.47
  368.90        2950.50           1236         138.00       601.58
  368.93        2950.75           1239         130.00       566.71
  368.96        2951.00           1242         131.00       571.06
  368.99        2951.25           1246         129.00       562.35
  369.01        2951.50           1249         135.00       588.50
  369.04        2951.75           1252         137.00       597.22
  369.07        2952.00           1255         132.00       575.42
  369.10        2952.25           1259         134.00       584.14
  369.13        2952.50           1262         130.00       566.71
  369.15        2952.75           1265         136.00       592.86
  369.18        2953.00           1269         134.00       584.14
  369.21        2953.25           1272         133.00       579.78
  369.24        2953.50           1275         135.00       588.50
  369.26        2953.75           1279         133.00       579.78
  369.29        2954.00           1282         140.00       610.30
  369.32        2954.25           1285         132.00       575.42
  369.35        2954.50           1289         132.00       575.42
  369.37        2954.75           1292         123.00       536.19
  369.40        2955.00           1295         130.00       566.71
  369.43        2955.25           1299         123.00       536.19
  369.46        2955.50           1302         117.00       510.03
  369.48        2955.75           1305         133.00       579.78
  369.51        2956.00           1309         124.00       540.55
  369.54        2956.25           1312         131.00       571.06
  369.57        2956.50           1315         124.00       540.55
  369.59        2956.75           1319         134.00       584.14
  369.62        2957.00           1322         129.00       562.35
  369.65        2957.25           1325         126.00       549.27
  369.68        2957.50           1329         117.00       510.03
  369.71        2957.75           1332         121.00       527.47
  369.74        2958.00           1335         138.00       601.58
  369.77        2958.25           1339         125.00       544.91
  369.80        2958.50           1342         130.00       566.71
  369.83        2958.75           1345         129.00       562.35
  369.85        2959.00           1349         125.00       544.91
  369.88        2959.25           1352         124.00       540.55
  369.91        2959.50           1355         130.00       566.71
  369.94        2959.75           1359         119.00       518.75
  369.96        2960.00           1362         123.00       536.19
  369.99        2960.25           1365         136.00       592.86
  370.02        2960.50           1369         133.00       579.78
  370.05        2960.75           1372         148.00       645.17
  370.08        2961.00           1375         147.00       640.81
  370.10        2961.25           1379         168.00       732.36
  370.13        2961.50           1382         234.00      1020.08
  370.16        2961.75           1385         679.00      2960.16
  370.19        2962.00           1389        2074.00      9043.43
  370.21        2962.25           1392        3450.00     15046.02
  370.24        2962.50           1395        5014.00     21871.37
  370.27        2962.75           1399        7705.00     33621.52
  370.30        2963.00           1402       10023.00     43749.63
  370.32        2963.25           1405       12286.00     53643.37
  370.35        2963.50           1409       15032.00     65656.66
  370.38        2963.75           1412       16850.00     73614.88
  370.41        2964.00           1415       18816.00     82225.25
  370.43        2964.25           1419       21178.00     92575.84
  370.46        2964.50           1422       23579.00    103104.00
  370.49        2964.75           1425       25803.00    112861.90
  370.52        2965.00           1429       27934.00    122217.10
  370.55        2965.25           1432       29576.00    129429.20
  370.57        2965.50           1435       31799.00    139198.20
  370.60        2965.75           1439       34902.00    152844.00
  370.63        2966.00           1442       36429.00    159563.20
  370.66        2966.25           1445       38891.00    170402.50
  370.68        2966.50           1449       41092.00    180098.60
  370.71        2966.75           1452       42069.00    184404.40
  370.74        2967.00           1455       42222.00    185078.90
  370.77        2967.25           1459       42259.00    185241.90
  370.80        2967.50           1462       42294.00    185396.20
  370.82        2967.75           1465       42062.00    184373.60
  370.85        2968.00           1469       41436.00    181614.60
  370.88        2968.25           1472       40116.00    175798.30
  370.91        2968.50           1475       38602.00    169129.70
  370.94        2968.75           1479       35880.00    157147.20
  370.96        2969.00           1482       33976.00    148770.60
  370.99        2969.25           1485       32362.00    141673.20
  371.02        2969.50           1489       29647.00    129741.10
  371.05        2969.75           1492       27858.00    121883.40
  371.07        2970.00           1495       25770.00    112717.00
  371.10        2970.25           1499       23125.00    101112.70
  371.13        2970.50           1502       21365.00     93395.59
  371.16        2970.75           1505       19446.00     84985.37
  371.19        2971.00           1509       17123.00     74810.26
  371.21        2971.25           1512       15243.00     66580.11
  371.24        2971.50           1515       13183.00     57566.64
  371.27        2971.75           1519       10488.00     45782.11
  371.29        2972.00           1522        8492.00     37059.49
  371.32        2972.25           1525        6629.00     28922.21
  371.35        2972.50           1529        4194.00     18292.51
  371.38        2972.75           1532        2406.00     10491.53
  371.41        2973.00           1536         890.00      3880.14
  371.43        2973.25           1539         424.00      1848.40
  371.46        2973.50           1542         201.00       876.22
  371.49        2973.75           1546         155.00       675.69
  371.52        2974.00           1549         131.00       571.06
  371.54        2974.25           1552         121.00       527.47
  371.57        2974.50           1556         126.00       549.27
  371.60        2974.75           1559         120.00       523.11
  371.63        2975.00           1562         117.00       510.03
  371.65        2975.25           1566         111.00       483.88
  371.68        2975.50           1569         110.00       479.52
  371.71        2975.75           1572         107.00       466.44
  371.74        2976.00           1576         117.00       510.03
  371.76        2976.25           1579         113.00       492.60
  371.79        2976.50           1582          94.00       409.77
  371.82        2976.75           1586         112.00       488.24
  371.85        2977.00           1589         102.00       444.64
  371.87        2977.25           1592         113.00       492.60
  371.90        2977.50           1596         109.00       475.16
  371.93        2977.75           1599         114.00       496.96
  371.96        2978.00           1602         119.00       518.75
  371.98        2978.25           1606         115.00       501.32
  372.01        2978.50           1609         107.00       466.44
  372.04        2978.75           1612         110.00       479.52
  372.07        2979.00           1616         104.00       453.36
  372.10        2979.25           1619         112.00       488.24
  372.12        2979.50           1623         105.00       457.72
  372.15        2979.75           1626         114.00       496.96
  372.18        2980.00           1629         101.00       440.28
  372.20        2980.25           1633         103.00       449.00
  372.23        2980.50           1636         114.00       496.96
  372.26        2980.75           1639         105.00       457.72
  372.29        2981.00           1643         102.00       444.64
  372.32        2981.25           1646         111.00       483.88
  372.35        2981.50           1649         106.00       462.08
  372.38        2981.75           1653         101.00       440.28
  372.41        2982.00           1656         107.00       466.44
  372.44        2982.25           1659         104.00       453.36
  372.46        2982.50           1663         104.00       453.36
  372.49        2982.75           1666         105.00       457.72
  372.52        2983.00           1669         100.00       435.93
  372.55        2983.25           1673         113.00       492.60
  372.57        2983.50           1676         104.00       453.36
  372.60        2983.75           1679         111.00       483.88
  372.63        2984.00           1683         100.00       435.93
HS scan finished at 06:12:56
end
