************************************************************
  HS Scan of (1) Internal mercury lamp
************************************************************
Integration time is 0.2294 seconds per sample
dh220117DelftKZ 51.997-4.386 2.10676pr1000
************************************************************
Dead Time -------------------------  3E-08 
Number of Cycles Used -------------  4 
Starting Wavelength (Angstroms) ---  2950 
Final Wavelength (Angstoms) -------  2984 
Wavelength Increment (Angstroms) --  .25 
Filter Wheel #1 Position ---------- (1) Ground quartz diffuser (ND=2.32)
Filter Wheel #2 Position ---------- (1) Neutral Density 0.494



************************************************************
HS scan start time = 06:09:34
Dark Count =  0 


Time (GMT)  Wavelength (Ang)  Step Number  Raw Counts  Counts/Second

  370.01        2950.00           1229         139.00       605.94
  370.11        2950.25           1232         116.00       505.67
  370.13        2950.50           1236         128.00       557.99
  370.16        2950.75           1239         131.00       571.06
  370.19        2951.00           1242         140.00       610.30
  370.22        2951.25           1246         144.00       627.74
  370.24        2951.50           1249         129.00       562.35
  370.27        2951.75           1252         138.00       601.58
  370.30        2952.00           1255         137.00       597.22
  370.33        2952.25           1259         130.00       566.71
  370.35        2952.50           1262         137.00       597.22
  370.38        2952.75           1265         120.00       523.11
  370.41        2953.00           1269         135.00       588.50
  370.44        2953.25           1272         132.00       575.42
  370.46        2953.50           1275         130.00       566.71
  370.49        2953.75           1279         125.00       544.91
  370.52        2954.00           1282         134.00       584.14
  370.55        2954.25           1285         129.00       562.35
  370.57        2954.50           1289         120.00       523.11
  370.60        2954.75           1292         133.00       579.78
  370.63        2955.00           1295         128.00       557.99
  370.66        2955.25           1299         132.00       575.42
  370.68        2955.50           1302         132.00       575.42
  370.71        2955.75           1305         122.00       531.83
  370.74        2956.00           1309         141.00       614.66
  370.77        2956.25           1312         135.00       588.50
  370.79        2956.50           1315         126.00       549.27
  370.82        2956.75           1319         125.00       544.91
  370.85        2957.00           1322         137.00       597.22
  370.88        2957.25           1325         128.00       557.99
  370.90        2957.50           1329         135.00       588.50
  370.93        2957.75           1332         132.00       575.42
  370.96        2958.00           1335         119.00       518.75
  370.99        2958.25           1339         135.00       588.50
  371.01        2958.50           1342         125.00       544.91
  371.04        2958.75           1345         122.00       531.83
  371.07        2959.00           1349         127.00       553.63
  371.10        2959.25           1352         118.00       514.39
  371.12        2959.50           1355         127.00       553.63
  371.15        2959.75           1359         129.00       562.35
  371.18        2960.00           1362         144.00       627.74
  371.21        2960.25           1365         141.00       614.66
  371.23        2960.50           1369         125.00       544.91
  371.26        2960.75           1372         141.00       614.66
  371.29        2961.00           1375         147.00       640.81
  371.32        2961.25           1379         159.00       693.13
  371.34        2961.50           1382         183.00       797.75
  371.37        2961.75           1385         547.00      2384.65
  371.40        2962.00           1389        1721.00      7503.87
  371.43        2962.25           1392        3188.00     13902.92
  371.45        2962.50           1395        5084.00     22176.91
  371.48        2962.75           1399        7732.00     33739.45
  371.51        2963.00           1402        9866.00     43063.45
  371.54        2963.25           1405       11862.00     51789.21
  371.56        2963.50           1409       14495.00     63306.70
  371.59        2963.75           1412       16328.00     71329.46
  371.62        2964.00           1415       17829.00     77902.00
  371.65        2964.25           1419       20138.00     88017.64
  371.67        2964.50           1422       22161.00     96885.38
  371.70        2964.75           1425       24016.00    105020.90
  371.73        2965.00           1429       26434.00    115631.50
  371.76        2965.25           1432       28299.00    123820.00
  371.78        2965.50           1435       30111.00    131779.80
  371.81        2965.75           1439       32575.00    142609.70
  371.84        2966.00           1442       34291.00    150156.10
  371.87        2966.25           1445       36077.00    158014.10
  371.89        2966.50           1449       38497.00    168667.40
  371.92        2966.75           1452       39506.00    173111.20
  371.95        2967.00           1455       40016.00    175357.80
  371.98        2967.25           1459       40091.00    175688.20
  372.00        2967.50           1462       40133.00    175873.20
  372.03        2967.75           1465       40165.00    176014.20
  372.06        2968.00           1469       39369.00    172507.70
  372.09        2968.25           1472       38314.00    167861.50
  372.12        2968.50           1475       36814.00    161257.80
  372.14        2968.75           1479       34577.00    151414.20
  372.17        2969.00           1482       32674.00    143045.00
  372.20        2969.25           1485       30907.00    135277.60
  372.23        2969.50           1489       28885.00    126393.80
  372.25        2969.75           1492       27187.00    118937.10
  372.28        2970.00           1495       25251.00    110439.40
  372.31        2970.25           1499       22569.00     98674.41
  372.33        2970.50           1502       20399.00     89161.46
  372.36        2970.75           1505       18391.00     80363.53
  372.39        2971.00           1509       16070.00     70200.00
  372.42        2971.25           1512       14238.00     62182.15
  372.44        2971.50           1515       12700.00     55453.99
  372.47        2971.75           1519       10137.00     44247.89
  372.50        2972.00           1522        8200.00     35783.82
  372.53        2972.25           1525        6574.00     28682.04
  372.55        2972.50           1529        4332.00     18894.75
  372.58        2972.75           1532        2743.00     11961.57
  372.61        2973.00           1536        1143.00      4983.31
  372.64        2973.25           1539         444.00      1935.60
  372.66        2973.50           1542         184.00       802.11
  372.69        2973.75           1546         138.00       601.58
  372.72        2974.00           1549         135.00       588.50
  372.75        2974.25           1552         130.00       566.71
  372.77        2974.50           1556         114.00       496.96
  372.80        2974.75           1559         112.00       488.24
  372.83        2975.00           1562         117.00       510.03
  372.86        2975.25           1566         119.00       518.75
  372.88        2975.50           1569         118.00       514.39
  372.91        2975.75           1572         110.00       479.52
  372.94        2976.00           1576         112.00       488.24
  372.97        2976.25           1579         120.00       523.11
  372.99        2976.50           1582         117.00       510.03
  373.02        2976.75           1586         112.00       488.24
  373.05        2977.00           1589         111.00       483.88
  373.08        2977.25           1592         122.00       531.83
  373.10        2977.50           1596         106.00       462.08
  373.13        2977.75           1599         102.00       444.64
  373.16        2978.00           1602         113.00       492.60
  373.19        2978.25           1606         112.00       488.24
  373.21        2978.50           1609         110.00       479.52
  373.24        2978.75           1612         114.00       496.96
  373.27        2979.00           1616         113.00       492.60
  373.30        2979.25           1619         111.00       483.88
  373.32        2979.50           1623          87.00       379.25
  373.35        2979.75           1626          97.00       422.85
  373.38        2980.00           1629         115.00       501.32
  373.40        2980.25           1633         102.00       444.64
  373.43        2980.50           1636         117.00       510.03
  373.46        2980.75           1639         103.00       449.00
  373.49        2981.00           1643         109.00       475.16
  373.51        2981.25           1646         107.00       466.44
  373.54        2981.50           1649         101.00       440.28
  373.57        2981.75           1653         106.00       462.08
  373.60        2982.00           1656         106.00       462.08
  373.62        2982.25           1659         109.00       475.16
  373.65        2982.50           1663         103.00       449.00
  373.68        2982.75           1666         100.00       435.93
  373.71        2983.00           1669         100.00       435.93
  373.73        2983.25           1673          94.00       409.77
  373.76        2983.50           1676         103.00       449.00
  373.79        2983.75           1679          94.00       409.77
  373.82        2984.00           1683          94.00       409.77
HS scan finished at 06:14:07
end
