************************************************************
  HS Scan of (1) Internal mercury lamp
************************************************************
Integration time is 0.2294 seconds per sample
dh210119NARL 13.459-79.1756 3.447962pr1000
************************************************************
Dead Time -------------------------  2.8E-08 
Number of Cycles Used -------------  4 
Starting Wavelength (Angstroms) ---  2950 
Final Wavelength (Angstoms) -------  2984 
Wavelength Increment (Angstroms) --  .25 
Filter Wheel #1 Position ---------- (1) Ground quartz diffuser (ND=2.32)
Filter Wheel #2 Position ---------- (1) Neutral Density 0.494



************************************************************
HS scan start time = 13:23:20
Dark Count =  .3 


Time (GMT)  Wavelength (Ang)  Step Number  Raw Counts  Counts/Second

  803.78        2950.00           1232         109.00       473.85
  803.88        2950.25           1236         107.00       465.13
  803.91        2950.50           1239         110.00       478.21
  803.93        2950.75           1242         117.00       508.73
  803.96        2951.00           1246         109.00       473.85
  803.99        2951.25           1249         107.00       465.13
  804.02        2951.50           1252         103.00       447.70
  804.05        2951.75           1256         107.00       465.13
  804.07        2952.00           1259         111.00       482.57
  804.10        2952.25           1262         100.00       434.62
  804.13        2952.50           1265         108.00       469.49
  804.16        2952.75           1269         103.00       447.70
  804.19        2953.00           1272         105.00       456.41
  804.22        2953.25           1275         103.00       447.70
  804.24        2953.50           1279         107.00       465.13
  804.27        2953.75           1282         109.00       473.85
  804.30        2954.00           1285         103.00       447.70
  804.33        2954.25           1289         116.00       504.37
  804.36        2954.50           1292          99.00       430.26
  804.39        2954.75           1295          98.00       425.90
  804.41        2955.00           1299          98.00       425.90
  804.44        2955.25           1302          99.00       430.26
  804.47        2955.50           1305         103.00       447.70
  804.50        2955.75           1309          99.00       430.26
  804.53        2956.00           1312          97.00       421.54
  804.55        2956.25           1315         103.00       447.70
  804.58        2956.50           1318          99.00       430.26
  804.61        2956.75           1322         102.00       443.34
  804.64        2957.00           1325         100.00       434.62
  804.67        2957.25           1328         110.00       478.21
  804.70        2957.50           1332         101.00       438.98
  804.72        2957.75           1335         101.00       438.98
  804.75        2958.00           1338         102.00       443.34
  804.78        2958.25           1342         100.00       434.62
  804.81        2958.50           1345         101.00       438.98
  804.84        2958.75           1348         111.00       482.57
  804.86        2959.00           1352         108.00       469.49
  804.89        2959.25           1355          97.00       421.54
  804.92        2959.50           1358         111.00       482.57
  804.95        2959.75           1362         107.00       465.13
  804.98        2960.00           1365         102.00       443.34
  805.00        2960.25           1368         108.00       469.49
  805.03        2960.50           1372         115.00       500.01
  805.06        2960.75           1375         124.00       539.24
  805.09        2961.00           1378         139.00       604.63
  805.12        2961.25           1382         172.00       748.49
  805.15        2961.50           1385         759.00      3307.63
  805.17        2961.75           1388        2385.00     10398.41
  805.20        2962.00           1391        4696.00     20481.23
  805.23        2962.25           1395        8312.00     36269.16
  805.26        2962.50           1398       11819.00     51594.54
  805.29        2962.75           1401       15231.00     66517.41
  805.32        2963.00           1405       20950.00     91558.31
  805.34        2963.25           1408       24346.00    106444.50
  805.37        2963.50           1411       27366.00    119693.00
  805.40        2963.75           1415       32508.00    142273.10
  805.43        2964.00           1418       36433.00    159528.30
  805.46        2964.25           1421       39909.00    174823.60
  805.49        2964.50           1425       45034.00    197398.90
  805.51        2964.75           1428       49244.00    215965.10
  805.54        2965.00           1431       52628.00    230902.60
  805.57        2965.25           1435       57325.00    251656.80
  805.60        2965.50           1438       60685.00    266518.10
  805.63        2965.75           1441       64454.00    283203.30
  805.66        2966.00           1445       68919.00    302989.90
  805.69        2966.25           1448       71961.00    316483.10
  805.71        2966.50           1451       74179.00    326327.80
  805.74        2966.75           1455       75530.00    332327.00
  805.77        2967.00           1458       75791.00    333486.10
  805.80        2967.25           1461       75736.00    333241.90
  805.83        2967.50           1465       75741.00    333264.10
  805.86        2967.75           1468       75287.00    331247.80
  805.88        2968.00           1471       73521.00    323406.70
  805.91        2968.25           1475       70115.00    308293.70
  805.94        2968.50           1478       66702.00    293162.50
  805.97        2968.75           1481       63280.00    278004.40
  806.00        2969.00           1485       59514.00    261337.30
  806.02        2969.25           1488       56208.00    246719.00
  806.05        2969.50           1491       52934.00    232254.00
  806.08        2969.75           1495       48280.00    211712.10
  806.11        2970.00           1498       44291.00    194124.20
  806.14        2970.25           1501       40229.00    176232.40
  806.17        2970.50           1505       35360.00    154809.50
  806.20        2970.75           1508       32095.00    140458.50
  806.22        2971.00           1511       28614.00    125170.70
  806.25        2971.25           1515       23823.00    104151.20
  806.28        2971.50           1518       20109.00     87873.75
  806.31        2971.75           1521       17121.00     74788.97
  806.34        2972.00           1525       13252.00     57860.45
  806.37        2972.25           1528        9483.00     41384.90
  806.39        2972.50           1531        6020.00     26260.37
  806.42        2972.75           1535        1694.00      7384.70
  806.45        2973.00           1538         552.00      2405.13
  806.48        2973.25           1541         251.00      1092.88
  806.51        2973.50           1544         163.00       709.26
  806.53        2973.75           1548         155.00       674.38
  806.56        2974.00           1551         138.00       600.27
  806.59        2974.25           1554         127.00       552.32
  806.62        2974.50           1558         116.00       504.37
  806.65        2974.75           1561         114.00       495.65
  806.67        2975.00           1564         103.00       447.70
  806.70        2975.25           1568          87.00       377.95
  806.73        2975.50           1571          94.00       408.46
  806.76        2975.75           1574          92.00       399.74
  806.79        2976.00           1578          93.00       404.10
  806.82        2976.25           1581          96.00       417.18
  806.84        2976.50           1584          95.00       412.82
  806.87        2976.75           1588          86.00       373.59
  806.90        2977.00           1591          97.00       421.54
  806.93        2977.25           1595         101.00       438.98
  806.96        2977.50           1598          90.00       391.02
  806.98        2977.75           1601          93.00       404.10
  807.01        2978.00           1605          92.00       399.74
  807.04        2978.25           1608          93.00       404.10
  807.07        2978.50           1611          97.00       421.54
  807.10        2978.75           1615          96.00       417.18
  807.13        2979.00           1618          91.00       395.38
  807.15        2979.25           1621          98.00       425.90
  807.18        2979.50           1625          96.00       417.18
  807.21        2979.75           1628          90.00       391.02
  807.24        2980.00           1631          91.00       395.38
  807.27        2980.25           1635          95.00       412.82
  807.29        2980.50           1638          89.00       386.67
  807.32        2980.75           1641          97.00       421.54
  807.35        2981.00           1645          89.00       386.67
  807.38        2981.25           1648         104.00       452.05
  807.41        2981.50           1651          93.00       404.10
  807.43        2981.75           1655          88.00       382.31
  807.46        2982.00           1658          91.00       395.38
  807.49        2982.25           1661          91.00       395.38
  807.52        2982.50           1665          90.00       391.02
  807.55        2982.75           1668          83.00       360.51
  807.58        2983.00           1671          86.00       373.59
  807.60        2983.25           1675         101.00       438.98
  807.63        2983.50           1678          91.00       395.38
  807.66        2983.75           1681          92.00       399.74
  807.69        2984.00           1685          91.00       395.38
HS scan finished at 13:27:59
end
