************************************************************
  HS Scan of (1) Internal mercury lamp
************************************************************
Integration time is 0.2294 seconds per sample
dh290117DelftKZ 51.997-4.386 2.267704pr1000
************************************************************
Dead Time -------------------------  3E-08 
Number of Cycles Used -------------  4 
Starting Wavelength (Angstroms) ---  2950 
Final Wavelength (Angstoms) -------  2984 
Wavelength Increment (Angstroms) --  .25 
Filter Wheel #1 Position ---------- (1) Ground quartz diffuser (ND=2.32)
Filter Wheel #2 Position ---------- (1) Neutral Density 0.494



************************************************************
HS scan start time = 06:02:26
Dark Count =  0 


Time (GMT)  Wavelength (Ang)  Step Number  Raw Counts  Counts/Second

  362.88        2950.00           1229         139.00       605.94
  362.98        2950.25           1232         135.00       588.50
  363.01        2950.50           1236         125.00       544.91
  363.03        2950.75           1239         139.00       605.94
  363.06        2951.00           1242         134.00       584.14
  363.09        2951.25           1246         137.00       597.22
  363.12        2951.50           1249         127.00       553.63
  363.14        2951.75           1252         134.00       584.14
  363.17        2952.00           1255         131.00       571.06
  363.20        2952.25           1259         129.00       562.35
  363.23        2952.50           1262         134.00       584.14
  363.25        2952.75           1265         128.00       557.99
  363.28        2953.00           1269         122.00       531.83
  363.31        2953.25           1272         124.00       540.55
  363.33        2953.50           1275         129.00       562.35
  363.36        2953.75           1279         127.00       553.63
  363.39        2954.00           1282         130.00       566.71
  363.42        2954.25           1285         140.00       610.30
  363.44        2954.50           1289         130.00       566.71
  363.47        2954.75           1292         126.00       549.27
  363.50        2955.00           1295         129.00       562.35
  363.53        2955.25           1299         127.00       553.63
  363.55        2955.50           1302         121.00       527.47
  363.58        2955.75           1305         132.00       575.42
  363.61        2956.00           1309         135.00       588.50
  363.64        2956.25           1312         121.00       527.47
  363.66        2956.50           1315         127.00       553.63
  363.69        2956.75           1319         126.00       549.27
  363.72        2957.00           1322         133.00       579.78
  363.75        2957.25           1325         124.00       540.55
  363.77        2957.50           1329         119.00       518.75
  363.80        2957.75           1332         128.00       557.99
  363.83        2958.00           1335         125.00       544.91
  363.86        2958.25           1339         126.00       549.27
  363.88        2958.50           1342         121.00       527.47
  363.91        2958.75           1345         123.00       536.19
  363.94        2959.00           1349         130.00       566.71
  363.97        2959.25           1352         120.00       523.11
  363.99        2959.50           1355         125.00       544.91
  364.02        2959.75           1359         125.00       544.91
  364.05        2960.00           1362         135.00       588.50
  364.07        2960.25           1365         143.00       623.38
  364.10        2960.50           1369         144.00       627.74
  364.13        2960.75           1372         143.00       623.38
  364.16        2961.00           1375         144.00       627.74
  364.18        2961.25           1379         163.00       710.56
  364.21        2961.50           1382         219.00       954.69
  364.24        2961.75           1385         654.00      2851.16
  364.27        2962.00           1389        2038.00      8886.42
  364.30        2962.25           1392        3702.00     16145.57
  364.32        2962.50           1395        5620.00     24516.72
  364.35        2962.75           1399        8639.00     37701.73
  364.38        2963.00           1402       10698.00     46700.08
  364.41        2963.25           1405       12629.00     55143.46
  364.43        2963.50           1409       15349.00     67044.04
  364.46        2963.75           1412       17414.00     76084.55
  364.49        2964.00           1415       19516.00     85292.07
  364.52        2964.25           1419       22362.00     97766.71
  364.54        2964.50           1422       24135.00    105542.90
  364.57        2964.75           1425       26170.00    114472.70
  364.60        2965.00           1429       28736.00    125739.30
  364.63        2965.25           1432       30957.00    135497.40
  364.65        2965.50           1435       33287.00    145740.40
  364.68        2965.75           1439       35496.00    155457.40
  364.71        2966.00           1442       37081.00    162433.00
  364.74        2966.25           1445       39359.00    172463.70
  364.76        2966.50           1449       42063.00    184378.00
  364.79        2966.75           1452       43042.00    188693.70
  364.82        2967.00           1455       43548.00    190924.80
  364.85        2967.25           1459       43381.00    190188.40
  364.87        2967.50           1462       43439.00    190444.20
  364.90        2967.75           1465       43492.00    190677.90
  364.93        2968.00           1469       42512.00    186357.20
  364.96        2968.25           1472       41353.00    181248.80
  364.98        2968.50           1475       39831.00    174542.80
  365.01        2968.75           1479       37484.00    164207.10
  365.04        2969.00           1482       35792.00    156759.90
  365.07        2969.25           1485       33754.00    147794.20
  365.09        2969.50           1489       30951.00    135471.00
  365.12        2969.75           1492       28790.00    125976.50
  365.15        2970.00           1495       26820.00    117325.90
  365.18        2970.25           1499       24061.00    105218.30
  365.20        2970.50           1502       22014.00     96240.85
  365.23        2970.75           1505       20150.00     88070.22
  365.26        2971.00           1509       17201.00     75151.81
  365.29        2971.25           1512       15214.00     66453.18
  365.32        2971.50           1515       13610.00     59434.57
  365.34        2971.75           1519       11051.00     48243.27
  365.37        2972.00           1522        9256.00     40397.67
  365.40        2972.25           1525        7422.00     32385.42
  365.43        2972.50           1529        4630.00     20195.32
  365.45        2972.75           1532        2728.00     11896.14
  365.48        2973.00           1536         963.00      4198.44
  365.51        2973.25           1539         380.00      1656.58
  365.54        2973.50           1542         185.00       806.47
  365.56        2973.75           1546         136.00       592.86
  365.59        2974.00           1549         129.00       562.35
  365.62        2974.25           1552         126.00       549.27
  365.65        2974.50           1556         124.00       540.55
  365.67        2974.75           1559         110.00       479.52
  365.70        2975.00           1562         119.00       518.75
  365.73        2975.25           1566         117.00       510.03
  365.76        2975.50           1569         103.00       449.00
  365.78        2975.75           1572         118.00       514.39
  365.81        2976.00           1576         119.00       518.75
  365.84        2976.25           1579         119.00       518.75
  365.87        2976.50           1582         113.00       492.60
  365.89        2976.75           1586         106.00       462.08
  365.92        2977.00           1589         100.00       435.93
  365.95        2977.25           1592         112.00       488.24
  365.98        2977.50           1596         109.00       475.16
  366.00        2977.75           1599         102.00       444.64
  366.03        2978.00           1602         107.00       466.44
  366.06        2978.25           1606         105.00       457.72
  366.09        2978.50           1609         110.00       479.52
  366.11        2978.75           1612         115.00       501.32
  366.14        2979.00           1616         117.00       510.03
  366.17        2979.25           1619         111.00       483.88
  366.20        2979.50           1623         110.00       479.52
  366.22        2979.75           1626         109.00       475.16
  366.25        2980.00           1629         114.00       496.96
  366.28        2980.25           1633         100.00       435.93
  366.30        2980.50           1636         110.00       479.52
  366.33        2980.75           1639         110.00       479.52
  366.36        2981.00           1643         103.00       449.00
  366.39        2981.25           1646         110.00       479.52
  366.41        2981.50           1649         111.00       483.88
  366.44        2981.75           1653         107.00       466.44
  366.47        2982.00           1656         103.00       449.00
  366.50        2982.25           1659         103.00       449.00
  366.52        2982.50           1663         106.00       462.08
  366.55        2982.75           1666         103.00       449.00
  366.58        2983.00           1669         104.00       453.36
  366.61        2983.25           1673         108.00       470.80
  366.63        2983.50           1676         118.00       514.39
  366.66        2983.75           1679         105.00       457.72
  366.69        2984.00           1683         107.00       466.44
HS scan finished at 06:06:59
end
