************************************************************
  HS Scan of (1) Internal mercury lamp
************************************************************
Integration time is 0.2294 seconds per sample
dh010217DelftKZ 51.997-4.386 2.214056pr1000
************************************************************
Dead Time -------------------------  3E-08 
Number of Cycles Used -------------  4 
Starting Wavelength (Angstroms) ---  2950 
Final Wavelength (Angstoms) -------  2984 
Wavelength Increment (Angstroms) --  .25 
Filter Wheel #1 Position ---------- (1) Ground quartz diffuser (ND=2.32)
Filter Wheel #2 Position ---------- (1) Neutral Density 0.494



************************************************************
HS scan start time = 05:59:14
Dark Count =  .1 


Time (GMT)  Wavelength (Ang)  Step Number  Raw Counts  Counts/Second

  359.68        2950.00           1229         130.00       566.27
  359.77        2950.25           1232         134.00       583.71
  359.80        2950.50           1236         140.00       609.86
  359.83        2950.75           1239         125.00       544.47
  359.86        2951.00           1242         136.00       592.43
  359.88        2951.25           1246         131.00       570.63
  359.91        2951.50           1249         125.00       544.47
  359.94        2951.75           1252         127.00       553.19
  359.97        2952.00           1255         130.00       566.27
  359.99        2952.25           1259         127.00       553.19
  360.02        2952.50           1262         119.00       518.32
  360.05        2952.75           1265         141.00       614.22
  360.08        2953.00           1269         137.00       596.78
  360.11        2953.25           1272         134.00       583.71
  360.14        2953.50           1275         125.00       544.47
  360.17        2953.75           1279         134.00       583.71
  360.20        2954.00           1282         127.00       553.19
  360.23        2954.25           1285         128.00       557.55
  360.25        2954.50           1289         130.00       566.27
  360.28        2954.75           1292         124.00       540.11
  360.31        2955.00           1295         135.00       588.07
  360.34        2955.25           1299         130.00       566.27
  360.37        2955.50           1302         126.00       548.83
  360.39        2955.75           1305         128.00       557.55
  360.42        2956.00           1309         133.00       579.35
  360.45        2956.25           1312         118.00       513.96
  360.48        2956.50           1315         135.00       588.07
  360.50        2956.75           1319         126.00       548.83
  360.53        2957.00           1322         124.00       540.11
  360.56        2957.25           1325         127.00       553.19
  360.59        2957.50           1329         108.00       470.36
  360.61        2957.75           1332         114.00       496.52
  360.64        2958.00           1335         120.00       522.68
  360.67        2958.25           1339         135.00       588.07
  360.70        2958.50           1342         121.00       527.04
  360.72        2958.75           1345         128.00       557.55
  360.75        2959.00           1349         128.00       557.55
  360.78        2959.25           1352         125.00       544.47
  360.81        2959.50           1355         118.00       513.96
  360.83        2959.75           1359         123.00       535.75
  360.86        2960.00           1362         134.00       583.71
  360.89        2960.25           1365         129.00       561.91
  360.92        2960.50           1369         145.00       631.66
  360.94        2960.75           1372         139.00       605.50
  360.97        2961.00           1375         156.00       679.61
  361.00        2961.25           1379         151.00       657.82
  361.03        2961.50           1382         183.00       797.32
  361.05        2961.75           1385         543.00      2366.78
  361.08        2962.00           1389        1926.00      8397.50
  361.11        2962.25           1392        3458.00     15080.49
  361.14        2962.50           1395        5084.00     22176.48
  361.16        2962.75           1399        7819.00     34119.04
  361.19        2963.00           1402       10079.00     43993.95
  361.22        2963.25           1405       12100.00     52829.53
  361.25        2963.50           1409       14368.00     62750.55
  361.28        2963.75           1412       16165.00     70615.44
  361.30        2964.00           1415       18147.00     79294.34
  361.33        2964.25           1419       20667.00     90335.59
  361.36        2964.50           1422       22822.00     99783.44
  361.39        2964.75           1425       24677.00    107920.30
  361.41        2965.00           1429       26761.00    117066.50
  361.44        2965.25           1432       28597.00    125128.40
  361.47        2965.50           1435       30492.00    133453.50
  361.50        2965.75           1439       33317.00    145871.90
  361.52        2966.00           1442       34904.00    152852.30
  361.55        2966.25           1445       36429.00    159562.80
  361.58        2966.50           1449       39017.00    170956.90
  361.61        2966.75           1452       40122.00    175824.30
  361.64        2967.00           1455       40779.00    178719.00
  361.66        2967.25           1459       40752.00    178600.00
  361.69        2967.50           1462       40789.00    178763.00
  361.72        2967.75           1465       40579.00    177837.70
  361.75        2968.00           1469       39830.00    174537.90
  361.77        2968.25           1472       38682.00    169481.60
  361.80        2968.50           1475       37086.00    162454.60
  361.83        2968.75           1479       35076.00    153609.00
  361.86        2969.00           1482       33350.00    146017.10
  361.88        2969.25           1485       31815.00    139268.10
  361.91        2969.50           1489       29232.00    127917.60
  361.94        2969.75           1492       27217.00    119068.40
  361.97        2970.00           1495       25321.00    110746.20
  362.00        2970.25           1499       22349.00     97709.27
  362.03        2970.50           1502       20653.00     90274.24
  362.05        2970.75           1505       18847.00     82360.61
  362.08        2971.00           1509       16430.00     71775.57
  362.11        2971.25           1512       14574.00     63651.96
  362.14        2971.50           1515       12591.00     54976.83
  362.17        2971.75           1519       10126.00     44199.38
  362.19        2972.00           1522        8568.00     37391.10
  362.22        2972.25           1525        6984.00     30472.05
  362.25        2972.50           1529        4616.00     20133.78
  362.28        2972.75           1532        2765.00     12057.11
  362.30        2973.00           1536        1026.00      4472.70
  362.33        2973.25           1539         402.00      1752.05
  362.36        2973.50           1542         168.00       731.93
  362.39        2973.75           1546         126.00       548.83
  362.41        2974.00           1549         128.00       557.55
  362.44        2974.25           1552         115.00       500.88
  362.47        2974.50           1556         119.00       518.32
  362.50        2974.75           1559         119.00       518.32
  362.52        2975.00           1562         104.00       452.93
  362.55        2975.25           1566         118.00       513.96
  362.58        2975.50           1569         111.00       483.44
  362.61        2975.75           1572         103.00       448.57
  362.63        2976.00           1576         103.00       448.57
  362.66        2976.25           1579         113.00       492.16
  362.69        2976.50           1582         111.00       483.44
  362.72        2976.75           1586         111.00       483.44
  362.74        2977.00           1589         105.00       457.29
  362.77        2977.25           1592         103.00       448.57
  362.80        2977.50           1596         106.00       461.65
  362.83        2977.75           1599         113.00       492.16
  362.85        2978.00           1602         104.00       452.93
  362.88        2978.25           1606         104.00       452.93
  362.91        2978.50           1609         108.00       470.36
  362.94        2978.75           1612         103.00       448.57
  362.96        2979.00           1616         103.00       448.57
  362.99        2979.25           1619         114.00       496.52
  363.02        2979.50           1623         105.00       457.29
  363.05        2979.75           1626         101.00       439.85
  363.07        2980.00           1629         102.00       444.21
  363.10        2980.25           1633         102.00       444.21
  363.13        2980.50           1636         108.00       470.36
  363.16        2980.75           1639          96.00       418.05
  363.18        2981.00           1643         104.00       452.93
  363.21        2981.25           1646         112.00       487.80
  363.24        2981.50           1649         112.00       487.80
  363.27        2981.75           1653         112.00       487.80
  363.30        2982.00           1656         103.00       448.57
  363.32        2982.25           1659          97.00       422.41
  363.35        2982.50           1663          99.00       431.13
  363.38        2982.75           1666         102.00       444.21
  363.40        2983.00           1669          97.00       422.41
  363.43        2983.25           1673          98.00       426.77
  363.46        2983.50           1676         104.00       452.93
  363.49        2983.75           1679          97.00       422.41
  363.52        2984.00           1683         100.00       435.49
HS scan finished at 06:03:49
end
