************************************************************
  HS Scan of (1) Internal mercury lamp
************************************************************
Integration time is 0.2294 seconds per sample
dh030217DelftKZ 51.997-4.386 2.535944pr1000
************************************************************
Dead Time -------------------------  3E-08 
Number of Cycles Used -------------  4 
Starting Wavelength (Angstroms) ---  2950 
Final Wavelength (Angstoms) -------  2984 
Wavelength Increment (Angstroms) --  .25 
Filter Wheel #1 Position ---------- (1) Ground quartz diffuser (ND=2.32)
Filter Wheel #2 Position ---------- (1) Neutral Density 0.494



************************************************************
HS scan start time = 00:34:32
Dark Count =  .1 


Time (GMT)  Wavelength (Ang)  Step Number  Raw Counts  Counts/Second

   34.98        2950.00           1229         139.00       605.50
   35.07        2950.25           1232         133.00       579.35
   35.10        2950.50           1236         119.00       518.32
   35.13        2950.75           1239         137.00       596.78
   35.16        2951.00           1242         126.00       548.83
   35.18        2951.25           1246         127.00       553.19
   35.21        2951.50           1249         129.00       561.91
   35.24        2951.75           1252         139.00       605.50
   35.27        2952.00           1255         130.00       566.27
   35.30        2952.25           1259         132.00       574.99
   35.33        2952.50           1262         132.00       574.99
   35.36        2952.75           1265         127.00       553.19
   35.38        2953.00           1269         137.00       596.78
   35.41        2953.25           1272         128.00       557.55
   35.44        2953.50           1275         143.00       622.94
   35.46        2953.75           1279         127.00       553.19
   35.49        2954.00           1282         128.00       557.55
   35.52        2954.25           1285         127.00       553.19
   35.55        2954.50           1289         135.00       588.07
   35.57        2954.75           1292         126.00       548.83
   35.60        2955.00           1295         123.00       535.75
   35.63        2955.25           1299         129.00       561.91
   35.66        2955.50           1302         128.00       557.55
   35.68        2955.75           1305         122.00       531.39
   35.71        2956.00           1309         128.00       557.55
   35.74        2956.25           1312         129.00       561.91
   35.77        2956.50           1315         132.00       574.99
   35.79        2956.75           1319         133.00       579.35
   35.82        2957.00           1322         129.00       561.91
   35.85        2957.25           1325         124.00       540.11
   35.88        2957.50           1329         120.00       522.68
   35.90        2957.75           1332         127.00       553.19
   35.93        2958.00           1335         135.00       588.07
   35.96        2958.25           1339         128.00       557.55
   35.99        2958.50           1342         120.00       522.68
   36.01        2958.75           1345         126.00       548.83
   36.04        2959.00           1349         125.00       544.47
   36.07        2959.25           1352         132.00       574.99
   36.10        2959.50           1355         112.00       487.80
   36.12        2959.75           1359         126.00       548.83
   36.15        2960.00           1362         127.00       553.19
   36.18        2960.25           1365         132.00       574.99
   36.21        2960.50           1369         136.00       592.43
   36.23        2960.75           1372         146.00       636.02
   36.26        2961.00           1375         158.00       688.33
   36.29        2961.25           1379         179.00       779.88
   36.32        2961.50           1382         241.00      1050.16
   36.34        2961.75           1385         787.00      3430.61
   36.37        2962.00           1389        2710.00     11817.18
   36.40        2962.25           1392        4645.00     20260.35
   36.43        2962.50           1395        6523.00     28458.90
   36.45        2962.75           1399       10324.00     45064.82
   36.48        2963.00           1402       13239.00     57811.17
   36.51        2963.25           1405       16228.00     70891.24
   36.54        2963.50           1409       19952.00     87202.11
   36.56        2963.75           1412       22318.00     97573.34
   36.59        2964.00           1415       24850.00    108679.40
   36.62        2964.25           1419       28282.00    123744.90
   36.65        2964.50           1422       31419.00    137527.40
   36.68        2964.75           1425       34333.00    150340.50
   36.70        2965.00           1429       37179.00    162864.00
   36.73        2965.25           1432       39724.00    174071.00
   36.76        2965.50           1435       42659.00    187004.80
   36.79        2965.75           1439       46241.00    202803.40
   36.81        2966.00           1442       48831.00    214236.10
   36.84        2966.25           1445       51671.00    226781.30
   36.87        2966.50           1449       55015.00    241565.20
   36.90        2966.75           1452       56217.00    246882.40
   36.92        2967.00           1455       56583.00    248501.80
   36.95        2967.25           1459       56551.00    248360.20
   36.98        2967.50           1462       56674.00    248904.40
   37.01        2967.75           1465       56300.00    247249.60
   37.03        2968.00           1469       55358.00    243082.30
   37.06        2968.25           1472       53811.00    236240.70
   37.09        2968.50           1475       51635.00    226622.30
   37.12        2968.75           1479       48466.00    212624.40
   37.14        2969.00           1482       45693.00    200385.40
   37.17        2969.25           1485       43184.00    189319.40
   37.20        2969.50           1489       39864.00    174687.70
   37.23        2969.75           1492       37319.00    163480.30
   37.25        2970.00           1495       35001.00    153279.10
   37.28        2970.25           1499       30764.00    134648.80
   37.31        2970.50           1502       28474.00    124588.20
   37.34        2970.75           1505       25990.00    113682.20
   37.36        2971.00           1509       22942.00    100309.70
   37.39        2971.25           1512       20646.00     90243.56
   37.42        2971.50           1515       17732.00     77476.74
   37.45        2971.75           1519       13972.00     61017.88
   37.48        2972.00           1522       11374.00     49655.00
   37.50        2972.25           1525        8869.00     38706.21
   37.53        2972.50           1529        5678.00     24769.49
   37.56        2972.75           1532        3311.00     14439.12
   37.59        2973.00           1536        1171.00      5104.97
   37.61        2973.25           1539         479.00      2087.75
   37.64        2973.50           1542         223.00       971.69
   37.67        2973.75           1546         155.00       675.25
   37.69        2974.00           1549         143.00       622.94
   37.72        2974.25           1552         129.00       561.91
   37.75        2974.50           1556         116.00       505.24
   37.78        2974.75           1559         119.00       518.32
   37.80        2975.00           1562         118.00       513.96
   37.83        2975.25           1566         123.00       535.75
   37.86        2975.50           1569         110.00       479.08
   37.89        2975.75           1572         113.00       492.16
   37.91        2976.00           1576         109.00       474.72
   37.94        2976.25           1579         118.00       513.96
   37.97        2976.50           1582         110.00       479.08
   38.00        2976.75           1586         127.00       553.19
   38.02        2977.00           1589         102.00       444.21
   38.05        2977.25           1592         117.00       509.60
   38.08        2977.50           1596         114.00       496.52
   38.11        2977.75           1599         111.00       483.44
   38.14        2978.00           1602         119.00       518.32
   38.16        2978.25           1606         118.00       513.96
   38.19        2978.50           1609         114.00       496.52
   38.22        2978.75           1612         116.00       505.24
   38.25        2979.00           1616         104.00       452.93
   38.27        2979.25           1619         111.00       483.44
   38.30        2979.50           1623         118.00       513.96
   38.33        2979.75           1626         111.00       483.44
   38.35        2980.00           1629         106.00       461.65
   38.38        2980.25           1633         100.00       435.49
   38.41        2980.50           1636         111.00       483.44
   38.44        2980.75           1639         111.00       483.44
   38.46        2981.00           1643         106.00       461.65
   38.49        2981.25           1646         105.00       457.29
   38.52        2981.50           1649         103.00       448.57
   38.55        2981.75           1653         110.00       479.08
   38.57        2982.00           1656         105.00       457.29
   38.60        2982.25           1659         107.00       466.00
   38.63        2982.50           1663         108.00       470.36
   38.66        2982.75           1666          96.00       418.05
   38.68        2983.00           1669         108.00       470.36
   38.71        2983.25           1673         106.00       461.65
   38.74        2983.50           1676         101.00       439.85
   38.77        2983.75           1679          95.00       413.69
   38.79        2984.00           1683         109.00       474.72
HS scan finished at 00:39:05
end
************************************************************
  HS Scan of (1) Internal mercury lamp
************************************************************
Integration time is 0.2294 seconds per sample
dh030217DelftKZ 51.997-4.386 2.535944pr1000
************************************************************
Dead Time -------------------------  3E-08 
Number of Cycles Used -------------  4 
Starting Wavelength (Angstroms) ---  2950 
Final Wavelength (Angstoms) -------  2984 
Wavelength Increment (Angstroms) --  .25 
Filter Wheel #1 Position ---------- (1) Ground quartz diffuser (ND=2.32)
Filter Wheel #2 Position ---------- (1) Neutral Density 0.494



************************************************************
HS scan start time = 05:56:26
Dark Count =  .1 


Time (GMT)  Wavelength (Ang)  Step Number  Raw Counts  Counts/Second

  356.87        2950.00           1229         143.00       622.94
  356.97        2950.25           1232         127.00       553.19
  357.00        2950.50           1236         134.00       583.71
  357.04        2950.75           1239         125.00       544.47
  357.07        2951.00           1242         120.00       522.68
  357.09        2951.25           1246         137.00       596.78
  357.12        2951.50           1249         140.00       609.86
  357.15        2951.75           1252         137.00       596.78
  357.18        2952.00           1255         128.00       557.55
  357.21        2952.25           1259         124.00       540.11
  357.23        2952.50           1262         127.00       553.19
  357.26        2952.75           1265         124.00       540.11
  357.29        2953.00           1269         132.00       574.99
  357.32        2953.25           1272         129.00       561.91
  357.34        2953.50           1275         138.00       601.14
  357.37        2953.75           1279         131.00       570.63
  357.41        2954.00           1282         132.00       574.99
  357.44        2954.25           1285         130.00       566.27
  357.47        2954.50           1289         128.00       557.55
  357.49        2954.75           1292         130.00       566.27
  357.52        2955.00           1295         140.00       609.86
  357.55        2955.25           1299         140.00       609.86
  357.58        2955.50           1302         148.00       644.74
  357.60        2955.75           1305         130.00       566.27
  357.63        2956.00           1309         131.00       570.63
  357.66        2956.25           1312         130.00       566.27
  357.69        2956.50           1315         126.00       548.83
  357.71        2956.75           1319         121.00       527.04
  357.74        2957.00           1322         121.00       527.04
  357.77        2957.25           1325         119.00       518.32
  357.80        2957.50           1329         131.00       570.63
  357.82        2957.75           1332         136.00       592.43
  357.85        2958.00           1335         123.00       535.75
  357.88        2958.25           1339         125.00       544.47
  357.91        2958.50           1342         120.00       522.68
  357.93        2958.75           1345         135.00       588.07
  357.96        2959.00           1349         120.00       522.68
  357.99        2959.25           1352         138.00       601.14
  358.02        2959.50           1355         125.00       544.47
  358.04        2959.75           1359         123.00       535.75
  358.07        2960.00           1362         133.00       579.35
  358.10        2960.25           1365         134.00       583.71
  358.13        2960.50           1369         141.00       614.22
  358.16        2960.75           1372         152.00       662.18
  358.18        2961.00           1375         144.00       627.30
  358.21        2961.25           1379         168.00       731.93
  358.24        2961.50           1382         243.00      1058.88
  358.27        2961.75           1385         667.00      2907.40
  358.29        2962.00           1389        2264.00      9871.71
  358.32        2962.25           1392        4065.00     17729.13
  358.35        2962.50           1395        6468.00     28218.74
  358.38        2962.75           1399       10187.00     44465.99
  358.40        2963.00           1402       12476.00     54473.87
  358.43        2963.25           1405       15003.00     65529.31
  358.46        2963.50           1409       18513.00     80897.50
  358.49        2963.75           1412       21304.00     93127.74
  358.52        2964.00           1415       24064.00    105231.00
  358.54        2964.25           1419       27092.00    118519.60
  358.57        2964.50           1422       29486.00    129033.40
  358.60        2964.75           1425       32227.00    141079.30
  358.63        2965.00           1429       35565.00    155760.60
  358.65        2965.25           1432       37951.00    166262.70
  358.68        2965.50           1435       40457.00    177300.20
  358.71        2965.75           1439       44326.00    194355.30
  358.74        2966.00           1442       46684.00    204758.30
  358.77        2966.25           1445       49159.00    215684.50
  358.79        2966.50           1449       51971.00    228107.10
  358.82        2966.75           1452       52840.00    231948.00
  358.85        2967.00           1455       53202.00    233548.20
  358.88        2967.25           1459       53452.00    234653.50
  358.90        2967.50           1462       53286.00    233919.60
  358.93        2967.75           1465       53425.00    234534.10
  358.96        2968.00           1469       51904.00    227811.00
  358.99        2968.25           1472       50262.00    220556.10
  359.03        2968.50           1475       48330.00    212024.00
  359.05        2968.75           1479       45412.00    199145.70
  359.08        2969.00           1482       43195.00    189367.90
  359.11        2969.25           1485       40780.00    178723.40
  359.14        2969.50           1489       37363.00    163674.00
  359.16        2969.75           1492       34889.00    152786.30
  359.19        2970.00           1495       32890.00    143994.30
  359.22        2970.25           1499       29653.00    129767.10
  359.25        2970.50           1502       27285.00    119367.00
  359.27        2970.75           1505       24447.00    106911.20
  359.30        2971.00           1509       21246.00     92873.49
  359.33        2971.25           1512       18785.00     82089.02
  359.36        2971.50           1515       16375.00     71534.78
  359.39        2971.75           1519       13087.00     57146.28
  359.41        2972.00           1522       10807.00     47176.14
  359.44        2972.25           1525        8397.00     36644.01
  359.47        2972.50           1529        5234.00     22831.24
  359.50        2972.75           1532        3210.00     13998.47
  359.52        2973.00           1536        1318.00      5745.98
  359.55        2973.25           1539         535.00      2331.90
  359.58        2973.50           1542         217.00       945.54
  359.61        2973.75           1546         151.00       657.82
  359.64        2974.00           1549         143.00       622.94
  359.66        2974.25           1552         133.00       579.35
  359.69        2974.50           1556         115.00       500.88
  359.72        2974.75           1559         117.00       509.60
  359.75        2975.00           1562         117.00       509.60
  359.77        2975.25           1566          98.00       426.77
  359.80        2975.50           1569         118.00       513.96
  359.83        2975.75           1572         108.00       470.36
  359.86        2976.00           1576         113.00       492.16
  359.88        2976.25           1579          99.00       431.13
  359.91        2976.50           1582         106.00       461.65
  359.94        2976.75           1586         119.00       518.32
  359.97        2977.00           1589         117.00       509.60
  359.99        2977.25           1592         111.00       483.44
  360.02        2977.50           1596         110.00       479.08
  360.05        2977.75           1599         110.00       479.08
  360.08        2978.00           1602         108.00       470.36
  360.10        2978.25           1606         103.00       448.57
  360.13        2978.50           1609         104.00       452.93
  360.16        2978.75           1612         111.00       483.44
  360.19        2979.00           1616         105.00       457.29
  360.22        2979.25           1619         121.00       527.04
  360.24        2979.50           1623         108.00       470.36
  360.27        2979.75           1626         109.00       474.72
  360.30        2980.00           1629         108.00       470.36
  360.33        2980.25           1633         112.00       487.80
  360.35        2980.50           1636         115.00       500.88
  360.38        2980.75           1639         106.00       461.65
  360.41        2981.00           1643         108.00       470.36
  360.44        2981.25           1646         101.00       439.85
  360.46        2981.50           1649         106.00       461.65
  360.49        2981.75           1653         116.00       505.24
  360.52        2982.00           1656         107.00       466.00
  360.55        2982.25           1659         106.00       461.65
  360.58        2982.50           1663         106.00       461.65
  360.61        2982.75           1666         107.00       466.00
  360.64        2983.00           1669         113.00       492.16
  360.66        2983.25           1673         113.00       492.16
  360.69        2983.50           1676         106.00       461.65
  360.72        2983.75           1679         114.00       496.52
  360.75        2984.00           1683         105.00       457.29
HS scan finished at 06:01:03
end
