************************************************************
  HS Scan of (1) Internal mercury lamp
************************************************************
Integration time is 0.2294 seconds per sample
dh060217DelftKZ 51.997-4.386 2.321352pr1000
************************************************************
Dead Time -------------------------  3E-08 
Number of Cycles Used -------------  4 
Starting Wavelength (Angstroms) ---  2950 
Final Wavelength (Angstoms) -------  2984 
Wavelength Increment (Angstroms) --  .25 
Filter Wheel #1 Position ---------- (1) Ground quartz diffuser (ND=2.32)
Filter Wheel #2 Position ---------- (1) Neutral Density 0.494



************************************************************
HS scan start time = 05:52:14
Dark Count =  0 


Time (GMT)  Wavelength (Ang)  Step Number  Raw Counts  Counts/Second

  352.69        2950.00           1229         134.00       584.14
  352.79        2950.25           1232         134.00       584.14
  352.81        2950.50           1236         132.00       575.42
  352.84        2950.75           1239         138.00       601.58
  352.87        2951.00           1242         120.00       523.11
  352.90        2951.25           1246         132.00       575.42
  352.93        2951.50           1249         123.00       536.19
  352.95        2951.75           1252         131.00       571.06
  352.98        2952.00           1255         123.00       536.19
  353.02        2952.25           1259         134.00       584.14
  353.05        2952.50           1262         139.00       605.94
  353.07        2952.75           1265         126.00       549.27
  353.10        2953.00           1269         145.00       632.10
  353.13        2953.25           1272         125.00       544.91
  353.16        2953.50           1275         132.00       575.42
  353.19        2953.75           1279         133.00       579.78
  353.21        2954.00           1282         122.00       531.83
  353.24        2954.25           1285         137.00       597.22
  353.27        2954.50           1289         132.00       575.42
  353.30        2954.75           1292         129.00       562.35
  353.32        2955.00           1295         141.00       614.66
  353.35        2955.25           1299         127.00       553.63
  353.38        2955.50           1302         126.00       549.27
  353.41        2955.75           1305         121.00       527.47
  353.43        2956.00           1309         137.00       597.22
  353.46        2956.25           1312         127.00       553.63
  353.49        2956.50           1315         136.00       592.86
  353.52        2956.75           1319         128.00       557.99
  353.54        2957.00           1322         124.00       540.55
  353.57        2957.25           1325         136.00       592.86
  353.60        2957.50           1329         130.00       566.71
  353.63        2957.75           1332         131.00       571.06
  353.65        2958.00           1335         124.00       540.55
  353.68        2958.25           1339         122.00       531.83
  353.71        2958.50           1342         127.00       553.63
  353.74        2958.75           1345         112.00       488.24
  353.76        2959.00           1349         129.00       562.35
  353.79        2959.25           1352         127.00       553.63
  353.82        2959.50           1355         123.00       536.19
  353.85        2959.75           1359         120.00       523.11
  353.87        2960.00           1362         127.00       553.63
  353.90        2960.25           1365         141.00       614.66
  353.93        2960.50           1369         151.00       658.25
  353.96        2960.75           1372         149.00       649.53
  353.99        2961.00           1375         149.00       649.53
  354.01        2961.25           1379         154.00       671.33
  354.04        2961.50           1382         236.00      1028.80
  354.07        2961.75           1385         713.00      3108.40
  354.10        2962.00           1389        2207.00      9623.53
  354.12        2962.25           1392        3893.00     16979.00
  354.15        2962.50           1395        5956.00     25983.63
  354.18        2962.75           1399        9090.00     39672.30
  354.21        2963.00           1402       11205.00     48916.55
  354.23        2963.25           1405       13150.00     57422.29
  354.26        2963.50           1409       15895.00     69433.94
  354.29        2963.75           1412       17905.00     78234.85
  354.32        2964.00           1415       20041.00     87592.56
  354.34        2964.25           1419       23099.00    100998.70
  354.37        2964.50           1422       25048.00    109548.60
  354.40        2964.75           1425       27102.00    118564.00
  354.43        2965.00           1429       29657.00    129785.10
  354.46        2965.25           1432       31900.00    139642.20
  354.48        2965.50           1435       34367.00    150490.50
  354.51        2965.75           1439       36643.00    160505.10
  354.54        2966.00           1442       38350.00    168020.00
  354.57        2966.25           1445       40482.00    177410.80
  354.59        2966.50           1449       43388.00    190219.30
  354.62        2966.75           1452       44326.00    194355.70
  354.65        2967.00           1455       44984.00    197258.00
  354.68        2967.25           1459       44941.00    197068.40
  354.70        2967.50           1462       44898.00    196878.70
  354.73        2967.75           1465       44633.00    195709.80
  354.76        2968.00           1469       43685.00    191528.90
  354.79        2968.25           1472       42245.00    185180.20
  354.82        2968.50           1475       40847.00    179019.00
  354.84        2968.75           1479       38791.00    169962.10
  354.87        2969.00           1482       36703.00    160769.20
  354.90        2969.25           1485       34770.00    152263.30
  354.93        2969.50           1489       31700.00    138763.00
  354.95        2969.75           1492       29429.00    128783.40
  354.98        2970.00           1495       27434.00    120021.60
  355.01        2970.25           1499       24741.00    108201.60
  355.04        2970.50           1502       22556.00     98617.41
  355.06        2970.75           1505       20564.00     89884.60
  355.09        2971.00           1509       17748.00     77547.25
  355.12        2971.25           1512       15624.00     68247.71
  355.15        2971.50           1515       13870.00     60572.05
  355.18        2971.75           1519       11254.00     49130.78
  355.20        2972.00           1522        9550.00     41682.43
  355.23        2972.25           1525        7458.00     32542.66
  355.26        2972.50           1529        4533.00     19771.97
  355.29        2972.75           1532        2584.00     11267.98
  355.31        2973.00           1536         917.00      3997.86
  355.34        2973.25           1539         355.00      1547.59
  355.37        2973.50           1542         179.00       780.31
  355.40        2973.75           1546         129.00       562.35
  355.42        2974.00           1549         143.00       623.38
  355.45        2974.25           1552         125.00       544.91
  355.48        2974.50           1556         112.00       488.24
  355.51        2974.75           1559         122.00       531.83
  355.54        2975.00           1562         111.00       483.88
  355.56        2975.25           1566         125.00       544.91
  355.59        2975.50           1569         117.00       510.03
  355.62        2975.75           1572         113.00       492.60
  355.65        2976.00           1576         110.00       479.52
  355.67        2976.25           1579         110.00       479.52
  355.70        2976.50           1582         113.00       492.60
  355.73        2976.75           1586         115.00       501.32
  355.76        2977.00           1589         116.00       505.67
  355.78        2977.25           1592         111.00       483.88
  355.81        2977.50           1596         115.00       501.32
  355.84        2977.75           1599         116.00       505.67
  355.87        2978.00           1602         112.00       488.24
  355.90        2978.25           1606         100.00       435.93
  355.92        2978.50           1609         109.00       475.16
  355.95        2978.75           1612         105.00       457.72
  355.98        2979.00           1616         110.00       479.52
  356.01        2979.25           1619         117.00       510.03
  356.03        2979.50           1623         112.00       488.24
  356.06        2979.75           1626         103.00       449.00
  356.09        2980.00           1629         110.00       479.52
  356.12        2980.25           1633         110.00       479.52
  356.14        2980.50           1636         112.00       488.24
  356.17        2980.75           1639         110.00       479.52
  356.20        2981.00           1643         114.00       496.96
  356.23        2981.25           1646         105.00       457.72
  356.25        2981.50           1649         107.00       466.44
  356.28        2981.75           1653         104.00       453.36
  356.31        2982.00           1656         110.00       479.52
  356.34        2982.25           1659          97.00       422.85
  356.37        2982.50           1663         105.00       457.72
  356.39        2982.75           1666         105.00       457.72
  356.42        2983.00           1669         103.00       449.00
  356.45        2983.25           1673         105.00       457.72
  356.48        2983.50           1676         100.00       435.93
  356.50        2983.75           1679         102.00       444.64
  356.53        2984.00           1683         108.00       470.80
HS scan finished at 05:56:50
end
