************************************************************
  HS Scan of (1) Internal mercury lamp
************************************************************
Integration time is 0.2294 seconds per sample
dh080217DelftKZ 51.997-4.386 2.160408pr1000
************************************************************
Dead Time -------------------------  3E-08 
Number of Cycles Used -------------  4 
Starting Wavelength (Angstroms) ---  2950 
Final Wavelength (Angstoms) -------  2984 
Wavelength Increment (Angstroms) --  .25 
Filter Wheel #1 Position ---------- (1) Ground quartz diffuser (ND=2.32)
Filter Wheel #2 Position ---------- (1) Neutral Density 0.494



************************************************************
HS scan start time = 05:49:17
Dark Count =  .1 


Time (GMT)  Wavelength (Ang)  Step Number  Raw Counts  Counts/Second

  349.73        2950.00           1229         131.00       570.63
  349.83        2950.25           1232         131.00       570.63
  349.85        2950.50           1236         126.00       548.83
  349.88        2950.75           1239         128.00       557.55
  349.91        2951.00           1242         129.00       561.91
  349.94        2951.25           1246         125.00       544.47
  349.96        2951.50           1249         121.00       527.04
  349.99        2951.75           1252         134.00       583.71
  350.02        2952.00           1255         129.00       561.91
  350.05        2952.25           1259         128.00       557.55
  350.07        2952.50           1262         121.00       527.04
  350.10        2952.75           1265         126.00       548.83
  350.13        2953.00           1269         131.00       570.63
  350.16        2953.25           1272         138.00       601.14
  350.19        2953.50           1275         129.00       561.91
  350.21        2953.75           1279         124.00       540.11
  350.24        2954.00           1282         129.00       561.91
  350.27        2954.25           1285         128.00       557.55
  350.30        2954.50           1289         128.00       557.55
  350.32        2954.75           1292         125.00       544.47
  350.35        2955.00           1295         121.00       527.04
  350.38        2955.25           1299         128.00       557.55
  350.41        2955.50           1302         121.00       527.04
  350.43        2955.75           1305         121.00       527.04
  350.46        2956.00           1309         123.00       535.75
  350.49        2956.25           1312         128.00       557.55
  350.52        2956.50           1315         130.00       566.27
  350.55        2956.75           1319         130.00       566.27
  350.58        2957.00           1322         125.00       544.47
  350.61        2957.25           1325         134.00       583.71
  350.64        2957.50           1329         119.00       518.32
  350.66        2957.75           1332         122.00       531.39
  350.69        2958.00           1335         120.00       522.68
  350.72        2958.25           1339         122.00       531.39
  350.75        2958.50           1342         117.00       509.60
  350.77        2958.75           1345         124.00       540.11
  350.80        2959.00           1349         127.00       553.19
  350.83        2959.25           1352         122.00       531.39
  350.86        2959.50           1355         127.00       553.19
  350.88        2959.75           1359         118.00       513.96
  350.91        2960.00           1362         120.00       522.68
  350.94        2960.25           1365         125.00       544.47
  350.97        2960.50           1369         128.00       557.55
  350.99        2960.75           1372         129.00       561.91
  351.02        2961.00           1375         149.00       649.10
  351.05        2961.25           1379         152.00       662.18
  351.08        2961.50           1382         194.00       845.27
  351.10        2961.75           1385         445.00      1939.52
  351.13        2962.00           1389        1671.00      7285.38
  351.16        2962.25           1392        3051.00     13304.79
  351.19        2962.50           1395        4619.00     20146.87
  351.22        2962.75           1399        7436.00     32446.13
  351.24        2963.00           1402        9495.00     41441.65
  351.27        2963.25           1405       11575.00     50533.83
  351.30        2963.50           1409       14233.00     62159.84
  351.33        2963.75           1412       16106.00     70357.16
  351.35        2964.00           1415       18197.00     79513.34
  351.38        2964.25           1419       20271.00     88600.06
  351.41        2964.50           1422       22016.00     96249.19
  351.44        2964.75           1425       23824.00    104178.20
  351.46        2965.00           1429       26082.00    114086.00
  351.49        2965.25           1432       27998.00    122497.70
  351.52        2965.50           1435       29914.00    130913.80
  351.55        2965.75           1439       32359.00    141659.60
  351.57        2966.00           1442       33997.00    148862.50
  351.60        2966.25           1445       35864.00    157076.30
  351.63        2966.50           1449       38172.00    167235.80
  351.66        2966.75           1452       39158.00    171577.90
  351.68        2967.00           1455       39635.00    173679.00
  351.72        2967.25           1459       39882.00    174767.00
  351.75        2967.50           1462       39889.00    174797.90
  351.78        2967.75           1465       39755.00    174207.60
  351.80        2968.00           1469       39222.00    171859.80
  351.83        2968.25           1472       38058.00    166733.90
  351.86        2968.50           1475       36711.00    160803.90
  351.89        2968.75           1479       34301.00    150199.70
  351.92        2969.00           1482       32665.00    143005.00
  351.95        2969.25           1485       30872.00    135123.40
  351.98        2969.50           1489       28345.00    124021.60
  352.00        2969.75           1492       26537.00    116083.20
  352.03        2970.00           1495       24980.00    109249.80
  352.06        2970.25           1499       22645.00     99007.24
  352.09        2970.50           1502       20649.00     90256.71
  352.11        2970.75           1505       18736.00     81874.36
  352.14        2971.00           1509       15823.00     69118.33
  352.17        2971.25           1512       14014.00     61201.64
  352.20        2971.50           1515       12481.00     54495.74
  352.23        2971.75           1519        9939.00     43382.07
  352.25        2972.00           1522        8320.00     36307.62
  352.28        2972.25           1525        6500.00     28358.47
  352.31        2972.50           1529        3997.00     17432.39
  352.34        2972.75           1532        2447.00     10669.94
  352.37        2973.00           1536        1058.00      4612.23
  352.39        2973.25           1539         517.00      2253.42
  352.42        2973.50           1542         191.00       832.19
  352.45        2973.75           1546         134.00       583.71
  352.48        2974.00           1549         133.00       579.35
  352.50        2974.25           1552         123.00       535.75
  352.53        2974.50           1556         118.00       513.96
  352.56        2974.75           1559         120.00       522.68
  352.59        2975.00           1562         114.00       496.52
  352.61        2975.25           1566         113.00       492.16
  352.64        2975.50           1569         107.00       466.00
  352.67        2975.75           1572         113.00       492.16
  352.70        2976.00           1576          99.00       431.13
  352.72        2976.25           1579         111.00       483.44
  352.75        2976.50           1582         103.00       448.57
  352.78        2976.75           1586         116.00       505.24
  352.81        2977.00           1589         107.00       466.00
  352.83        2977.25           1592         111.00       483.44
  352.86        2977.50           1596         104.00       452.93
  352.89        2977.75           1599         116.00       505.24
  352.92        2978.00           1602         110.00       479.08
  352.94        2978.25           1606         111.00       483.44
  352.97        2978.50           1609         104.00       452.93
  353.00        2978.75           1612         105.00       457.29
  353.03        2979.00           1616         106.00       461.65
  353.05        2979.25           1619         104.00       452.93
  353.08        2979.50           1623         100.00       435.49
  353.11        2979.75           1626         114.00       496.52
  353.14        2980.00           1629         104.00       452.93
  353.16        2980.25           1633          95.00       413.69
  353.19        2980.50           1636         108.00       470.36
  353.22        2980.75           1639         101.00       439.85
  353.25        2981.00           1643         108.00       470.36
  353.27        2981.25           1646         101.00       439.85
  353.30        2981.50           1649         105.00       457.29
  353.33        2981.75           1653         107.00       466.00
  353.36        2982.00           1656         112.00       487.80
  353.38        2982.25           1659         103.00       448.57
  353.41        2982.50           1663         110.00       479.08
  353.44        2982.75           1666         113.00       492.16
  353.47        2983.00           1669         100.00       435.49
  353.49        2983.25           1673         108.00       470.36
  353.52        2983.50           1676          97.00       422.41
  353.55        2983.75           1679          92.00       400.62
  353.58        2984.00           1683          95.00       413.69
HS scan finished at 05:53:52
end
