************************************************************
  HS Scan of (1) Internal mercury lamp
************************************************************
Integration time is 0.2294 seconds per sample
dh020217DelftKZ 51.997-4.386 2.375pr1000
************************************************************
Dead Time -------------------------  3E-08 
Number of Cycles Used -------------  4 
Starting Wavelength (Angstroms) ---  2950 
Final Wavelength (Angstoms) -------  2984 
Wavelength Increment (Angstroms) --  .25 
Filter Wheel #1 Position ---------- (1) Ground quartz diffuser (ND=2.32)
Filter Wheel #2 Position ---------- (1) Neutral Density 0.494



************************************************************
HS scan start time = 05:57:51
Dark Count =  .1 


Time (GMT)  Wavelength (Ang)  Step Number  Raw Counts  Counts/Second

  358.30        2950.00           1229         135.00       588.07
  358.40        2950.25           1232         136.00       592.43
  358.43        2950.50           1236         137.00       596.78
  358.46        2950.75           1239         126.00       548.83
  358.49        2951.00           1242         136.00       592.43
  358.51        2951.25           1246         135.00       588.07
  358.54        2951.50           1249         133.00       579.35
  358.57        2951.75           1252         135.00       588.07
  358.60        2952.00           1255         134.00       583.71
  358.63        2952.25           1259         121.00       527.04
  358.66        2952.50           1262         144.00       627.30
  358.68        2952.75           1265         133.00       579.35
  358.71        2953.00           1269         147.00       640.38
  358.74        2953.25           1272         130.00       566.27
  358.77        2953.50           1275         126.00       548.83
  358.79        2953.75           1279         126.00       548.83
  358.82        2954.00           1282         138.00       601.14
  358.85        2954.25           1285         130.00       566.27
  358.88        2954.50           1289         130.00       566.27
  358.91        2954.75           1292         130.00       566.27
  358.93        2955.00           1295         129.00       561.91
  358.96        2955.25           1299         124.00       540.11
  358.99        2955.50           1302         138.00       601.14
  359.02        2955.75           1305         118.00       513.96
  359.04        2956.00           1309         130.00       566.27
  359.07        2956.25           1312         128.00       557.55
  359.10        2956.50           1315         131.00       570.63
  359.13        2956.75           1319         124.00       540.11
  359.16        2957.00           1322         123.00       535.75
  359.18        2957.25           1325         124.00       540.11
  359.21        2957.50           1329         124.00       540.11
  359.24        2957.75           1332         126.00       548.83
  359.27        2958.00           1335         128.00       557.55
  359.30        2958.25           1339         121.00       527.04
  359.33        2958.50           1342         120.00       522.68
  359.36        2958.75           1345         129.00       561.91
  359.39        2959.00           1349         124.00       540.11
  359.42        2959.25           1352         127.00       553.19
  359.44        2959.50           1355         116.00       505.24
  359.47        2959.75           1359         134.00       583.71
  359.50        2960.00           1362         126.00       548.83
  359.53        2960.25           1365         127.00       553.19
  359.55        2960.50           1369         151.00       657.82
  359.58        2960.75           1372         147.00       640.38
  359.61        2961.00           1375         156.00       679.61
  359.64        2961.25           1379         168.00       731.93
  359.66        2961.50           1382         262.00      1141.71
  359.69        2961.75           1385         675.00      2942.28
  359.72        2962.00           1389        1966.00      8571.95
  359.75        2962.25           1392        3726.00     16249.86
  359.77        2962.50           1395        5708.00     24900.46
  359.80        2962.75           1399        9150.00     39934.04
  359.83        2963.00           1402       11702.00     51089.15
  359.86        2963.25           1405       13777.00     60164.74
  359.88        2963.50           1409       16853.00     73627.58
  359.91        2963.75           1412       19050.00     83249.95
  359.94        2964.00           1415       21670.00     94732.24
  359.97        2964.25           1419       24818.00    108539.00
  359.99        2964.50           1422       27139.00    118726.00
  360.02        2964.75           1425       29019.00    126982.00
  360.05        2965.00           1429       32018.00    140160.50
  360.08        2965.25           1432       34559.00    151334.60
  360.11        2965.50           1435       36594.00    160289.00
  360.14        2965.75           1439       39824.00    174511.50
  360.16        2966.00           1442       42479.00    186211.30
  360.19        2966.25           1445       44500.00    195122.70
  360.22        2966.50           1449       47068.00    206453.00
  360.25        2966.75           1452       48051.00    210792.20
  360.28        2967.00           1455       48562.00    213048.30
  360.30        2967.25           1459       48474.00    212659.80
  360.33        2967.50           1462       48339.00    212063.70
  360.36        2967.75           1465       48312.00    211944.50
  360.39        2968.00           1469       47209.00    207075.40
  360.41        2968.25           1472       45796.00    200839.90
  360.44        2968.50           1475       43839.00    192207.60
  360.47        2968.75           1479       41286.00    180953.10
  360.50        2969.00           1482       39303.00    172216.60
  360.52        2969.25           1485       37049.00    162291.70
  360.55        2969.50           1489       34339.00    150366.90
  360.58        2969.75           1492       31544.00    138076.90
  360.61        2970.00           1495       29510.00    129138.80
  360.64        2970.25           1499       26682.00    116719.70
  360.66        2970.50           1502       24691.00    107981.80
  360.69        2970.75           1505       22512.00     98424.02
  360.72        2971.00           1509       19227.00     84025.41
  360.75        2971.25           1512       17066.00     74560.24
  360.77        2971.50           1515       14809.00     64680.32
  360.80        2971.75           1519       11669.00     50944.85
  360.83        2972.00           1522        9747.00     42542.93
  360.86        2972.25           1525        7600.00     33162.45
  360.89        2972.50           1529        4610.00     20107.59
  360.91        2972.75           1532        2776.00     12105.09
  360.94        2973.00           1536        1264.00      5510.50
  360.97        2973.25           1539         549.00      2392.94
  361.00        2973.50           1542         215.00       936.82
  361.03        2973.75           1546         148.00       644.74
  361.06        2974.00           1549         142.00       618.58
  361.08        2974.25           1552         129.00       561.91
  361.11        2974.50           1556         127.00       553.19
  361.14        2974.75           1559         126.00       548.83
  361.17        2975.00           1562         117.00       509.60
  361.20        2975.25           1566         111.00       483.44
  361.22        2975.50           1569         115.00       500.88
  361.25        2975.75           1572         117.00       509.60
  361.28        2976.00           1576         114.00       496.52
  361.31        2976.25           1579         112.00       487.80
  361.33        2976.50           1582         116.00       505.24
  361.36        2976.75           1586         110.00       479.08
  361.39        2977.00           1589         102.00       444.21
  361.42        2977.25           1592         109.00       474.72
  361.44        2977.50           1596         116.00       505.24
  361.47        2977.75           1599         117.00       509.60
  361.50        2978.00           1602         102.00       444.21
  361.53        2978.25           1606         114.00       496.52
  361.55        2978.50           1609         109.00       474.72
  361.58        2978.75           1612         115.00       500.88
  361.61        2979.00           1616         101.00       439.85
  361.64        2979.25           1619         113.00       492.16
  361.66        2979.50           1623         109.00       474.72
  361.69        2979.75           1626         116.00       505.24
  361.72        2980.00           1629         113.00       492.16
  361.75        2980.25           1633         113.00       492.16
  361.77        2980.50           1636         114.00       496.52
  361.80        2980.75           1639         106.00       461.65
  361.83        2981.00           1643         102.00       444.21
  361.86        2981.25           1646         110.00       479.08
  361.88        2981.50           1649         110.00       479.08
  361.91        2981.75           1653         100.00       435.49
  361.94        2982.00           1656          99.00       431.13
  361.97        2982.25           1659         109.00       474.72
  362.00        2982.50           1663         104.00       452.93
  362.02        2982.75           1666         110.00       479.08
  362.05        2983.00           1669         106.00       461.65
  362.08        2983.25           1673         108.00       470.36
  362.11        2983.50           1676         105.00       457.29
  362.13        2983.75           1679         112.00       487.80
  362.16        2984.00           1683         106.00       461.65
HS scan finished at 06:02:28
end
