************************************************************
  HS Scan of (1) Internal mercury lamp
************************************************************
Integration time is 0.2294 seconds per sample
dh040217DelftKZ 51.997-4.386 2.267704pr1000
************************************************************
Dead Time -------------------------  3E-08 
Number of Cycles Used -------------  4 
Starting Wavelength (Angstroms) ---  2950 
Final Wavelength (Angstoms) -------  2984 
Wavelength Increment (Angstroms) --  .25 
Filter Wheel #1 Position ---------- (1) Ground quartz diffuser (ND=2.32)
Filter Wheel #2 Position ---------- (1) Neutral Density 0.494



************************************************************
HS scan start time = 05:55:02
Dark Count =  .1 


Time (GMT)  Wavelength (Ang)  Step Number  Raw Counts  Counts/Second

  355.48        2950.00           1229         143.00       622.94
  355.58        2950.25           1232         127.00       553.19
  355.61        2950.50           1236         126.00       548.83
  355.64        2950.75           1239         119.00       518.32
  355.66        2951.00           1242         129.00       561.91
  355.69        2951.25           1246         136.00       592.43
  355.72        2951.50           1249         139.00       605.50
  355.75        2951.75           1252         134.00       583.71
  355.78        2952.00           1255         121.00       527.04
  355.80        2952.25           1259         139.00       605.50
  355.83        2952.50           1262         136.00       592.43
  355.86        2952.75           1265         127.00       553.19
  355.89        2953.00           1269         131.00       570.63
  355.91        2953.25           1272         132.00       574.99
  355.94        2953.50           1275         124.00       540.11
  355.97        2953.75           1279         131.00       570.63
  356.00        2954.00           1282         134.00       583.71
  356.03        2954.25           1285         134.00       583.71
  356.05        2954.50           1289         123.00       535.75
  356.08        2954.75           1292         130.00       566.27
  356.11        2955.00           1295         124.00       540.11
  356.14        2955.25           1299         125.00       544.47
  356.16        2955.50           1302         131.00       570.63
  356.19        2955.75           1305         127.00       553.19
  356.22        2956.00           1309         128.00       557.55
  356.25        2956.25           1312         123.00       535.75
  356.27        2956.50           1315         112.00       487.80
  356.30        2956.75           1319         134.00       583.71
  356.33        2957.00           1322         134.00       583.71
  356.36        2957.25           1325         125.00       544.47
  356.38        2957.50           1329         135.00       588.07
  356.41        2957.75           1332         138.00       601.14
  356.44        2958.00           1335         119.00       518.32
  356.47        2958.25           1339         124.00       540.11
  356.49        2958.50           1342         121.00       527.04
  356.52        2958.75           1345         131.00       570.63
  356.55        2959.00           1349         129.00       561.91
  356.58        2959.25           1352         122.00       531.39
  356.61        2959.50           1355         125.00       544.47
  356.64        2959.75           1359         119.00       518.32
  356.67        2960.00           1362         124.00       540.11
  356.70        2960.25           1365         138.00       601.14
  356.74        2960.50           1369         138.00       601.14
  356.76        2960.75           1372         153.00       666.53
  356.79        2961.00           1375         147.00       640.38
  356.82        2961.25           1379         155.00       675.25
  356.84        2961.50           1382         239.00      1041.44
  356.87        2961.75           1385         780.00      3400.09
  356.90        2962.00           1389        2140.00      9330.86
  356.93        2962.25           1392        3632.00     15839.70
  356.96        2962.50           1395        5442.00     23739.22
  356.98        2962.75           1399        8293.00     36189.67
  357.01        2963.00           1402       10622.00     46367.42
  357.04        2963.25           1405       12814.00     55952.17
  357.07        2963.50           1409       15229.00     66518.40
  357.09        2963.75           1412       16976.00     74166.15
  357.13        2964.00           1415       19303.00     84358.38
  357.16        2964.25           1419       22146.00     96819.18
  357.18        2964.50           1422       24020.00    105038.00
  357.21        2964.75           1425       26417.00    115556.40
  357.24        2965.00           1429       29187.00    127719.90
  357.27        2965.25           1432       31220.00    136652.80
  357.29        2965.50           1435       33147.00    145124.40
  357.32        2965.75           1439       35763.00    156631.80
  357.35        2966.00           1442       37646.00    164919.90
  357.38        2966.25           1445       39717.00    174040.20
  357.40        2966.50           1449       41514.00    181957.90
  357.43        2966.75           1452       42367.00    185717.60
  357.46        2967.00           1455       42819.00    187710.10
  357.49        2967.25           1459       42667.00    187040.00
  357.52        2967.50           1462       42673.00    187066.50
  357.54        2967.75           1465       42660.00    187009.20
  357.57        2968.00           1469       41720.00    182865.80
  357.60        2968.25           1472       40063.00    175564.40
  357.63        2968.50           1475       38568.00    168979.60
  357.65        2968.75           1479       36254.00    158792.60
  357.68        2969.00           1482       34477.00    150973.90
  357.71        2969.25           1485       32978.00    144381.20
  357.74        2969.50           1489       30183.00    132095.70
  357.76        2969.75           1492       28176.00    123279.40
  357.79        2970.00           1495       26075.00    114055.20
  357.82        2970.25           1499       23215.00    101507.00
  357.85        2970.50           1502       20988.00     91742.57
  357.88        2970.75           1505       19016.00     83101.00
  357.90        2971.00           1509       16623.00     72620.55
  357.93        2971.25           1512       14681.00     64120.18
  357.96        2971.50           1515       12677.00     55352.96
  357.99        2971.75           1519       10189.00     44474.74
  358.01        2972.00           1522        8620.00     37618.28
  358.04        2972.25           1525        6845.00     29865.02
  358.07        2972.50           1529        4243.00     18505.91
  358.10        2972.75           1532        2445.00     10661.21
  358.13        2973.00           1536         747.00      3256.20
  358.15        2973.25           1539         302.00      1316.09
  358.18        2973.50           1542         180.00       784.24
  358.21        2973.75           1546         148.00       644.74
  358.24        2974.00           1549         133.00       579.35
  358.26        2974.25           1552         127.00       553.19
  358.29        2974.50           1556         124.00       540.11
  358.32        2974.75           1559         122.00       531.39
  358.35        2975.00           1562         115.00       500.88
  358.37        2975.25           1566         110.00       479.08
  358.40        2975.50           1569         119.00       518.32
  358.43        2975.75           1572         113.00       492.16
  358.46        2976.00           1576         113.00       492.16
  358.48        2976.25           1579         110.00       479.08
  358.51        2976.50           1582         107.00       466.00
  358.54        2976.75           1586          99.00       431.13
  358.57        2977.00           1589         110.00       479.08
  358.59        2977.25           1592         111.00       483.44
  358.62        2977.50           1596         105.00       457.29
  358.65        2977.75           1599         108.00       470.36
  358.68        2978.00           1602         111.00       483.44
  358.70        2978.25           1606         103.00       448.57
  358.73        2978.50           1609         105.00       457.29
  358.76        2978.75           1612         107.00       466.00
  358.79        2979.00           1616         106.00       461.65
  358.81        2979.25           1619         112.00       487.80
  358.84        2979.50           1623         111.00       483.44
  358.87        2979.75           1626         109.00       474.72
  358.90        2980.00           1629         105.00       457.29
  358.93        2980.25           1633         102.00       444.21
  358.95        2980.50           1636         106.00       461.65
  358.98        2980.75           1639         116.00       505.24
  359.01        2981.00           1643         107.00       466.00
  359.04        2981.25           1646         105.00       457.29
  359.06        2981.50           1649         104.00       452.93
  359.09        2981.75           1653         108.00       470.36
  359.12        2982.00           1656         108.00       470.36
  359.15        2982.25           1659         101.00       439.85
  359.17        2982.50           1663         107.00       466.00
  359.20        2982.75           1666         102.00       444.21
  359.23        2983.00           1669         103.00       448.57
  359.26        2983.25           1673          99.00       431.13
  359.29        2983.50           1676         102.00       444.21
  359.31        2983.75           1679         111.00       483.44
  359.34        2984.00           1683         109.00       474.72
HS scan finished at 05:59:38
end
