************************************************************
  HS Scan of (1) Internal mercury lamp
************************************************************
Integration time is 0.2294 seconds per sample
dh300117DelftKZ 51.997-4.386 2.321352pr1000
************************************************************
Dead Time -------------------------  3E-08 
Number of Cycles Used -------------  4 
Starting Wavelength (Angstroms) ---  2950 
Final Wavelength (Angstoms) -------  2984 
Wavelength Increment (Angstroms) --  .25 
Filter Wheel #1 Position ---------- (1) Ground quartz diffuser (ND=2.32)
Filter Wheel #2 Position ---------- (1) Neutral Density 0.494



************************************************************
HS scan start time = 06:01:41
Dark Count =  .1 


Time (GMT)  Wavelength (Ang)  Step Number  Raw Counts  Counts/Second

  362.13        2950.00           1229         134.00       583.71
  362.23        2950.25           1232         120.00       522.68
  362.26        2950.50           1236         133.00       579.35
  362.29        2950.75           1239         131.00       570.63
  362.32        2951.00           1242         140.00       609.86
  362.35        2951.25           1246         124.00       540.11
  362.38        2951.50           1249         137.00       596.78
  362.40        2951.75           1252         124.00       540.11
  362.43        2952.00           1255         127.00       553.19
  362.46        2952.25           1259         123.00       535.75
  362.49        2952.50           1262         136.00       592.43
  362.51        2952.75           1265         136.00       592.43
  362.54        2953.00           1269         133.00       579.35
  362.57        2953.25           1272         137.00       596.78
  362.60        2953.50           1275         136.00       592.43
  362.62        2953.75           1279         126.00       548.83
  362.65        2954.00           1282         133.00       579.35
  362.68        2954.25           1285         132.00       574.99
  362.71        2954.50           1289         123.00       535.75
  362.74        2954.75           1292         122.00       531.39
  362.77        2955.00           1295         127.00       553.19
  362.79        2955.25           1299         137.00       596.78
  362.82        2955.50           1302         115.00       500.88
  362.85        2955.75           1305         135.00       588.07
  362.88        2956.00           1309         123.00       535.75
  362.91        2956.25           1312         124.00       540.11
  362.93        2956.50           1315         119.00       518.32
  362.96        2956.75           1319         128.00       557.55
  362.99        2957.00           1322         127.00       553.19
  363.02        2957.25           1325         123.00       535.75
  363.04        2957.50           1329         118.00       513.96
  363.07        2957.75           1332         136.00       592.43
  363.10        2958.00           1335         126.00       548.83
  363.13        2958.25           1339         123.00       535.75
  363.15        2958.50           1342         138.00       601.14
  363.18        2958.75           1345         133.00       579.35
  363.21        2959.00           1349         130.00       566.27
  363.24        2959.25           1352         118.00       513.96
  363.26        2959.50           1355         127.00       553.19
  363.29        2959.75           1359         121.00       527.04
  363.32        2960.00           1362         129.00       561.91
  363.35        2960.25           1365         142.00       618.58
  363.38        2960.50           1369         143.00       622.94
  363.40        2960.75           1372         141.00       614.22
  363.43        2961.00           1375         158.00       688.33
  363.46        2961.25           1379         177.00       771.16
  363.49        2961.50           1382         218.00       949.90
  363.51        2961.75           1385         550.00      2397.30
  363.54        2962.00           1389        1868.00      8144.54
  363.57        2962.25           1392        3528.00     15385.92
  363.60        2962.50           1395        5636.00     24586.13
  363.63        2962.75           1399        8613.00     37587.70
  363.66        2963.00           1402       10569.00     46135.74
  363.68        2963.25           1405       12908.00     56363.32
  363.71        2963.50           1409       15999.00     69888.76
  363.74        2963.75           1412       18572.00     81155.94
  363.77        2964.00           1415       20505.00     89625.58
  363.80        2964.25           1419       23051.00    100787.70
  363.82        2964.50           1422       25144.00    109969.40
  363.85        2964.75           1425       27820.00    121716.10
  363.88        2965.00           1429       30675.00    134257.60
  363.91        2965.25           1432       32547.00    142486.20
  363.93        2965.50           1435       35093.00    153683.80
  363.96        2965.75           1439       38006.00    166504.90
  363.99        2966.00           1442       40004.00    175304.50
  364.02        2966.25           1445       42208.00    185016.70
  364.04        2966.50           1449       44708.00    196040.10
  364.07        2966.75           1452       45380.00    199004.50
  364.10        2967.00           1455       45772.00    200734.00
  364.13        2967.25           1459       45873.00    201179.60
  364.16        2967.50           1462       45917.00    201373.70
  364.18        2967.75           1465       45719.00    200500.10
  364.21        2968.00           1469       44672.00    195881.40
  364.24        2968.25           1472       43238.00    189557.50
  364.27        2968.50           1475       41549.00    182112.10
  364.29        2968.75           1479       39117.00    171397.40
  364.32        2969.00           1482       36946.00    161838.30
  364.35        2969.25           1485       35039.00    153446.30
  364.38        2969.50           1489       31981.00    139997.80
  364.40        2969.75           1492       30151.00    131955.10
  364.43        2970.00           1495       28643.00    125330.40
  364.46        2970.25           1499       25412.00    111145.50
  364.49        2970.50           1502       23285.00    101814.00
  364.52        2970.75           1505       21018.00     91874.06
  364.54        2971.00           1509       18319.00     80047.71
  364.57        2971.25           1512       15961.00     69722.41
  364.60        2971.50           1515       13985.00     61074.75
  364.63        2971.75           1519       11407.00     49799.28
  364.66        2972.00           1522        9162.00     39986.48
  364.68        2972.25           1525        7192.00     31380.45
  364.71        2972.50           1529        4687.00     20443.66
  364.74        2972.75           1532        3110.00     13562.19
  364.77        2973.00           1536        1233.00      5375.32
  364.79        2973.25           1539         518.00      2257.78
  364.82        2973.50           1542         201.00       875.79
  364.85        2973.75           1546         154.00       670.89
  364.88        2974.00           1549         141.00       614.22
  364.91        2974.25           1552         133.00       579.35
  364.94        2974.50           1556         130.00       566.27
  364.97        2974.75           1559         115.00       500.88
  364.99        2975.00           1562         117.00       509.60
  365.03        2975.25           1566         110.00       479.08
  365.06        2975.50           1569         116.00       505.24
  365.08        2975.75           1572         117.00       509.60
  365.11        2976.00           1576         118.00       513.96
  365.14        2976.25           1579         110.00       479.08
  365.16        2976.50           1582          98.00       426.77
  365.19        2976.75           1586         114.00       496.52
  365.22        2977.00           1589         106.00       461.65
  365.25        2977.25           1592         111.00       483.44
  365.28        2977.50           1596         104.00       452.93
  365.30        2977.75           1599         105.00       457.29
  365.33        2978.00           1602         115.00       500.88
  365.36        2978.25           1606         122.00       531.39
  365.38        2978.50           1609         108.00       470.36
  365.41        2978.75           1612         107.00       466.00
  365.44        2979.00           1616         101.00       439.85
  365.47        2979.25           1619         116.00       505.24
  365.49        2979.50           1623         107.00       466.00
  365.52        2979.75           1626         116.00       505.24
  365.55        2980.00           1629         103.00       448.57
  365.58        2980.25           1633         111.00       483.44
  365.60        2980.50           1636         106.00       461.65
  365.63        2980.75           1639         114.00       496.52
  365.66        2981.00           1643         108.00       470.36
  365.69        2981.25           1646         107.00       466.00
  365.72        2981.50           1649         109.00       474.72
  365.75        2981.75           1653         100.00       435.49
  365.78        2982.00           1656         102.00       444.21
  365.81        2982.25           1659         105.00       457.29
  365.84        2982.50           1663         110.00       479.08
  365.86        2982.75           1666         100.00       435.49
  365.89        2983.00           1669         102.00       444.21
  365.92        2983.25           1673         105.00       457.29
  365.95        2983.50           1676          99.00       431.13
  365.98        2983.75           1679         108.00       470.36
  366.00        2984.00           1683         103.00       448.57
HS scan finished at 06:06:18
end
