************************************************************
  HS Scan of (1) Internal mercury lamp
************************************************************
Integration time is 0.2294 seconds per sample
dh310117DelftKZ 51.997-4.386 2.214056pr1000
************************************************************
Dead Time -------------------------  3E-08 
Number of Cycles Used -------------  4 
Starting Wavelength (Angstroms) ---  2950 
Final Wavelength (Angstoms) -------  2984 
Wavelength Increment (Angstroms) --  .25 
Filter Wheel #1 Position ---------- (1) Ground quartz diffuser (ND=2.32)
Filter Wheel #2 Position ---------- (1) Neutral Density 0.494



************************************************************
HS scan start time = 06:00:26
Dark Count =  0 


Time (GMT)  Wavelength (Ang)  Step Number  Raw Counts  Counts/Second

  360.89        2950.00           1229         123.00       536.19
  360.99        2950.25           1232         127.00       553.63
  361.02        2950.50           1236         129.00       562.35
  361.04        2950.75           1239         144.00       627.74
  361.07        2951.00           1242         124.00       540.55
  361.10        2951.25           1246         129.00       562.35
  361.13        2951.50           1249         137.00       597.22
  361.16        2951.75           1252         131.00       571.06
  361.19        2952.00           1255         130.00       566.71
  361.21        2952.25           1259         134.00       584.14
  361.24        2952.50           1262         130.00       566.71
  361.27        2952.75           1265         130.00       566.71
  361.30        2953.00           1269         135.00       588.50
  361.33        2953.25           1272         131.00       571.06
  361.35        2953.50           1275         130.00       566.71
  361.38        2953.75           1279         129.00       562.35
  361.41        2954.00           1282         127.00       553.63
  361.44        2954.25           1285         137.00       597.22
  361.46        2954.50           1289         126.00       549.27
  361.49        2954.75           1292         127.00       553.63
  361.52        2955.00           1295         125.00       544.91
  361.55        2955.25           1299         132.00       575.42
  361.57        2955.50           1302         125.00       544.91
  361.60        2955.75           1305         134.00       584.14
  361.63        2956.00           1309         124.00       540.55
  361.66        2956.25           1312         125.00       544.91
  361.68        2956.50           1315         123.00       536.19
  361.71        2956.75           1319         125.00       544.91
  361.74        2957.00           1322         132.00       575.42
  361.77        2957.25           1325         119.00       518.75
  361.80        2957.50           1329         125.00       544.91
  361.82        2957.75           1332         131.00       571.06
  361.85        2958.00           1335         124.00       540.55
  361.88        2958.25           1339         128.00       557.99
  361.91        2958.50           1342         123.00       536.19
  361.93        2958.75           1345         127.00       553.63
  361.96        2959.00           1349         126.00       549.27
  361.99        2959.25           1352         130.00       566.71
  362.02        2959.50           1355         129.00       562.35
  362.04        2959.75           1359         117.00       510.03
  362.07        2960.00           1362         123.00       536.19
  362.10        2960.25           1365         129.00       562.35
  362.13        2960.50           1369         139.00       605.94
  362.15        2960.75           1372         140.00       610.30
  362.18        2961.00           1375         143.00       623.38
  362.21        2961.25           1379         162.00       706.21
  362.24        2961.50           1382         291.00      1268.57
  362.27        2961.75           1385         768.00      3348.20
  362.29        2962.00           1389        2091.00      9117.58
  362.32        2962.25           1392        3789.00     16525.19
  362.35        2962.50           1395        5810.00     25346.21
  362.38        2962.75           1399        8512.00     37146.87
  362.40        2963.00           1402       10477.00     45734.02
  362.43        2963.25           1405       12500.00     54579.28
  362.46        2963.50           1409       15384.00     67197.24
  362.49        2963.75           1412       17384.00     75953.16
  362.52        2964.00           1415       19338.00     84512.18
  362.54        2964.25           1419       22513.00     98428.84
  362.57        2964.50           1422       24641.00    107762.80
  362.60        2964.75           1425       26443.00    115671.00
  362.63        2965.00           1429       29197.00    127764.30
  362.65        2965.25           1432       31050.00    135906.10
  362.68        2965.50           1435       32941.00    144219.00
  362.71        2965.75           1439       35568.00    155774.20
  362.74        2966.00           1442       36980.00    161988.40
  362.77        2966.25           1445       39182.00    171684.10
  362.79        2966.50           1449       41311.00    181063.70
  362.82        2966.75           1452       42202.00    184990.70
  362.85        2967.00           1455       42540.00    186480.60
  362.88        2967.25           1459       42558.00    186560.00
  362.90        2967.50           1462       42579.00    186652.60
  362.93        2967.75           1465       42377.00    185762.10
  362.96        2968.00           1469       41286.00    180953.50
  362.99        2968.25           1472       39970.00    175155.10
  363.01        2968.50           1475       38673.00    169442.40
  363.04        2968.75           1479       36365.00    159281.50
  363.07        2969.00           1482       34512.00    151128.30
  363.10        2969.25           1485       32658.00    142974.60
  363.12        2969.50           1489       29938.00    131019.60
  363.15        2969.75           1492       27869.00    121931.70
  363.18        2970.00           1495       25519.00    111615.50
  363.21        2970.25           1499       22932.00    100266.30
  363.24        2970.50           1502       21105.00     92255.85
  363.26        2970.75           1505       18943.00     82781.63
  363.29        2971.00           1509       16355.00     71447.68
  363.32        2971.25           1512       14344.00     62645.96
  363.35        2971.50           1515       13011.00     56814.28
  363.37        2971.75           1519       10396.00     45379.96
  363.40        2972.00           1522        8364.00     36500.28
  363.43        2972.25           1525        6323.00     27586.03
  363.46        2972.50           1529        3380.00     14740.61
  363.49        2972.75           1532        1902.00      8293.26
  363.51        2973.00           1536         715.00      3117.12
  363.54        2973.25           1539         284.00      1238.06
  363.57        2973.50           1542         161.00       701.85
  363.60        2973.75           1546         139.00       605.94
  363.63        2974.00           1549         138.00       601.58
  363.66        2974.25           1552         121.00       527.47
  363.69        2974.50           1556         121.00       527.47
  363.71        2974.75           1559         106.00       462.08
  363.74        2975.00           1562         112.00       488.24
  363.77        2975.25           1566         125.00       544.91
  363.80        2975.50           1569         110.00       479.52
  363.83        2975.75           1572         129.00       562.35
  363.85        2976.00           1576         104.00       453.36
  363.88        2976.25           1579         111.00       483.88
  363.91        2976.50           1582         107.00       466.44
  363.94        2976.75           1586         114.00       496.96
  363.96        2977.00           1589         111.00       483.88
  363.99        2977.25           1592         109.00       475.16
  364.02        2977.50           1596         104.00       453.36
  364.05        2977.75           1599         102.00       444.64
  364.07        2978.00           1602         106.00       462.08
  364.10        2978.25           1606         105.00       457.72
  364.13        2978.50           1609         107.00       466.44
  364.16        2978.75           1612         109.00       475.16
  364.18        2979.00           1616         105.00       457.72
  364.21        2979.25           1619         103.00       449.00
  364.24        2979.50           1623         106.00       462.08
  364.27        2979.75           1626         109.00       475.16
  364.29        2980.00           1629         110.00       479.52
  364.32        2980.25           1633         105.00       457.72
  364.35        2980.50           1636         112.00       488.24
  364.38        2980.75           1639          97.00       422.85
  364.40        2981.00           1643         101.00       440.28
  364.43        2981.25           1646         108.00       470.80
  364.46        2981.50           1649         108.00       470.80
  364.49        2981.75           1653         110.00       479.52
  364.52        2982.00           1656         105.00       457.72
  364.54        2982.25           1659         100.00       435.93
  364.57        2982.50           1663         102.00       444.64
  364.60        2982.75           1666         107.00       466.44
  364.63        2983.00           1669          99.00       431.57
  364.65        2983.25           1673         104.00       453.36
  364.68        2983.50           1676         107.00       466.44
  364.71        2983.75           1679         106.00       462.08
  364.74        2984.00           1683         103.00       449.00
HS scan finished at 06:05:02
end
