************************************************************
  HS Scan of (1) Internal mercury lamp
************************************************************
Integration time is 0.2294 seconds per sample
dh070217DelftKZ 51.997-4.386 2.214056pr1000
************************************************************
Dead Time -------------------------  3E-08 
Number of Cycles Used -------------  4 
Starting Wavelength (Angstroms) ---  2950 
Final Wavelength (Angstoms) -------  2984 
Wavelength Increment (Angstroms) --  .25 
Filter Wheel #1 Position ---------- (1) Ground quartz diffuser (ND=2.32)
Filter Wheel #2 Position ---------- (1) Neutral Density 0.494



************************************************************
HS scan start time = 05:50:45
Dark Count =  0 


Time (GMT)  Wavelength (Ang)  Step Number  Raw Counts  Counts/Second

  351.20        2950.00           1229         135.00       588.50
  351.30        2950.25           1232         129.00       562.35
  351.33        2950.50           1236         135.00       588.50
  351.36        2950.75           1239         143.00       623.38
  351.39        2951.00           1242         130.00       566.71
  351.42        2951.25           1246         127.00       553.63
  351.44        2951.50           1249         133.00       579.78
  351.47        2951.75           1252         131.00       571.06
  351.50        2952.00           1255         139.00       605.94
  351.53        2952.25           1259         135.00       588.50
  351.55        2952.50           1262         145.00       632.10
  351.58        2952.75           1265         128.00       557.99
  351.61        2953.00           1269         121.00       527.47
  351.64        2953.25           1272         130.00       566.71
  351.67        2953.50           1275         122.00       531.83
  351.70        2953.75           1279         136.00       592.86
  351.73        2954.00           1282         124.00       540.55
  351.75        2954.25           1285         120.00       523.11
  351.78        2954.50           1289         127.00       553.63
  351.81        2954.75           1292         126.00       549.27
  351.84        2955.00           1295         133.00       579.78
  351.86        2955.25           1299         131.00       571.06
  351.89        2955.50           1302         122.00       531.83
  351.92        2955.75           1305         128.00       557.99
  351.95        2956.00           1309         129.00       562.35
  351.97        2956.25           1312         116.00       505.67
  352.00        2956.50           1315         127.00       553.63
  352.03        2956.75           1319         143.00       623.38
  352.06        2957.00           1322         126.00       549.27
  352.09        2957.25           1325         122.00       531.83
  352.11        2957.50           1329         120.00       523.11
  352.14        2957.75           1332         121.00       527.47
  352.17        2958.00           1335         130.00       566.71
  352.20        2958.25           1339         124.00       540.55
  352.22        2958.50           1342         117.00       510.03
  352.25        2958.75           1345         133.00       579.78
  352.28        2959.00           1349         110.00       479.52
  352.31        2959.25           1352         124.00       540.55
  352.33        2959.50           1355         132.00       575.42
  352.36        2959.75           1359         118.00       514.39
  352.39        2960.00           1362         134.00       584.14
  352.42        2960.25           1365         135.00       588.50
  352.45        2960.50           1369         134.00       584.14
  352.48        2960.75           1372         143.00       623.38
  352.51        2961.00           1375         147.00       640.81
  352.54        2961.25           1379         156.00       680.05
  352.57        2961.50           1382         194.00       845.71
  352.60        2961.75           1385         490.00      2136.14
  352.63        2962.00           1389        1932.00      8424.10
  352.65        2962.25           1392        3400.00     14827.87
  352.68        2962.50           1395        4658.00     20317.53
  352.71        2962.75           1399        7113.00     31035.86
  352.74        2963.00           1402        9531.00     41599.40
  352.76        2963.25           1405       11631.00     50779.13
  352.79        2963.50           1409       14411.00     62939.13
  352.82        2963.75           1412       16158.00     70585.24
  352.85        2964.00           1415       18002.00     78659.69
  352.88        2964.25           1419       20682.00     90401.77
  352.90        2964.50           1422       22814.00     99748.79
  352.93        2964.75           1425       24703.00    108034.90
  352.96        2965.00           1429       27305.00    119455.20
  352.99        2965.25           1432       29603.00    129547.80
  353.02        2965.50           1435       31369.00    137308.10
  353.04        2965.75           1439       33851.00    148220.90
  353.07        2966.00           1442       35639.00    156086.60
  353.10        2966.25           1445       37744.00    165351.80
  353.13        2966.50           1449       39710.00    174009.80
  353.15        2966.75           1452       40622.00    178027.60
  353.18        2967.00           1455       41038.00    179860.70
  353.21        2967.25           1459       41052.00    179922.30
  353.24        2967.50           1462       41036.00    179851.90
  353.26        2967.75           1465       40859.00    179071.90
  353.29        2968.00           1469       39943.00    175036.20
  353.32        2968.25           1472       39067.00    171177.60
  353.35        2968.50           1475       37346.00    163599.60
  353.38        2968.75           1479       35265.00    154441.00
  353.40        2969.00           1482       33293.00    145766.80
  353.43        2969.25           1485       31467.00    137738.90
  353.46        2969.50           1489       29070.00    127206.40
  353.49        2969.75           1492       27229.00    119121.60
  353.51        2970.00           1495       25415.00    111159.10
  353.54        2970.25           1499       22638.00     98976.98
  353.57        2970.50           1502       20794.00     90892.68
  353.60        2970.75           1505       18697.00     81703.95
  353.62        2971.00           1509       16248.00     70979.24
  353.65        2971.25           1512       14493.00     63297.95
  353.68        2971.50           1515       12693.00     55423.38
  353.71        2971.75           1519       10078.00     43990.01
  353.74        2972.00           1522        8237.00     35945.46
  353.76        2972.25           1525        6809.00     29708.25
  353.79        2972.50           1529        4571.00     19937.82
  353.82        2972.75           1532        2869.00     12511.24
  353.85        2973.00           1536        1115.00      4861.21
  353.87        2973.25           1539         449.00      1957.39
  353.90        2973.50           1542         187.00       815.19
  353.93        2973.75           1546         142.00       619.02
  353.96        2974.00           1549         134.00       584.14
  353.98        2974.25           1552         117.00       510.03
  354.01        2974.50           1556         113.00       492.60
  354.04        2974.75           1559         118.00       514.39
  354.07        2975.00           1562         104.00       453.36
  354.10        2975.25           1566         113.00       492.60
  354.12        2975.50           1569         110.00       479.52
  354.15        2975.75           1572         103.00       449.00
  354.18        2976.00           1576         112.00       488.24
  354.21        2976.25           1579         124.00       540.55
  354.23        2976.50           1582         113.00       492.60
  354.26        2976.75           1586         110.00       479.52
  354.29        2977.00           1589         107.00       466.44
  354.32        2977.25           1592         120.00       523.11
  354.34        2977.50           1596         109.00       475.16
  354.37        2977.75           1599         110.00       479.52
  354.40        2978.00           1602         117.00       510.03
  354.43        2978.25           1606         106.00       462.08
  354.45        2978.50           1609         104.00       453.36
  354.48        2978.75           1612         108.00       470.80
  354.51        2979.00           1616          98.00       427.21
  354.54        2979.25           1619         106.00       462.08
  354.56        2979.50           1623         105.00       457.72
  354.59        2979.75           1626         115.00       501.32
  354.62        2980.00           1629         107.00       466.44
  354.65        2980.25           1633         108.00       470.80
  354.67        2980.50           1636         109.00       475.16
  354.70        2980.75           1639         111.00       483.88
  354.73        2981.00           1643         109.00       475.16
  354.76        2981.25           1646         101.00       440.28
  354.78        2981.50           1649         110.00       479.52
  354.81        2981.75           1653         111.00       483.88
  354.84        2982.00           1656         110.00       479.52
  354.87        2982.25           1659         101.00       440.28
  354.90        2982.50           1663         104.00       453.36
  354.92        2982.75           1666         112.00       488.24
  354.95        2983.00           1669         111.00       483.88
  354.98        2983.25           1673         108.00       470.80
  355.00        2983.50           1676         111.00       483.88
  355.03        2983.75           1679         106.00       462.08
  355.06        2984.00           1683          97.00       422.85
HS scan finished at 05:55:21
end
