************************************************************
  HS Scan of (1) Internal mercury lamp
************************************************************
Integration time is 0.2294 seconds per sample
dh130217DelftKZ 51.997-4.386 2.160408pr1000
************************************************************
Dead Time -------------------------  3E-08 
Number of Cycles Used -------------  4 
Starting Wavelength (Angstroms) ---  2950 
Final Wavelength (Angstoms) -------  2984 
Wavelength Increment (Angstroms) --  .25 
Filter Wheel #1 Position ---------- (1) Ground quartz diffuser (ND=2.32)
Filter Wheel #2 Position ---------- (1) Neutral Density 0.494



************************************************************
HS scan start time = 05:41:03
Dark Count =  0 


Time (GMT)  Wavelength (Ang)  Step Number  Raw Counts  Counts/Second

  341.50        2950.00           1229         131.00       571.06
  341.60        2950.25           1232         125.00       544.91
  341.63        2950.50           1236         128.00       557.99
  341.65        2950.75           1239         132.00       575.42
  341.68        2951.00           1242         123.00       536.19
  341.71        2951.25           1246         125.00       544.91
  341.74        2951.50           1249         126.00       549.27
  341.77        2951.75           1252         121.00       527.47
  341.80        2952.00           1255         133.00       579.78
  341.82        2952.25           1259         130.00       566.71
  341.85        2952.50           1262         119.00       518.75
  341.88        2952.75           1265         125.00       544.91
  341.91        2953.00           1269         135.00       588.50
  341.93        2953.25           1272         124.00       540.55
  341.96        2953.50           1275         125.00       544.91
  341.99        2953.75           1279         129.00       562.35
  342.02        2954.00           1282         138.00       601.58
  342.04        2954.25           1285         132.00       575.42
  342.07        2954.50           1289         124.00       540.55
  342.10        2954.75           1292         137.00       597.22
  342.13        2955.00           1295         129.00       562.35
  342.16        2955.25           1299         120.00       523.11
  342.18        2955.50           1302         137.00       597.22
  342.21        2955.75           1305         123.00       536.19
  342.24        2956.00           1309         122.00       531.83
  342.27        2956.25           1312         128.00       557.99
  342.29        2956.50           1315         130.00       566.71
  342.32        2956.75           1319         129.00       562.35
  342.35        2957.00           1322         123.00       536.19
  342.38        2957.25           1325         121.00       527.47
  342.40        2957.50           1329         134.00       584.14
  342.43        2957.75           1332         120.00       523.11
  342.46        2958.00           1335         118.00       514.39
  342.49        2958.25           1339         124.00       540.55
  342.51        2958.50           1342         122.00       531.83
  342.54        2958.75           1345         128.00       557.99
  342.57        2959.00           1349         121.00       527.47
  342.60        2959.25           1352         124.00       540.55
  342.63        2959.50           1355         116.00       505.67
  342.65        2959.75           1359         129.00       562.35
  342.68        2960.00           1362         131.00       571.06
  342.71        2960.25           1365         131.00       571.06
  342.74        2960.50           1369         141.00       614.66
  342.76        2960.75           1372         146.00       636.46
  342.79        2961.00           1375         140.00       610.30
  342.82        2961.25           1379         168.00       732.36
  342.85        2961.50           1382         201.00       876.22
  342.87        2961.75           1385         590.00      2572.13
  342.90        2962.00           1389        1833.00      7992.33
  342.93        2962.25           1392        3274.00     14278.13
  342.96        2962.50           1395        5243.00     22870.96
  342.98        2962.75           1399        7883.00     34399.04
  343.01        2963.00           1402       10073.00     43968.16
  343.04        2963.25           1405       11979.00     52300.83
  343.07        2963.50           1409       14607.00     63796.79
  343.09        2963.75           1412       16508.00     72117.50
  343.12        2964.00           1415       18106.00     79115.20
  343.15        2964.25           1419       20157.00     88100.90
  343.18        2964.50           1422       22235.00     97209.84
  343.20        2964.75           1425       24333.00    106411.50
  343.23        2965.00           1429       26618.00    116439.20
  343.26        2965.25           1432       28542.00    124887.30
  343.29        2965.50           1435       30150.00    131951.10
  343.32        2965.75           1439       32656.00    142965.90
  343.34        2966.00           1442       34461.00    150903.90
  343.37        2966.25           1445       36512.00    159928.50
  343.40        2966.50           1449       38921.00    170534.60
  343.43        2966.75           1452       39634.00    173675.00
  343.45        2967.00           1455       40152.00    175956.90
  343.48        2967.25           1459       40145.00    175926.10
  343.51        2967.50           1462       40306.00    176635.40
  343.54        2967.75           1465       40403.00    177062.70
  343.56        2968.00           1469       39367.00    172498.90
  343.59        2968.25           1472       38114.00    166980.90
  343.62        2968.50           1475       36874.00    161521.90
  343.65        2968.75           1479       34579.00    151423.00
  343.68        2969.00           1482       32696.00    143141.70
  343.70        2969.25           1485       30942.00    135431.50
  343.73        2969.50           1489       28825.00    126130.30
  343.76        2969.75           1492       27124.00    118660.60
  343.79        2970.00           1495       25210.00    110259.50
  343.82        2970.25           1499       22418.00     98012.27
  343.84        2970.50           1502       20367.00     89021.22
  343.88        2970.75           1505       18267.00     79820.38
  343.91        2971.00           1509       16057.00     70143.09
  343.94        2971.25           1512       14268.00     62313.42
  343.97        2971.50           1515       12666.00     55305.29
  343.99        2971.75           1519       10130.00     44217.30
  344.02        2972.00           1522        8065.00     35194.08
  344.05        2972.25           1525        6422.00     28018.31
  344.08        2972.50           1529        4129.00     18008.86
  344.10        2972.75           1532        2596.00     11320.32
  344.13        2973.00           1536        1155.00      5035.63
  344.16        2973.25           1539         433.00      1887.64
  344.19        2973.50           1542         181.00       789.03
  344.22        2973.75           1546         152.00       662.61
  344.24        2974.00           1549         129.00       562.35
  344.27        2974.25           1552         117.00       510.03
  344.30        2974.50           1556         108.00       470.80
  344.33        2974.75           1559         118.00       514.39
  344.35        2975.00           1562         116.00       505.67
  344.38        2975.25           1566         113.00       492.60
  344.41        2975.50           1569         110.00       479.52
  344.44        2975.75           1572         109.00       475.16
  344.47        2976.00           1576         112.00       488.24
  344.49        2976.25           1579         111.00       483.88
  344.52        2976.50           1582         109.00       475.16
  344.55        2976.75           1586         112.00       488.24
  344.58        2977.00           1589         109.00       475.16
  344.60        2977.25           1592         105.00       457.72
  344.63        2977.50           1596         110.00       479.52
  344.66        2977.75           1599         109.00       475.16
  344.69        2978.00           1602         110.00       479.52
  344.71        2978.25           1606         114.00       496.96
  344.74        2978.50           1609         121.00       527.47
  344.77        2978.75           1612         110.00       479.52
  344.80        2979.00           1616         101.00       440.28
  344.82        2979.25           1619         102.00       444.64
  344.85        2979.50           1623         108.00       470.80
  344.88        2979.75           1626         107.00       466.44
  344.91        2980.00           1629         106.00       462.08
  344.94        2980.25           1633         115.00       501.32
  344.96        2980.50           1636         103.00       449.00
  344.99        2980.75           1639         103.00       449.00
  345.02        2981.00           1643         105.00       457.72
  345.05        2981.25           1646         104.00       453.36
  345.07        2981.50           1649         106.00       462.08
  345.10        2981.75           1653          94.00       409.77
  345.13        2982.00           1656         113.00       492.60
  345.16        2982.25           1659         110.00       479.52
  345.18        2982.50           1663         107.00       466.44
  345.21        2982.75           1666         117.00       510.03
  345.24        2983.00           1669         110.00       479.52
  345.27        2983.25           1673          96.00       418.49
  345.29        2983.50           1676         101.00       440.28
  345.32        2983.75           1679         102.00       444.64
  345.35        2984.00           1683         106.00       462.08
HS scan finished at 05:45:39
end
