************************************************************
  HS Scan of (1) Internal mercury lamp
************************************************************
Integration time is 0.2294 seconds per sample
dh170217DelftKZ 51.997-4.386 2.321352pr1000
************************************************************
Dead Time -------------------------  3E-08 
Number of Cycles Used -------------  4 
Starting Wavelength (Angstroms) ---  2950 
Final Wavelength (Angstoms) -------  2984 
Wavelength Increment (Angstroms) --  .25 
Filter Wheel #1 Position ---------- (1) Ground quartz diffuser (ND=2.32)
Filter Wheel #2 Position ---------- (1) Neutral Density 0.494



************************************************************
HS scan start time = 00:35:04
Dark Count =  .1 


Time (GMT)  Wavelength (Ang)  Step Number  Raw Counts  Counts/Second

   35.52        2950.00           1229         136.00       592.43
   35.62        2950.25           1232         141.00       614.22
   35.65        2950.50           1236         136.00       592.43
   35.68        2950.75           1239         134.00       583.71
   35.70        2951.00           1242         133.00       579.35
   35.73        2951.25           1246         123.00       535.75
   35.76        2951.50           1249         134.00       583.71
   35.79        2951.75           1252         136.00       592.43
   35.81        2952.00           1255         137.00       596.78
   35.84        2952.25           1259         139.00       605.50
   35.87        2952.50           1262         130.00       566.27
   35.90        2952.75           1265         134.00       583.71
   35.92        2953.00           1269         133.00       579.35
   35.95        2953.25           1272         132.00       574.99
   35.98        2953.50           1275         130.00       566.27
   36.01        2953.75           1279         124.00       540.11
   36.03        2954.00           1282         129.00       561.91
   36.06        2954.25           1285         142.00       618.58
   36.09        2954.50           1289         131.00       570.63
   36.12        2954.75           1292         127.00       553.19
   36.15        2955.00           1295         124.00       540.11
   36.17        2955.25           1299         125.00       544.47
   36.20        2955.50           1302         137.00       596.78
   36.23        2955.75           1305         127.00       553.19
   36.26        2956.00           1309         137.00       596.78
   36.28        2956.25           1312         135.00       588.07
   36.31        2956.50           1315         135.00       588.07
   36.34        2956.75           1319         132.00       574.99
   36.37        2957.00           1322         123.00       535.75
   36.39        2957.25           1325         121.00       527.04
   36.42        2957.50           1329         134.00       583.71
   36.45        2957.75           1332         143.00       622.94
   36.48        2958.00           1335         117.00       509.60
   36.50        2958.25           1339         117.00       509.60
   36.53        2958.50           1342         132.00       574.99
   36.56        2958.75           1345         124.00       540.11
   36.59        2959.00           1349         129.00       561.91
   36.62        2959.25           1352         122.00       531.39
   36.64        2959.50           1355         119.00       518.32
   36.67        2959.75           1359         127.00       553.19
   36.70        2960.00           1362         122.00       531.39
   36.73        2960.25           1365         135.00       588.07
   36.75        2960.50           1369         130.00       566.27
   36.78        2960.75           1372         139.00       605.50
   36.81        2961.00           1375         150.00       653.46
   36.84        2961.25           1379         150.00       653.46
   36.86        2961.50           1382         188.00       819.11
   36.89        2961.75           1385         586.00      2554.25
   36.92        2962.00           1389        2218.00      9671.07
   36.95        2962.25           1392        4129.00     18008.42
   36.98        2962.50           1395        6351.00     27707.85
   37.00        2962.75           1399        8890.00     38797.97
   37.03        2963.00           1402       10871.00     47455.92
   37.06        2963.25           1405       13212.00     57693.07
   37.09        2963.50           1409       16099.00     70326.52
   37.11        2963.75           1412       18522.00     80936.91
   37.14        2964.00           1415       20936.00     91514.64
   37.17        2964.25           1419       23587.00    103138.60
   37.20        2964.50           1422       25764.00    112690.30
   37.23        2964.75           1425       28324.00    123929.40
   37.26        2965.00           1429       31931.00    139778.00
   37.28        2965.25           1432       34296.00    150177.70
   37.31        2965.50           1435       36457.00    159686.00
   37.34        2965.75           1439       39155.00    171564.70
   37.37        2966.00           1442       41483.00    181821.30
   37.40        2966.25           1445       44044.00    193111.60
   37.43        2966.50           1449       46446.00    203708.00
   37.46        2966.75           1452       48082.00    210929.00
   37.49        2967.00           1455       48194.00    211423.50
   37.51        2967.25           1459       48375.00    212222.60
   37.54        2967.50           1462       48536.00    212933.50
   37.57        2967.75           1465       48244.00    211644.20
   37.60        2968.00           1469       47341.00    207658.00
   37.62        2968.25           1472       46147.00    202388.60
   37.65        2968.50           1475       44881.00    196803.30
   37.68        2968.75           1479       41872.00    183535.70
   37.71        2969.00           1482       39648.00    173736.20
   37.73        2969.25           1485       37007.00    162106.90
   37.76        2969.50           1489       34217.00    149830.20
   37.79        2969.75           1492       31957.00    139892.30
   37.82        2970.00           1495       29836.00    130571.10
   37.85        2970.25           1499       26889.00    117628.40
   37.87        2970.50           1502       24868.00    108758.40
   37.90        2970.75           1505       22601.00     98814.29
   37.93        2971.00           1509       19913.00     87031.21
   37.96        2971.25           1512       17760.00     77599.36
   37.99        2971.50           1515       15848.00     69227.76
   38.01        2971.75           1519       13282.00     57999.27
   38.04        2972.00           1522       10633.00     46415.51
   38.07        2972.25           1525        8222.00     35879.49
   38.10        2972.50           1529        4966.00     21661.42
   38.13        2972.75           1532        2764.00     12052.74
   38.15        2973.00           1536         998.00      4350.61
   38.18        2973.25           1539         392.00      1708.46
   38.21        2973.50           1542         201.00       875.79
   38.24        2973.75           1546         150.00       653.46
   38.27        2974.00           1549         133.00       579.35
   38.29        2974.25           1552         129.00       561.91
   38.32        2974.50           1556         121.00       527.04
   38.35        2974.75           1559         123.00       535.75
   38.38        2975.00           1562         122.00       531.39
   38.40        2975.25           1566         119.00       518.32
   38.43        2975.50           1569         114.00       496.52
   38.46        2975.75           1572         105.00       457.29
   38.49        2976.00           1576         107.00       466.00
   38.51        2976.25           1579         104.00       452.93
   38.54        2976.50           1582         118.00       513.96
   38.57        2976.75           1586         111.00       483.44
   38.60        2977.00           1589         114.00       496.52
   38.62        2977.25           1592         106.00       461.65
   38.65        2977.50           1596         119.00       518.32
   38.68        2977.75           1599         105.00       457.29
   38.71        2978.00           1602         115.00       500.88
   38.74        2978.25           1606         110.00       479.08
   38.76        2978.50           1609         110.00       479.08
   38.79        2978.75           1612         116.00       505.24
   38.82        2979.00           1616         109.00       474.72
   38.85        2979.25           1619         101.00       439.85
   38.87        2979.50           1623          93.00       404.97
   38.90        2979.75           1626         114.00       496.52
   38.94        2980.00           1629          89.00       387.54
   38.97        2980.25           1633         101.00       439.85
   39.00        2980.50           1636         111.00       483.44
   39.02        2980.75           1639         112.00       487.80
   39.05        2981.00           1643         102.00       444.21
   39.08        2981.25           1646          94.00       409.33
   39.11        2981.50           1649         106.00       461.65
   39.13        2981.75           1653         106.00       461.65
   39.16        2982.00           1656         100.00       435.49
   39.19        2982.25           1659         113.00       492.16
   39.22        2982.50           1663         110.00       479.08
   39.24        2982.75           1666         113.00       492.16
   39.27        2983.00           1669         108.00       470.36
   39.30        2983.25           1673         111.00       483.44
   39.33        2983.50           1676          98.00       426.77
   39.36        2983.75           1679         104.00       452.93
   39.38        2984.00           1683         103.00       448.57
HS scan finished at 00:39:41
end
************************************************************
  HS Scan of (1) Internal mercury lamp
************************************************************
Integration time is 0.2294 seconds per sample
dh170217DelftKZ 51.997-4.386 2.375pr1000
************************************************************
Dead Time -------------------------  3E-08 
Number of Cycles Used -------------  4 
Starting Wavelength (Angstroms) ---  2950 
Final Wavelength (Angstoms) -------  2984 
Wavelength Increment (Angstroms) --  .25 
Filter Wheel #1 Position ---------- (1) Ground quartz diffuser (ND=2.32)
Filter Wheel #2 Position ---------- (1) Neutral Density 0.494



************************************************************
HS scan start time = 05:33:40
Dark Count =  .2 


Time (GMT)  Wavelength (Ang)  Step Number  Raw Counts  Counts/Second

  334.11        2950.00           1229         131.00       570.19
  334.21        2950.25           1232         127.00       552.76
  334.24        2950.50           1236         141.00       613.79
  334.27        2950.75           1239         132.00       574.55
  334.30        2951.00           1242         133.00       578.91
  334.33        2951.25           1246         138.00       600.71
  334.35        2951.50           1249         138.00       600.71
  334.38        2951.75           1252         129.00       561.47
  334.41        2952.00           1255         139.00       605.07
  334.44        2952.25           1259         128.00       557.11
  334.47        2952.50           1262         131.00       570.19
  334.50        2952.75           1265         125.00       544.04
  334.53        2953.00           1269         127.00       552.76
  334.55        2953.25           1272         144.00       626.86
  334.58        2953.50           1275         127.00       552.76
  334.61        2953.75           1279         137.00       596.35
  334.64        2954.00           1282         119.00       517.88
  334.67        2954.25           1285         136.00       591.99
  334.70        2954.50           1289         122.00       530.96
  334.72        2954.75           1292         132.00       574.55
  334.75        2955.00           1295         126.00       548.40
  334.78        2955.25           1299         132.00       574.55
  334.81        2955.50           1302         130.00       565.83
  334.83        2955.75           1305         131.00       570.19
  334.86        2956.00           1309         124.00       539.68
  334.89        2956.25           1312         117.00       509.16
  334.92        2956.50           1315         117.00       509.16
  334.94        2956.75           1319         132.00       574.55
  334.97        2957.00           1322         131.00       570.19
  335.01        2957.25           1325         132.00       574.55
  335.04        2957.50           1329         124.00       539.68
  335.07        2957.75           1332         121.00       526.60
  335.09        2958.00           1335         128.00       557.11
  335.12        2958.25           1339         119.00       517.88
  335.15        2958.50           1342         137.00       596.35
  335.18        2958.75           1345         129.00       561.47
  335.20        2959.00           1349         134.00       583.27
  335.23        2959.25           1352         125.00       544.04
  335.26        2959.50           1355         113.00       491.72
  335.29        2959.75           1359         126.00       548.40
  335.32        2960.00           1362         119.00       517.88
  335.34        2960.25           1365         125.00       544.04
  335.37        2960.50           1369         119.00       517.88
  335.40        2960.75           1372         126.00       548.40
  335.43        2961.00           1375         145.00       631.22
  335.45        2961.25           1379         156.00       679.18
  335.48        2961.50           1382         301.00      1311.30
  335.51        2961.75           1385         999.00      4354.54
  335.54        2962.00           1389        2398.00     10455.76
  335.56        2962.25           1392        3941.00     17187.59
  335.59        2962.50           1395        5919.00     25821.22
  335.62        2962.75           1399        9033.00     39422.36
  335.65        2963.00           1402       11239.00     49064.32
  335.67        2963.25           1405       13120.00     57290.19
  335.70        2963.50           1409       15616.00     68211.81
  335.73        2963.75           1412       17524.00     76565.38
  335.76        2964.00           1415       20045.00     87609.22
  335.79        2964.25           1419       22854.00     99923.33
  335.81        2964.50           1422       25118.00    109854.90
  335.84        2964.75           1425       27253.00    119226.00
  335.87        2965.00           1429       30132.00    131871.20
  335.90        2965.25           1432       32622.00    142815.50
  335.92        2965.50           1435       34592.00    151479.40
  335.95        2965.75           1439       37484.00    164206.20
  335.98        2966.00           1442       39793.00    174374.50
  336.01        2966.25           1445       41825.00    183328.10
  336.04        2966.50           1449       43948.00    192687.80
  336.07        2966.75           1452       44699.00    196000.00
  336.10        2967.00           1455       45028.00    197451.30
  336.12        2967.25           1459       44884.00    196816.10
  336.15        2967.50           1462       44939.00    197058.60
  336.18        2967.75           1465       44830.00    196577.90
  336.21        2968.00           1469       43844.00    192229.20
  336.24        2968.25           1472       42409.00    185902.30
  336.26        2968.50           1475       40611.00    177978.30
  336.29        2968.75           1479       37669.00    165020.70
  336.32        2969.00           1482       35564.00    155755.80
  336.35        2969.25           1485       33509.00    146715.90
  336.37        2969.50           1489       30890.00    135202.10
  336.40        2969.75           1492       28769.00    125883.40
  336.43        2970.00           1495       26626.00    116473.40
  336.46        2970.25           1499       24253.00    106059.70
  336.49        2970.50           1502       22367.00     97787.77
  336.51        2970.75           1505       20461.00     89432.31
  336.54        2971.00           1509       17978.00     78553.71
  336.57        2971.25           1512       15734.00     68728.31
  336.60        2971.50           1515       13727.00     59945.55
  336.62        2971.75           1519       10734.00     46856.58
  336.65        2972.00           1522        8951.00     39064.06
  336.68        2972.25           1525        6837.00     29829.65
  336.71        2972.50           1529        3809.00     16611.59
  336.74        2972.75           1532        1946.00      8484.29
  336.76        2973.00           1536         715.00      3116.25
  336.79        2973.25           1539         305.00      1328.74
  336.82        2973.50           1542         184.00       801.24
  336.85        2973.75           1546         148.00       644.30
  336.88        2974.00           1549         148.00       644.30
  336.90        2974.25           1552         135.00       587.63
  336.93        2974.50           1556         119.00       517.88
  336.96        2974.75           1559         115.00       500.44
  336.99        2975.00           1562         107.00       465.57
  337.01        2975.25           1566         111.00       483.01
  337.04        2975.50           1569         108.00       469.93
  337.07        2975.75           1572         109.00       474.29
  337.10        2976.00           1576         112.00       487.37
  337.12        2976.25           1579         118.00       513.52
  337.15        2976.50           1582         112.00       487.37
  337.18        2976.75           1586         105.00       456.85
  337.21        2977.00           1589         104.00       452.49
  337.24        2977.25           1592         101.00       439.41
  337.27        2977.50           1596         110.00       478.65
  337.30        2977.75           1599         109.00       474.29
  337.33        2978.00           1602         100.00       435.05
  337.36        2978.25           1606         104.00       452.49
  337.39        2978.50           1609         109.00       474.29
  337.42        2978.75           1612          98.00       426.34
  337.44        2979.00           1616         119.00       517.88
  337.47        2979.25           1619         104.00       452.49
  337.50        2979.50           1623         117.00       509.16
  337.53        2979.75           1626         105.00       456.85
  337.55        2980.00           1629         111.00       483.01
  337.58        2980.25           1633         105.00       456.85
  337.61        2980.50           1636         111.00       483.01
  337.64        2980.75           1639         116.00       504.80
  337.66        2981.00           1643         106.00       461.21
  337.69        2981.25           1646         104.00       452.49
  337.72        2981.50           1649         117.00       509.16
  337.75        2981.75           1653         109.00       474.29
  337.78        2982.00           1656          99.00       430.69
  337.81        2982.25           1659         119.00       517.88
  337.84        2982.50           1663          98.00       426.34
  337.86        2982.75           1666         107.00       465.57
  337.89        2983.00           1669         100.00       435.05
  337.92        2983.25           1673         113.00       491.72
  337.95        2983.50           1676          99.00       430.69
  337.97        2983.75           1679         102.00       443.77
  338.00        2984.00           1683         102.00       443.77
HS scan finished at 05:38:18
end
