************************************************************
  HS Scan of (1) Internal mercury lamp
************************************************************
Integration time is 0.2294 seconds per sample
dh100217DelftKZ 51.997-4.386 2.10676pr1000
************************************************************
Dead Time -------------------------  3E-08 
Number of Cycles Used -------------  4 
Starting Wavelength (Angstroms) ---  2950 
Final Wavelength (Angstoms) -------  2984 
Wavelength Increment (Angstroms) --  .25 
Filter Wheel #1 Position ---------- (1) Ground quartz diffuser (ND=2.32)
Filter Wheel #2 Position ---------- (1) Neutral Density 0.494



************************************************************
HS scan start time = 00:35:30
Dark Count =  0 


Time (GMT)  Wavelength (Ang)  Step Number  Raw Counts  Counts/Second

   35.96        2950.00           1229         127.00       553.63
   36.05        2950.25           1232         129.00       562.35
   36.08        2950.50           1236         144.00       627.74
   36.11        2950.75           1239         134.00       584.14
   36.14        2951.00           1242         137.00       597.22
   36.17        2951.25           1246         138.00       601.58
   36.19        2951.50           1249         128.00       557.99
   36.22        2951.75           1252         129.00       562.35
   36.25        2952.00           1255         130.00       566.71
   36.28        2952.25           1259         139.00       605.94
   36.30        2952.50           1262         132.00       575.42
   36.33        2952.75           1265         128.00       557.99
   36.36        2953.00           1269         130.00       566.71
   36.39        2953.25           1272         132.00       575.42
   36.42        2953.50           1275         133.00       579.78
   36.45        2953.75           1279         133.00       579.78
   36.48        2954.00           1282         130.00       566.71
   36.51        2954.25           1285         138.00       601.58
   36.54        2954.50           1289         125.00       544.91
   36.57        2954.75           1292         129.00       562.35
   36.59        2955.00           1295         124.00       540.55
   36.62        2955.25           1299         137.00       597.22
   36.65        2955.50           1302         124.00       540.55
   36.68        2955.75           1305         139.00       605.94
   36.70        2956.00           1309         135.00       588.50
   36.73        2956.25           1312         126.00       549.27
   36.76        2956.50           1315         134.00       584.14
   36.79        2956.75           1319         125.00       544.91
   36.81        2957.00           1322         128.00       557.99
   36.84        2957.25           1325         120.00       523.11
   36.87        2957.50           1329         134.00       584.14
   36.90        2957.75           1332         124.00       540.55
   36.92        2958.00           1335         121.00       527.47
   36.95        2958.25           1339         128.00       557.99
   36.98        2958.50           1342         127.00       553.63
   37.01        2958.75           1345         129.00       562.35
   37.03        2959.00           1349         124.00       540.55
   37.06        2959.25           1352         123.00       536.19
   37.09        2959.50           1355         125.00       544.91
   37.12        2959.75           1359         136.00       592.86
   37.15        2960.00           1362         128.00       557.99
   37.17        2960.25           1365         134.00       584.14
   37.20        2960.50           1369         145.00       632.10
   37.23        2960.75           1372         148.00       645.17
   37.26        2961.00           1375         144.00       627.74
   37.28        2961.25           1379         154.00       671.33
   37.31        2961.50           1382         214.00       932.89
   37.35        2961.75           1385         505.00      2201.54
   37.37        2962.00           1389        1725.00      7521.31
   37.40        2962.25           1392        3319.00     14474.46
   37.43        2962.50           1395        5130.00     22377.70
   37.46        2962.75           1399        7694.00     33573.47
   37.48        2963.00           1402        9616.00     41970.86
   37.51        2963.25           1405       12169.00     53131.71
   37.54        2963.50           1409       15006.00     65542.88
   37.57        2963.75           1412       17080.00     74621.97
   37.60        2964.00           1415       19330.00     84477.11
   37.62        2964.25           1419       22162.00     96889.78
   37.65        2964.50           1422       24464.00    106986.30
   37.68        2964.75           1425       26587.00    116303.10
   37.71        2965.00           1429       29198.00    127768.70
   37.73        2965.25           1432       31422.00    137541.10
   37.76        2965.50           1435       33386.00    146175.80
   37.79        2965.75           1439       35529.00    155602.60
   37.82        2966.00           1442       37116.00    162587.10
   37.85        2966.25           1445       39319.00    172287.50
   37.87        2966.50           1449       42452.00    186092.70
   37.90        2966.75           1452       43245.00    189588.80
   37.93        2967.00           1455       43795.00    192014.00
   37.96        2967.25           1459       43817.00    192111.00
   37.98        2967.50           1462       43803.00    192049.30
   38.01        2967.75           1465       43660.00    191418.70
   38.04        2968.00           1469       42929.00    188195.60
   38.07        2968.25           1472       41811.00    183267.30
   38.09        2968.50           1475       40546.00    177692.80
   38.12        2968.75           1479       38344.00    167993.60
   38.15        2969.00           1482       36352.00    159224.30
   38.18        2969.25           1485       34416.00    150706.00
   38.21        2969.50           1489       31605.00    138345.40
   38.23        2969.75           1492       29084.00    127267.90
   38.26        2970.00           1495       26907.00    117707.90
   38.29        2970.25           1499       24246.00    106029.90
   38.32        2970.50           1502       22114.00     96679.30
   38.34        2970.75           1505       20052.00     87640.77
   38.37        2971.00           1509       17395.00     76001.34
   38.40        2971.25           1512       16045.00     70090.56
   38.43        2971.50           1515       14128.00     61700.86
   38.46        2971.75           1519       11319.00     49414.96
   38.49        2972.00           1522        9239.00     40323.38
   38.52        2972.25           1525        6961.00     30372.04
   38.55        2972.50           1529        4354.00     18990.77
   38.58        2972.75           1532        2684.00     11704.20
   38.61        2973.00           1536        1062.00      4630.11
   38.63        2973.25           1539         464.00      2022.79
   38.66        2973.50           1542         198.00       863.14
   38.69        2973.75           1546         142.00       619.02
   38.72        2974.00           1549         150.00       653.89
   38.74        2974.25           1552         126.00       549.27
   38.77        2974.50           1556         132.00       575.42
   38.80        2974.75           1559         117.00       510.03
   38.83        2975.00           1562         116.00       505.67
   38.86        2975.25           1566         119.00       518.75
   38.89        2975.50           1569         116.00       505.67
   38.91        2975.75           1572         101.00       440.28
   38.94        2976.00           1576         118.00       514.39
   38.97        2976.25           1579         106.00       462.08
   39.00        2976.50           1582          99.00       431.57
   39.02        2976.75           1586         111.00       483.88
   39.05        2977.00           1589         111.00       483.88
   39.08        2977.25           1592         115.00       501.32
   39.11        2977.50           1596         109.00       475.16
   39.13        2977.75           1599         113.00       492.60
   39.16        2978.00           1602         106.00       462.08
   39.19        2978.25           1606         107.00       466.44
   39.22        2978.50           1609         107.00       466.44
   39.25        2978.75           1612         108.00       470.80
   39.28        2979.00           1616         108.00       470.80
   39.31        2979.25           1619         106.00       462.08
   39.33        2979.50           1623          97.00       422.85
   39.36        2979.75           1626         111.00       483.88
   39.39        2980.00           1629         105.00       457.72
   39.42        2980.25           1633         120.00       523.11
   39.44        2980.50           1636         114.00       496.96
   39.47        2980.75           1639         102.00       444.64
   39.50        2981.00           1643         108.00       470.80
   39.53        2981.25           1646          99.00       431.57
   39.55        2981.50           1649         108.00       470.80
   39.58        2981.75           1653         107.00       466.44
   39.61        2982.00           1656         116.00       505.67
   39.64        2982.25           1659         106.00       462.08
   39.66        2982.50           1663         100.00       435.93
   39.69        2982.75           1666         108.00       470.80
   39.72        2983.00           1669          99.00       431.57
   39.75        2983.25           1673         107.00       466.44
   39.78        2983.50           1676         105.00       457.72
   39.80        2983.75           1679          98.00       427.21
   39.83        2984.00           1683         113.00       492.60
HS scan finished at 00:40:08
end
************************************************************
  HS Scan of (1) Internal mercury lamp
************************************************************
Integration time is 0.2294 seconds per sample
dh100217DelftKZ 51.997-4.386 2.10676pr1000
************************************************************
Dead Time -------------------------  3E-08 
Number of Cycles Used -------------  4 
Starting Wavelength (Angstroms) ---  2950 
Final Wavelength (Angstoms) -------  2984 
Wavelength Increment (Angstroms) --  .25 
Filter Wheel #1 Position ---------- (1) Ground quartz diffuser (ND=2.32)
Filter Wheel #2 Position ---------- (1) Neutral Density 0.494



************************************************************
HS scan start time = 05:46:03
Dark Count =  .1 


Time (GMT)  Wavelength (Ang)  Step Number  Raw Counts  Counts/Second

  346.50        2950.00           1229         144.00       627.30
  346.60        2950.25           1232         132.00       574.99
  346.63        2950.50           1236         131.00       570.63
  346.65        2950.75           1239         121.00       527.04
  346.68        2951.00           1242         135.00       588.07
  346.71        2951.25           1246         129.00       561.91
  346.74        2951.50           1249         123.00       535.75
  346.76        2951.75           1252         138.00       601.14
  346.79        2952.00           1255         142.00       618.58
  346.82        2952.25           1259         133.00       579.35
  346.85        2952.50           1262         146.00       636.02
  346.87        2952.75           1265         132.00       574.99
  346.90        2953.00           1269         125.00       544.47
  346.93        2953.25           1272         125.00       544.47
  346.96        2953.50           1275         122.00       531.39
  346.99        2953.75           1279         125.00       544.47
  347.02        2954.00           1282         131.00       570.63
  347.05        2954.25           1285         128.00       557.55
  347.07        2954.50           1289         128.00       557.55
  347.10        2954.75           1292         137.00       596.78
  347.13        2955.00           1295         130.00       566.27
  347.16        2955.25           1299         126.00       548.83
  347.19        2955.50           1302         126.00       548.83
  347.21        2955.75           1305         118.00       513.96
  347.24        2956.00           1309         123.00       535.75
  347.27        2956.25           1312         123.00       535.75
  347.30        2956.50           1315         127.00       553.19
  347.32        2956.75           1319         121.00       527.04
  347.35        2957.00           1322         113.00       492.16
  347.38        2957.25           1325         123.00       535.75
  347.41        2957.50           1329         130.00       566.27
  347.43        2957.75           1332         120.00       522.68
  347.46        2958.00           1335         122.00       531.39
  347.49        2958.25           1339         130.00       566.27
  347.52        2958.50           1342         121.00       527.04
  347.55        2958.75           1345         112.00       487.80
  347.57        2959.00           1349         127.00       553.19
  347.60        2959.25           1352         119.00       518.32
  347.63        2959.50           1355         128.00       557.55
  347.65        2959.75           1359         121.00       527.04
  347.68        2960.00           1362         131.00       570.63
  347.71        2960.25           1365         121.00       527.04
  347.74        2960.50           1369         139.00       605.50
  347.77        2960.75           1372         131.00       570.63
  347.79        2961.00           1375         148.00       644.74
  347.82        2961.25           1379         161.00       701.41
  347.85        2961.50           1382         214.00       932.46
  347.88        2961.75           1385         613.00      2671.97
  347.90        2962.00           1389        1778.00      7752.02
  347.93        2962.25           1392        3010.00     13125.92
  347.96        2962.50           1395        4772.00     20814.65
  347.99        2962.75           1399        7472.00     32603.37
  348.01        2963.00           1402        9590.00     41856.80
  348.04        2963.25           1405       12003.00     52405.35
  348.07        2963.50           1409       14703.00     64216.45
  348.10        2963.75           1412       16786.00     73334.22
  348.13        2964.00           1415       18644.00     81471.34
  348.15        2964.25           1419       21316.00     93180.34
  348.18        2964.50           1422       23538.00    102923.70
  348.21        2964.75           1425       25246.00    110417.00
  348.24        2965.00           1429       27145.00    118752.30
  348.27        2965.25           1432       29299.00    128211.90
  348.30        2965.50           1435       30975.00    135576.00
  348.33        2965.75           1439       34088.00    149262.80
  348.36        2966.00           1442       35761.00    156623.00
  348.39        2966.25           1445       37453.00    164070.20
  348.41        2966.50           1449       40088.00    175674.50
  348.44        2966.75           1452       40807.00    178842.30
  348.47        2967.00           1455       41284.00    180944.30
  348.50        2967.25           1459       41681.00    182693.90
  348.52        2967.50           1462       41503.00    181909.40
  348.55        2967.75           1465       41387.00    181398.20
  348.59        2968.00           1469       40800.00    178811.50
  348.62        2968.25           1472       40192.00    176132.70
  348.65        2968.50           1475       38569.00    168984.00
  348.69        2968.75           1479       36167.00    158409.70
  348.73        2969.00           1482       34035.00    149029.70
  348.76        2969.25           1485       32145.00    140718.80
  348.79        2969.50           1489       29652.00    129762.70
  348.83        2969.75           1492       27732.00    121329.70
  348.86        2970.00           1495       25667.00    112264.60
  348.89        2970.25           1499       23115.00    101068.40
  348.92        2970.50           1502       21574.00     94311.37
  348.95        2970.75           1505       19508.00     85256.59
  348.98        2971.00           1509       16851.00     73618.83
  349.02        2971.25           1512       14877.00     64977.90
  349.05        2971.50           1515       12752.00     55680.99
  349.09        2971.75           1519       10128.00     44208.12
  349.12        2972.00           1522        8295.00     36198.40
  349.15        2972.25           1525        6650.00     29013.48
  349.18        2972.50           1529        4209.00     18357.54
  349.20        2972.75           1532        2429.00     10591.42
  349.23        2973.00           1536         931.00      4058.47
  349.26        2973.25           1539         440.00      1917.72
  349.29        2973.50           1542         182.00       792.96
  349.31        2973.75           1546         137.00       596.78
  349.34        2974.00           1549         143.00       622.94
  349.37        2974.25           1552         125.00       544.47
  349.40        2974.50           1556         129.00       561.91
  349.42        2974.75           1559         116.00       505.24
  349.45        2975.00           1562         120.00       522.68
  349.48        2975.25           1566         115.00       500.88
  349.51        2975.50           1569         103.00       448.57
  349.55        2975.75           1572         110.00       479.08
  349.57        2976.00           1576         106.00       461.65
  349.60        2976.25           1579         109.00       474.72
  349.63        2976.50           1582         113.00       492.16
  349.66        2976.75           1586         114.00       496.52
  349.68        2977.00           1589         108.00       470.36
  349.71        2977.25           1592         108.00       470.36
  349.74        2977.50           1596         110.00       479.08
  349.77        2977.75           1599         107.00       466.00
  349.79        2978.00           1602         106.00       461.65
  349.82        2978.25           1606         116.00       505.24
  349.85        2978.50           1609         103.00       448.57
  349.88        2978.75           1612         110.00       479.08
  349.90        2979.00           1616         110.00       479.08
  349.93        2979.25           1619         104.00       452.93
  349.96        2979.50           1623         111.00       483.44
  349.99        2979.75           1626         108.00       470.36
  350.02        2980.00           1629          92.00       400.62
  350.04        2980.25           1633         102.00       444.21
  350.07        2980.50           1636         112.00       487.80
  350.10        2980.75           1639         111.00       483.44
  350.13        2981.00           1643         104.00       452.93
  350.15        2981.25           1646         116.00       505.24
  350.18        2981.50           1649         107.00       466.00
  350.21        2981.75           1653         113.00       492.16
  350.24        2982.00           1656         111.00       483.44
  350.27        2982.25           1659         111.00       483.44
  350.30        2982.50           1663         109.00       474.72
  350.33        2982.75           1666         100.00       435.49
  350.36        2983.00           1669         104.00       452.93
  350.39        2983.25           1673         104.00       452.93
  350.42        2983.50           1676         108.00       470.36
  350.45        2983.75           1679         102.00       444.21
  350.48        2984.00           1683         104.00       452.93
HS scan finished at 05:50:46
end
