************************************************************
  HS Scan of (1) Internal mercury lamp
************************************************************
Integration time is 0.2294 seconds per sample
dh090217DelftKZ 51.997-4.386 2.160408pr1000
************************************************************
Dead Time -------------------------  3E-08 
Number of Cycles Used -------------  4 
Starting Wavelength (Angstroms) ---  2950 
Final Wavelength (Angstoms) -------  2984 
Wavelength Increment (Angstroms) --  .25 
Filter Wheel #1 Position ---------- (1) Ground quartz diffuser (ND=2.32)
Filter Wheel #2 Position ---------- (1) Neutral Density 0.494



************************************************************
HS scan start time = 05:47:49
Dark Count =  0 


Time (GMT)  Wavelength (Ang)  Step Number  Raw Counts  Counts/Second

  348.26        2950.00           1229         126.00       549.27
  348.36        2950.25           1232         128.00       557.99
  348.39        2950.50           1236         140.00       610.30
  348.41        2950.75           1239         128.00       557.99
  348.44        2951.00           1242         133.00       579.78
  348.47        2951.25           1246         128.00       557.99
  348.50        2951.50           1249         128.00       557.99
  348.52        2951.75           1252         138.00       601.58
  348.55        2952.00           1255         137.00       597.22
  348.59        2952.25           1259         126.00       549.27
  348.62        2952.50           1262         126.00       549.27
  348.65        2952.75           1265         132.00       575.42
  348.67        2953.00           1269         124.00       540.55
  348.70        2953.25           1272         132.00       575.42
  348.73        2953.50           1275         128.00       557.99
  348.76        2953.75           1279         136.00       592.86
  348.78        2954.00           1282         131.00       571.06
  348.81        2954.25           1285         124.00       540.55
  348.84        2954.50           1289         124.00       540.55
  348.87        2954.75           1292         131.00       571.06
  348.90        2955.00           1295         138.00       601.58
  348.92        2955.25           1299         121.00       527.47
  348.95        2955.50           1302         130.00       566.71
  348.98        2955.75           1305         135.00       588.50
  349.01        2956.00           1309         128.00       557.99
  349.03        2956.25           1312         130.00       566.71
  349.06        2956.50           1315         131.00       571.06
  349.09        2956.75           1319         128.00       557.99
  349.12        2957.00           1322         136.00       592.86
  349.14        2957.25           1325         117.00       510.03
  349.17        2957.50           1329         129.00       562.35
  349.20        2957.75           1332         125.00       544.91
  349.23        2958.00           1335         120.00       523.11
  349.26        2958.25           1339         122.00       531.83
  349.28        2958.50           1342         135.00       588.50
  349.31        2958.75           1345         129.00       562.35
  349.34        2959.00           1349         125.00       544.91
  349.37        2959.25           1352         116.00       505.67
  349.39        2959.50           1355         123.00       536.19
  349.42        2959.75           1359         118.00       514.39
  349.45        2960.00           1362         128.00       557.99
  349.48        2960.25           1365         130.00       566.71
  349.50        2960.50           1369         142.00       619.02
  349.53        2960.75           1372         135.00       588.50
  349.56        2961.00           1375         130.00       566.71
  349.59        2961.25           1379         150.00       653.89
  349.61        2961.50           1382         203.00       884.94
  349.64        2961.75           1385         464.00      2022.79
  349.67        2962.00           1389        1636.00      7133.17
  349.70        2962.25           1392        3183.00     13881.11
  349.72        2962.50           1395        4999.00     21805.89
  349.76        2962.75           1399        7318.00     31931.19
  349.79        2963.00           1402        9215.00     40218.51
  349.82        2963.25           1405       11324.00     49436.82
  349.85        2963.50           1409       14114.00     61639.60
  349.87        2963.75           1412       16099.00     70326.95
  349.90        2964.00           1415       17949.00     78427.55
  349.93        2964.25           1419       20148.00     88061.47
  349.96        2964.50           1422       22200.00     97056.39
  349.98        2964.75           1425       24309.00    106306.20
  350.01        2965.00           1429       26639.00    116531.40
  350.04        2965.25           1432       28608.00    125177.10
  350.07        2965.50           1435       30855.00    135049.10
  350.10        2965.75           1439       33328.00    145920.80
  350.12        2966.00           1442       35065.00    153561.10
  350.15        2966.25           1445       36881.00    161552.70
  350.18        2966.50           1449       39240.00    171939.60
  350.21        2966.75           1452       39993.00    175256.40
  350.23        2967.00           1455       40173.00    176049.40
  350.26        2967.25           1459       40266.00    176459.10
  350.30        2967.50           1462       40261.00    176437.10
  350.33        2967.75           1465       40080.00    175639.70
  350.35        2968.00           1469       39014.00    170944.20
  350.38        2968.25           1472       38098.00    166910.40
  350.41        2968.50           1475       36440.00    159611.60
  350.44        2968.75           1479       34243.00    149945.00
  350.46        2969.00           1482       32489.00    142231.60
  350.49        2969.25           1485       30875.00    135137.00
  350.52        2969.50           1489       28225.00    123495.10
  350.55        2969.75           1492       26746.00    117001.10
  350.58        2970.00           1495       24937.00    109061.60
  350.60        2970.25           1499       22358.00     97749.18
  350.63        2970.50           1502       20585.00     89976.64
  350.66        2970.75           1505       18478.00     80744.62
  350.69        2971.00           1509       16068.00     70191.25
  350.71        2971.25           1512       14051.00     61363.96
  350.74        2971.50           1515       12396.00     54124.43
  350.77        2971.75           1519        9977.00     43548.58
  350.80        2972.00           1522        8207.00     35814.40
  350.82        2972.25           1525        6344.00     27677.72
  350.85        2972.50           1529        4200.00     18318.70
  350.88        2972.75           1532        2820.00     12297.47
  350.91        2973.00           1536        1153.00      5026.91
  350.93        2973.25           1539         474.00      2066.39
  350.96        2973.50           1542         185.00       806.47
  350.99        2973.75           1546         138.00       601.58
  351.02        2974.00           1549         136.00       592.86
  351.05        2974.25           1552         123.00       536.19
  351.07        2974.50           1556         113.00       492.60
  351.10        2974.75           1559         113.00       492.60
  351.13        2975.00           1562         118.00       514.39
  351.16        2975.25           1566         108.00       470.80
  351.18        2975.50           1569         107.00       466.44
  351.21        2975.75           1572         109.00       475.16
  351.24        2976.00           1576         105.00       457.72
  351.27        2976.25           1579         115.00       501.32
  351.29        2976.50           1582         110.00       479.52
  351.32        2976.75           1586         105.00       457.72
  351.35        2977.00           1589         104.00       453.36
  351.38        2977.25           1592         107.00       466.44
  351.40        2977.50           1596         100.00       435.93
  351.43        2977.75           1599         104.00       453.36
  351.46        2978.00           1602         108.00       470.80
  351.49        2978.25           1606         114.00       496.96
  351.51        2978.50           1609         105.00       457.72
  351.54        2978.75           1612         109.00       475.16
  351.57        2979.00           1616         107.00       466.44
  351.60        2979.25           1619         106.00       462.08
  351.63        2979.50           1623         111.00       483.88
  351.65        2979.75           1626         100.00       435.93
  351.68        2980.00           1629         106.00       462.08
  351.71        2980.25           1633         104.00       453.36
  351.74        2980.50           1636         101.00       440.28
  351.76        2980.75           1639         103.00       449.00
  351.79        2981.00           1643         110.00       479.52
  351.82        2981.25           1646         111.00       483.88
  351.84        2981.50           1649          95.00       414.13
  351.87        2981.75           1653          99.00       431.57
  351.90        2982.00           1656         104.00       453.36
  351.93        2982.25           1659         111.00       483.88
  351.96        2982.50           1663          98.00       427.21
  351.98        2982.75           1666         105.00       457.72
  352.01        2983.00           1669         100.00       435.93
  352.04        2983.25           1673         101.00       440.28
  352.07        2983.50           1676         103.00       449.00
  352.09        2983.75           1679         103.00       449.00
  352.13        2984.00           1683         104.00       453.36
HS scan finished at 05:52:26
end
