************************************************************
  HS Scan of (1) Internal mercury lamp
************************************************************
Integration time is 0.2294 seconds per sample
dh150217DelftKZ 51.997-4.386 2.267704pr1000
************************************************************
Dead Time -------------------------  3E-08 
Number of Cycles Used -------------  4 
Starting Wavelength (Angstroms) ---  2950 
Final Wavelength (Angstoms) -------  2984 
Wavelength Increment (Angstroms) --  .25 
Filter Wheel #1 Position ---------- (1) Ground quartz diffuser (ND=2.32)
Filter Wheel #2 Position ---------- (1) Neutral Density 0.494



************************************************************
HS scan start time = 05:37:17
Dark Count =  .1 


Time (GMT)  Wavelength (Ang)  Step Number  Raw Counts  Counts/Second

  337.73        2950.00           1229         129.00       561.91
  337.83        2950.25           1232         135.00       588.07
  337.86        2950.50           1236         133.00       579.35
  337.88        2950.75           1239         126.00       548.83
  337.91        2951.00           1242         127.00       553.19
  337.94        2951.25           1246         127.00       553.19
  337.97        2951.50           1249         132.00       574.99
  337.99        2951.75           1252         129.00       561.91
  338.02        2952.00           1255         140.00       609.86
  338.05        2952.25           1259         129.00       561.91
  338.08        2952.50           1262         142.00       618.58
  338.10        2952.75           1265         126.00       548.83
  338.13        2953.00           1269         125.00       544.47
  338.16        2953.25           1272         132.00       574.99
  338.19        2953.50           1275         134.00       583.71
  338.21        2953.75           1279         123.00       535.75
  338.24        2954.00           1282         140.00       609.86
  338.27        2954.25           1285         128.00       557.55
  338.30        2954.50           1289         125.00       544.47
  338.32        2954.75           1292         135.00       588.07
  338.35        2955.00           1295         131.00       570.63
  338.38        2955.25           1299         133.00       579.35
  338.41        2955.50           1302         126.00       548.83
  338.43        2955.75           1305         117.00       509.60
  338.46        2956.00           1309         134.00       583.71
  338.49        2956.25           1312         128.00       557.55
  338.52        2956.50           1315         122.00       531.39
  338.54        2956.75           1319         122.00       531.39
  338.57        2957.00           1322         124.00       540.11
  338.60        2957.25           1325         124.00       540.11
  338.63        2957.50           1329         117.00       509.60
  338.66        2957.75           1332         119.00       518.32
  338.68        2958.00           1335         127.00       553.19
  338.71        2958.25           1339         122.00       531.39
  338.74        2958.50           1342         122.00       531.39
  338.77        2958.75           1345         120.00       522.68
  338.80        2959.00           1349         133.00       579.35
  338.82        2959.25           1352         129.00       561.91
  338.85        2959.50           1355         123.00       535.75
  338.88        2959.75           1359         132.00       574.99
  338.91        2960.00           1362         143.00       622.94
  338.93        2960.25           1365         119.00       518.32
  338.96        2960.50           1369         121.00       527.04
  338.99        2960.75           1372         134.00       583.71
  339.02        2961.00           1375         132.00       574.99
  339.04        2961.25           1379         157.00       683.97
  339.07        2961.50           1382         257.00      1119.92
  339.11        2961.75           1385         864.00      3766.34
  339.14        2962.00           1389        2122.00      9252.35
  339.17        2962.25           1392        3631.00     15835.33
  339.20        2962.50           1395        5763.00     25140.58
  339.23        2962.75           1399        8264.00     36062.97
  339.26        2963.00           1402       10400.00     45397.01
  339.28        2963.25           1405       12667.00     55309.23
  339.31        2963.50           1409       15128.00     66076.37
  339.34        2963.75           1412       17146.00     74910.53
  339.37        2964.00           1415       19331.00     84481.06
  339.39        2964.25           1419       21778.00     95205.72
  339.42        2964.50           1422       23824.00    104178.20
  339.45        2964.75           1425       25678.00    112312.90
  339.48        2965.00           1429       28371.00    124135.80
  339.50        2965.25           1432       30446.00    133251.30
  339.53        2965.50           1435       32587.00    142662.00
  339.56        2965.75           1439       35204.00    154172.20
  339.59        2966.00           1442       37086.00    162454.60
  339.62        2966.25           1445       38675.00    169450.80
  339.64        2966.50           1449       41076.00    180027.60
  339.67        2966.75           1452       41861.00    183487.20
  339.70        2967.00           1455       42103.00    184553.90
  339.73        2967.25           1459       42528.00    186427.30
  339.75        2967.50           1462       42460.00    186127.50
  339.79        2967.75           1465       42587.00    186687.40
  339.82        2968.00           1469       41829.00    183346.20
  339.85        2968.25           1472       40776.00    178705.70
  339.87        2968.50           1475       39033.00    171027.40
  339.90        2968.75           1479       36117.00    158189.70
  339.93        2969.00           1482       33987.00    148818.60
  339.96        2969.25           1485       32019.00    140164.90
  339.99        2969.50           1489       29560.00    129358.50
  340.02        2969.75           1492       27546.00    120513.00
  340.04        2970.00           1495       25567.00    111825.70
  340.07        2970.25           1499       23248.00    101651.70
  340.10        2970.50           1502       21628.00     94548.10
  340.13        2970.75           1505       19740.00     86273.13
  340.15        2971.00           1509       17004.00     74288.75
  340.18        2971.25           1512       14913.00     65135.44
  340.21        2971.50           1515       12838.00     56057.14
  340.24        2971.75           1519       10320.00     45047.33
  340.27        2972.00           1522        8429.00     36783.81
  340.29        2972.25           1525        6429.00     28048.44
  340.32        2972.50           1529        3697.00     16123.32
  340.35        2972.75           1532        1848.00      8057.31
  340.38        2973.00           1536         692.00      3016.40
  340.40        2973.25           1539         288.00      1255.06
  340.43        2973.50           1542         180.00       784.24
  340.46        2973.75           1546         140.00       609.86
  340.49        2974.00           1549         137.00       596.78
  340.52        2974.25           1552         129.00       561.91
  340.54        2974.50           1556         121.00       527.04
  340.57        2974.75           1559         127.00       553.19
  340.60        2975.00           1562         108.00       470.36
  340.63        2975.25           1566         110.00       479.08
  340.65        2975.50           1569         128.00       557.55
  340.68        2975.75           1572         105.00       457.29
  340.71        2976.00           1576         114.00       496.52
  340.74        2976.25           1579         106.00       461.65
  340.76        2976.50           1582         106.00       461.65
  340.79        2976.75           1586         114.00       496.52
  340.82        2977.00           1589         102.00       444.21
  340.85        2977.25           1592         106.00       461.65
  340.88        2977.50           1596         123.00       535.75
  340.91        2977.75           1599         109.00       474.72
  340.94        2978.00           1602         108.00       470.36
  340.96        2978.25           1606         109.00       474.72
  340.99        2978.50           1609         103.00       448.57
  341.02        2978.75           1612         108.00       470.36
  341.05        2979.00           1616         108.00       470.36
  341.07        2979.25           1619         103.00       448.57
  341.10        2979.50           1623         110.00       479.08
  341.13        2979.75           1626         106.00       461.65
  341.16        2980.00           1629         110.00       479.08
  341.19        2980.25           1633         104.00       452.93
  341.21        2980.50           1636          95.00       413.69
  341.24        2980.75           1639         106.00       461.65
  341.27        2981.00           1643         108.00       470.36
  341.30        2981.25           1646          96.00       418.05
  341.32        2981.50           1649          96.00       418.05
  341.35        2981.75           1653         107.00       466.00
  341.38        2982.00           1656         102.00       444.21
  341.41        2982.25           1659         104.00       452.93
  341.44        2982.50           1663         103.00       448.57
  341.46        2982.75           1666         113.00       492.16
  341.49        2983.00           1669          98.00       426.77
  341.52        2983.25           1673         102.00       444.21
  341.55        2983.50           1676         109.00       474.72
  341.57        2983.75           1679         104.00       452.93
  341.60        2984.00           1683         102.00       444.21
HS scan finished at 05:41:54
end
