************************************************************
  HS Scan of (1) Internal mercury lamp
************************************************************
Integration time is 0.2294 seconds per sample
dh120217DelftKZ 51.997-4.386 2.160408pr1000
************************************************************
Dead Time -------------------------  3E-08 
Number of Cycles Used -------------  4 
Starting Wavelength (Angstroms) ---  2950 
Final Wavelength (Angstoms) -------  2984 
Wavelength Increment (Angstroms) --  .25 
Filter Wheel #1 Position ---------- (1) Ground quartz diffuser (ND=2.32)
Filter Wheel #2 Position ---------- (1) Neutral Density 0.494



************************************************************
HS scan start time = 05:42:39
Dark Count =  0 


Time (GMT)  Wavelength (Ang)  Step Number  Raw Counts  Counts/Second

  343.10        2950.00           1229         140.00       610.30
  343.20        2950.25           1232         138.00       601.58
  343.23        2950.50           1236         126.00       549.27
  343.26        2950.75           1239         126.00       549.27
  343.29        2951.00           1242         126.00       549.27
  343.31        2951.25           1246         131.00       571.06
  343.34        2951.50           1249         133.00       579.78
  343.37        2951.75           1252         123.00       536.19
  343.40        2952.00           1255         134.00       584.14
  343.42        2952.25           1259         128.00       557.99
  343.45        2952.50           1262         122.00       531.83
  343.48        2952.75           1265         124.00       540.55
  343.51        2953.00           1269         125.00       544.91
  343.54        2953.25           1272         122.00       531.83
  343.57        2953.50           1275         136.00       592.86
  343.60        2953.75           1279         131.00       571.06
  343.62        2954.00           1282         124.00       540.55
  343.65        2954.25           1285         123.00       536.19
  343.68        2954.50           1289         125.00       544.91
  343.71        2954.75           1292         120.00       523.11
  343.73        2955.00           1295         128.00       557.99
  343.76        2955.25           1299         122.00       531.83
  343.79        2955.50           1302         111.00       483.88
  343.82        2955.75           1305         137.00       597.22
  343.85        2956.00           1309         123.00       536.19
  343.87        2956.25           1312         131.00       571.06
  343.90        2956.50           1315         121.00       527.47
  343.93        2956.75           1319         124.00       540.55
  343.96        2957.00           1322         125.00       544.91
  343.99        2957.25           1325         113.00       492.60
  344.02        2957.50           1329         116.00       505.67
  344.04        2957.75           1332         124.00       540.55
  344.07        2958.00           1335         121.00       527.47
  344.10        2958.25           1339         125.00       544.91
  344.13        2958.50           1342         117.00       510.03
  344.16        2958.75           1345         131.00       571.06
  344.18        2959.00           1349         122.00       531.83
  344.21        2959.25           1352         124.00       540.55
  344.24        2959.50           1355         130.00       566.71
  344.27        2959.75           1359         125.00       544.91
  344.29        2960.00           1362         126.00       549.27
  344.32        2960.25           1365         125.00       544.91
  344.35        2960.50           1369         136.00       592.86
  344.38        2960.75           1372         144.00       627.74
  344.40        2961.00           1375         138.00       601.58
  344.43        2961.25           1379         161.00       701.85
  344.46        2961.50           1382         225.00       980.85
  344.48        2961.75           1385         603.00      2628.80
  344.51        2962.00           1389        1722.00      7508.23
  344.54        2962.25           1392        2987.00     13026.02
  344.57        2962.50           1395        4595.00     20042.56
  344.60        2962.75           1399        7338.00     32018.54
  344.62        2963.00           1402        9479.00     41372.16
  344.65        2963.25           1405       11215.00     48960.27
  344.68        2963.50           1409       13625.00     59500.19
  344.71        2963.75           1412       15737.00     68742.32
  344.73        2964.00           1415       17620.00     76986.68
  344.76        2964.25           1419       19932.00     87114.91
  344.79        2964.50           1422       22219.00     97139.69
  344.82        2964.75           1425       24216.00    105898.20
  344.84        2965.00           1429       26436.00    115640.20
  344.87        2965.25           1432       28204.00    123402.80
  344.90        2965.50           1435       30372.00    132926.60
  344.93        2965.75           1439       32839.00    143770.50
  344.96        2966.00           1442       34237.00    149918.60
  344.98        2966.25           1445       35735.00    156509.10
  345.01        2966.50           1449       38150.00    167139.40
  345.04        2966.75           1452       38837.00    170164.60
  345.07        2967.00           1455       39345.00    172402.00
  345.09        2967.25           1459       39342.00    172388.80
  345.12        2967.50           1462       39471.00    172957.00
  345.15        2967.75           1465       39468.00    172943.80
  345.18        2968.00           1469       38503.00    168693.80
  345.21        2968.25           1472       37314.00    163458.70
  345.23        2968.50           1475       35798.00    156786.30
  345.26        2968.75           1479       33924.00    148541.90
  345.29        2969.00           1482       32422.00    141937.00
  345.32        2969.25           1485       30703.00    134381.10
  345.34        2969.50           1489       28199.00    123380.90
  345.37        2969.75           1492       26325.00    115153.00
  345.40        2970.00           1495       24619.00    107666.30
  345.43        2970.25           1499       21637.00     94588.00
  345.45        2970.50           1502       19763.00     86374.35
  345.48        2970.75           1505       18128.00     79211.55
  345.51        2971.00           1509       15745.00     68777.33
  345.54        2971.25           1512       13842.00     60449.55
  345.57        2971.50           1515       12107.00     52860.57
  345.59        2971.75           1519       10075.00     43976.90
  345.62        2972.00           1522        8326.00     36334.27
  345.65        2972.25           1525        6493.00     28328.34
  345.68        2972.50           1529        4044.00     17637.93
  345.70        2972.75           1532        2222.00      9688.95
  345.73        2973.00           1536         817.00      3561.85
  345.76        2973.25           1539         401.00      1748.13
  345.79        2973.50           1542         174.00       758.52
  345.81        2973.75           1546         134.00       584.14
  345.84        2974.00           1549         131.00       571.06
  345.87        2974.25           1552         120.00       523.11
  345.90        2974.50           1556         134.00       584.14
  345.92        2974.75           1559         113.00       492.60
  345.95        2975.00           1562         119.00       518.75
  345.98        2975.25           1566         114.00       496.96
  346.01        2975.50           1569         113.00       492.60
  346.03        2975.75           1572         109.00       475.16
  346.06        2976.00           1576         115.00       501.32
  346.09        2976.25           1579         108.00       470.80
  346.12        2976.50           1582         111.00       483.88
  346.15        2976.75           1586         109.00       475.16
  346.18        2977.00           1589         104.00       453.36
  346.21        2977.25           1592         109.00       475.16
  346.24        2977.50           1596         107.00       466.44
  346.27        2977.75           1599         113.00       492.60
  346.29        2978.00           1602         110.00       479.52
  346.32        2978.25           1606         110.00       479.52
  346.35        2978.50           1609         112.00       488.24
  346.38        2978.75           1612         109.00       475.16
  346.40        2979.00           1616          93.00       405.41
  346.43        2979.25           1619         108.00       470.80
  346.46        2979.50           1623         111.00       483.88
  346.49        2979.75           1626         100.00       435.93
  346.51        2980.00           1629         110.00       479.52
  346.54        2980.25           1633          98.00       427.21
  346.57        2980.50           1636          96.00       418.49
  346.60        2980.75           1639         103.00       449.00
  346.62        2981.00           1643         108.00       470.80
  346.65        2981.25           1646          94.00       409.77
  346.68        2981.50           1649         108.00       470.80
  346.71        2981.75           1653         108.00       470.80
  346.73        2982.00           1656         102.00       444.64
  346.76        2982.25           1659          97.00       422.85
  346.79        2982.50           1663          97.00       422.85
  346.82        2982.75           1666          95.00       414.13
  346.84        2983.00           1669         101.00       440.28
  346.87        2983.25           1673          94.00       409.77
  346.90        2983.50           1676         102.00       444.64
  346.93        2983.75           1679          92.00       401.05
  346.95        2984.00           1683         101.00       440.28
HS scan finished at 05:47:15
end
