************************************************************
  HS Scan of (1) Internal mercury lamp
************************************************************
Integration time is 0.2294 seconds per sample
dh110217DelftKZ 51.997-4.386 2.10676pr1000
************************************************************
Dead Time -------------------------  3E-08 
Number of Cycles Used -------------  4 
Starting Wavelength (Angstroms) ---  2950 
Final Wavelength (Angstoms) -------  2984 
Wavelength Increment (Angstroms) --  .25 
Filter Wheel #1 Position ---------- (1) Ground quartz diffuser (ND=2.32)
Filter Wheel #2 Position ---------- (1) Neutral Density 0.494



************************************************************
HS scan start time = 05:44:01
Dark Count =  0 


Time (GMT)  Wavelength (Ang)  Step Number  Raw Counts  Counts/Second

  344.47        2950.00           1229         133.00       579.78
  344.57        2950.25           1232         125.00       544.91
  344.60        2950.50           1236         130.00       566.71
  344.63        2950.75           1239         121.00       527.47
  344.66        2951.00           1242         134.00       584.14
  344.68        2951.25           1246         132.00       575.42
  344.71        2951.50           1249         119.00       518.75
  344.74        2951.75           1252         132.00       575.42
  344.77        2952.00           1255         126.00       549.27
  344.79        2952.25           1259         127.00       553.63
  344.82        2952.50           1262         120.00       523.11
  344.85        2952.75           1265         130.00       566.71
  344.88        2953.00           1269         119.00       518.75
  344.90        2953.25           1272         137.00       597.22
  344.93        2953.50           1275         131.00       571.06
  344.96        2953.75           1279         122.00       531.83
  344.99        2954.00           1282         130.00       566.71
  345.01        2954.25           1285         128.00       557.99
  345.04        2954.50           1289         128.00       557.99
  345.07        2954.75           1292         128.00       557.99
  345.10        2955.00           1295         126.00       549.27
  345.12        2955.25           1299         137.00       597.22
  345.15        2955.50           1302         134.00       584.14
  345.18        2955.75           1305         123.00       536.19
  345.21        2956.00           1309         114.00       496.96
  345.23        2956.25           1312         119.00       518.75
  345.26        2956.50           1315         130.00       566.71
  345.29        2956.75           1319         124.00       540.55
  345.32        2957.00           1322         115.00       501.32
  345.34        2957.25           1325         126.00       549.27
  345.37        2957.50           1329         118.00       514.39
  345.40        2957.75           1332         121.00       527.47
  345.43        2958.00           1335         135.00       588.50
  345.45        2958.25           1339         131.00       571.06
  345.48        2958.50           1342         127.00       553.63
  345.51        2958.75           1345         124.00       540.55
  345.53        2959.00           1349         128.00       557.99
  345.56        2959.25           1352         116.00       505.67
  345.59        2959.50           1355         122.00       531.83
  345.62        2959.75           1359         137.00       597.22
  345.64        2960.00           1362         126.00       549.27
  345.67        2960.25           1365         133.00       579.78
  345.70        2960.50           1369         138.00       601.58
  345.73        2960.75           1372         136.00       592.86
  345.75        2961.00           1375         148.00       645.17
  345.78        2961.25           1379         158.00       688.77
  345.81        2961.50           1382         226.00       985.21
  345.84        2961.75           1385         609.00      2654.96
  345.86        2962.00           1389        2026.00      8834.08
  345.89        2962.25           1392        3608.00     15735.41
  345.92        2962.50           1395        5316.00     23189.62
  345.95        2962.75           1399        7389.00     32241.29
  345.97        2963.00           1402        9436.00     41184.25
  346.00        2963.25           1405       11376.00     49664.18
  346.03        2963.50           1409       14047.00     61346.46
  346.06        2963.75           1412       16173.00     70650.91
  346.08        2964.00           1415       17801.00     77779.37
  346.11        2964.25           1419       20251.00     88512.84
  346.14        2964.50           1422       22504.00     98389.38
  346.17        2964.75           1425       24332.00    106407.10
  346.19        2965.00           1429       26898.00    117668.40
  346.22        2965.25           1432       28604.00    125159.60
  346.25        2965.50           1435       30386.00    132988.10
  346.28        2965.75           1439       32711.00    143207.70
  346.30        2966.00           1442       34786.00    152333.60
  346.33        2966.25           1445       36654.00    160553.50
  346.36        2966.50           1449       38735.00    169715.40
  346.39        2966.75           1452       39660.00    173789.50
  346.42        2967.00           1455       40266.00    176459.10
  346.44        2967.25           1459       40264.00    176450.30
  346.47        2967.50           1462       40400.00    177049.50
  346.50        2967.75           1465       40321.00    176701.40
  346.53        2968.00           1469       39132.00    171463.90
  346.55        2968.25           1472       38191.00    167319.90
  346.58        2968.50           1475       36949.00    161852.00
  346.61        2968.75           1479       34821.00    152487.60
  346.64        2969.00           1482       32670.00    143027.40
  346.66        2969.25           1485       30864.00    135088.60
  346.69        2969.50           1489       28441.00    124443.70
  346.72        2969.75           1492       26555.00    116162.60
  346.75        2970.00           1495       24729.00    108148.90
  346.77        2970.25           1499       22057.00     96429.38
  346.80        2970.50           1502       20200.00     88289.34
  346.83        2970.75           1505       18148.00     79299.16
  346.86        2971.00           1509       15891.00     69416.43
  346.88        2971.25           1512       14290.00     62409.69
  346.91        2971.50           1515       12716.00     55523.98
  346.94        2971.75           1519       10331.00     45095.84
  346.97        2972.00           1522        8308.00     36255.63
  346.99        2972.25           1525        6300.00     27485.60
  347.02        2972.50           1529        3925.00     17118.64
  347.05        2972.75           1532        2301.00     10033.53
  347.08        2973.00           1536         832.00      3627.25
  347.10        2973.25           1539         345.00      1503.99
  347.13        2973.50           1542         174.00       758.52
  347.16        2973.75           1546         132.00       575.42
  347.19        2974.00           1549         137.00       597.22
  347.22        2974.25           1552         121.00       527.47
  347.24        2974.50           1556         113.00       492.60
  347.27        2974.75           1559         119.00       518.75
  347.30        2975.00           1562         113.00       492.60
  347.33        2975.25           1566         112.00       488.24
  347.35        2975.50           1569         105.00       457.72
  347.38        2975.75           1572         107.00       466.44
  347.41        2976.00           1576         114.00       496.96
  347.44        2976.25           1579         107.00       466.44
  347.46        2976.50           1582         107.00       466.44
  347.49        2976.75           1586         109.00       475.16
  347.52        2977.00           1589         106.00       462.08
  347.54        2977.25           1592         114.00       496.96
  347.58        2977.50           1596         113.00       492.60
  347.61        2977.75           1599         117.00       510.03
  347.63        2978.00           1602         107.00       466.44
  347.66        2978.25           1606          99.00       431.57
  347.69        2978.50           1609         108.00       470.80
  347.72        2978.75           1612         104.00       453.36
  347.74        2979.00           1616         113.00       492.60
  347.77        2979.25           1619         107.00       466.44
  347.80        2979.50           1623         117.00       510.03
  347.83        2979.75           1626         105.00       457.72
  347.85        2980.00           1629         105.00       457.72
  347.88        2980.25           1633         104.00       453.36
  347.91        2980.50           1636         103.00       449.00
  347.94        2980.75           1639         109.00       475.16
  347.96        2981.00           1643         105.00       457.72
  347.99        2981.25           1646          99.00       431.57
  348.02        2981.50           1649          98.00       427.21
  348.05        2981.75           1653         104.00       453.36
  348.07        2982.00           1656         101.00       440.28
  348.10        2982.25           1659          97.00       422.85
  348.13        2982.50           1663          98.00       427.21
  348.16        2982.75           1666          97.00       422.85
  348.18        2983.00           1669         107.00       466.44
  348.21        2983.25           1673         101.00       440.28
  348.24        2983.50           1676          98.00       427.21
  348.27        2983.75           1679         103.00       449.00
  348.29        2984.00           1683         101.00       440.28
HS scan finished at 05:48:35
end
