************************************************************
  HS Scan of (1) Internal mercury lamp
************************************************************
Integration time is 0.2294 seconds per sample
dh280217DelftKZ 51.997-4.386 2.214056pr1000
************************************************************
Dead Time -------------------------  3E-08 
Number of Cycles Used -------------  4 
Starting Wavelength (Angstroms) ---  2950 
Final Wavelength (Angstoms) -------  2984 
Wavelength Increment (Angstroms) --  .25 
Filter Wheel #1 Position ---------- (1) Ground quartz diffuser (ND=2.32)
Filter Wheel #2 Position ---------- (1) Neutral Density 0.494



************************************************************
HS scan start time = 05:11:17
Dark Count =  0 


Time (GMT)  Wavelength (Ang)  Step Number  Raw Counts  Counts/Second

  311.74        2950.00           1229         129.00       562.35
  311.83        2950.25           1232         132.00       575.42
  311.86        2950.50           1236         134.00       584.14
  311.89        2950.75           1239         131.00       571.06
  311.92        2951.00           1242         129.00       562.35
  311.95        2951.25           1246         125.00       544.91
  311.97        2951.50           1249         127.00       553.63
  312.00        2951.75           1252         132.00       575.42
  312.03        2952.00           1255         128.00       557.99
  312.06        2952.25           1259         133.00       579.78
  312.08        2952.50           1262         131.00       571.06
  312.11        2952.75           1265         127.00       553.63
  312.14        2953.00           1269         127.00       553.63
  312.17        2953.25           1272         131.00       571.06
  312.19        2953.50           1275         131.00       571.06
  312.22        2953.75           1279         121.00       527.47
  312.25        2954.00           1282         119.00       518.75
  312.28        2954.25           1285         118.00       514.39
  312.30        2954.50           1289         127.00       553.63
  312.33        2954.75           1292         129.00       562.35
  312.36        2955.00           1295         132.00       575.42
  312.39        2955.25           1299         132.00       575.42
  312.41        2955.50           1302         118.00       514.39
  312.44        2955.75           1305         123.00       536.19
  312.47        2956.00           1309         123.00       536.19
  312.51        2956.25           1312         113.00       492.60
  312.54        2956.50           1315         112.00       488.24
  312.56        2956.75           1319         118.00       514.39
  312.59        2957.00           1322         118.00       514.39
  312.62        2957.25           1325         124.00       540.55
  312.65        2957.50           1329         128.00       557.99
  312.68        2957.75           1332         127.00       553.63
  312.70        2958.00           1335         123.00       536.19
  312.73        2958.25           1339         124.00       540.55
  312.76        2958.50           1342         122.00       531.83
  312.79        2958.75           1345         122.00       531.83
  312.82        2959.00           1349         127.00       553.63
  312.85        2959.25           1352         123.00       536.19
  312.88        2959.50           1355         132.00       575.42
  312.91        2959.75           1359         120.00       523.11
  312.94        2960.00           1362         128.00       557.99
  312.96        2960.25           1365         124.00       540.55
  312.99        2960.50           1369         121.00       527.47
  313.02        2960.75           1372         128.00       557.99
  313.05        2961.00           1375         144.00       627.74
  313.07        2961.25           1379         140.00       610.30
  313.10        2961.50           1382         204.00       889.30
  313.13        2961.75           1385         630.00      2746.52
  313.16        2962.00           1389        1990.00      8677.06
  313.19        2962.25           1392        3366.00     14679.52
  313.21        2962.50           1395        4813.00     20994.04
  313.24        2962.75           1399        7397.00     32276.23
  313.27        2963.00           1402        9308.00     40624.90
  313.30        2963.25           1405       11067.00     48313.22
  313.32        2963.50           1409       13913.00     60760.18
  313.35        2963.75           1412       15927.00     69574.01
  313.38        2964.00           1415       17867.00     78068.43
  313.41        2964.25           1419       20626.00     90156.33
  313.43        2964.50           1422       22530.00     98503.39
  313.46        2964.75           1425       24648.00    107793.50
  313.49        2965.00           1429       27139.00    118726.40
  313.52        2965.25           1432       28697.00    125568.00
  313.55        2965.50           1435       30620.00    134016.40
  313.58        2965.75           1439       33038.00    144645.50
  313.60        2966.00           1442       35001.00    153279.50
  313.63        2966.25           1445       36630.00    160447.90
  313.66        2966.50           1449       38693.00    169530.50
  313.69        2966.75           1452       39673.00    173846.80
  313.71        2967.00           1455       40112.00    175780.70
  313.74        2967.25           1459       40275.00    176498.80
  313.77        2967.50           1462       40321.00    176701.40
  313.80        2967.75           1465       40461.00    177318.30
  313.83        2968.00           1469       39925.00    174956.90
  313.86        2968.25           1472       38921.00    170534.60
  313.89        2968.50           1475       37467.00    164132.30
  313.91        2968.75           1479       35092.00    153679.90
  313.94        2969.00           1482       32959.00    144298.10
  313.97        2969.25           1485       31113.00    136183.00
  314.00        2969.50           1489       28499.00    124698.40
  314.03        2969.75           1492       26664.00    116641.10
  314.05        2970.00           1495       24715.00    108087.50
  314.08        2970.25           1499       22279.00     97402.78
  314.11        2970.50           1502       20662.00     90314.12
  314.14        2970.75           1505       19299.00     84341.30
  314.16        2971.00           1509       16729.00     73085.10
  314.19        2971.25           1512       14721.00     64295.65
  314.22        2971.50           1515       12599.00     55012.26
  314.25        2971.75           1519        9829.00     42901.74
  314.27        2972.00           1522        7915.00     34538.82
  314.30        2972.25           1525        6160.00     26874.32
  314.33        2972.50           1529        3917.00     17083.73
  314.36        2972.75           1532        2271.00      9902.68
  314.39        2973.00           1536         727.00      3169.44
  314.41        2973.25           1539         273.00      1190.10
  314.44        2973.50           1542         176.00       767.24
  314.47        2973.75           1546         140.00       610.30
  314.50        2974.00           1549         138.00       601.58
  314.53        2974.25           1552         130.00       566.71
  314.55        2974.50           1556         126.00       549.27
  314.58        2974.75           1559         126.00       549.27
  314.61        2975.00           1562         115.00       501.32
  314.64        2975.25           1566         110.00       479.52
  314.66        2975.50           1569         113.00       492.60
  314.69        2975.75           1572         114.00       496.96
  314.72        2976.00           1576         104.00       453.36
  314.75        2976.25           1579         101.00       440.28
  314.77        2976.50           1582         116.00       505.67
  314.80        2976.75           1586         110.00       479.52
  314.83        2977.00           1589         103.00       449.00
  314.86        2977.25           1592         111.00       483.88
  314.88        2977.50           1596         113.00       492.60
  314.91        2977.75           1599         111.00       483.88
  314.94        2978.00           1602         108.00       470.80
  314.97        2978.25           1606         101.00       440.28
  314.99        2978.50           1609         105.00       457.72
  315.02        2978.75           1612         111.00       483.88
  315.05        2979.00           1616         114.00       496.96
  315.08        2979.25           1619         109.00       475.16
  315.11        2979.50           1623         104.00       453.36
  315.14        2979.75           1626         103.00       449.00
  315.17        2980.00           1629         108.00       470.80
  315.19        2980.25           1633         103.00       449.00
  315.22        2980.50           1636         115.00       501.32
  315.25        2980.75           1639         106.00       462.08
  315.28        2981.00           1643         117.00       510.03
  315.30        2981.25           1646          97.00       422.85
  315.33        2981.50           1649         103.00       449.00
  315.36        2981.75           1653         111.00       483.88
  315.39        2982.00           1656         105.00       457.72
  315.41        2982.25           1659         113.00       492.60
  315.45        2982.50           1663         104.00       453.36
  315.48        2982.75           1666          95.00       414.13
  315.51        2983.00           1669         105.00       457.72
  315.54        2983.25           1673         103.00       449.00
  315.56        2983.50           1676         101.00       440.28
  315.59        2983.75           1679         104.00       453.36
  315.62        2984.00           1683          93.00       405.41
HS scan finished at 05:15:55
end
