************************************************************
  HS Scan of (1) Internal mercury lamp
************************************************************
Integration time is 0.2294 seconds per sample
dh040317DelftKZ 51.997-4.386 2.535944pr1000
************************************************************
Dead Time -------------------------  3E-08 
Number of Cycles Used -------------  4 
Starting Wavelength (Angstroms) ---  2950 
Final Wavelength (Angstoms) -------  2984 
Wavelength Increment (Angstroms) --  .25 
Filter Wheel #1 Position ---------- (1) Ground quartz diffuser (ND=2.32)
Filter Wheel #2 Position ---------- (1) Neutral Density 0.494



************************************************************
HS scan start time = 05:02:23
Dark Count =  0 


Time (GMT)  Wavelength (Ang)  Step Number  Raw Counts  Counts/Second

  302.84        2950.00           1229         125.00       544.91
  302.95        2950.25           1232         118.00       514.39
  302.97        2950.50           1236         131.00       571.06
  303.00        2950.75           1239         141.00       614.66
  303.03        2951.00           1242         137.00       597.22
  303.06        2951.25           1246         135.00       588.50
  303.08        2951.50           1249         127.00       553.63
  303.11        2951.75           1252         130.00       566.71
  303.14        2952.00           1255         121.00       527.47
  303.17        2952.25           1259         133.00       579.78
  303.20        2952.50           1262         130.00       566.71
  303.23        2952.75           1265         130.00       566.71
  303.26        2953.00           1269         124.00       540.55
  303.28        2953.25           1272         136.00       592.86
  303.31        2953.50           1275         133.00       579.78
  303.34        2953.75           1279         126.00       549.27
  303.37        2954.00           1282         131.00       571.06
  303.39        2954.25           1285         124.00       540.55
  303.43        2954.50           1289         141.00       614.66
  303.46        2954.75           1292         120.00       523.11
  303.49        2955.00           1295         125.00       544.91
  303.52        2955.25           1299         142.00       619.02
  303.55        2955.50           1302         130.00       566.71
  303.58        2955.75           1305         130.00       566.71
  303.61        2956.00           1309         136.00       592.86
  303.63        2956.25           1312         130.00       566.71
  303.66        2956.50           1315         124.00       540.55
  303.69        2956.75           1319         130.00       566.71
  303.72        2957.00           1322         131.00       571.06
  303.74        2957.25           1325         120.00       523.11
  303.77        2957.50           1329         120.00       523.11
  303.80        2957.75           1332         115.00       501.32
  303.83        2958.00           1335         124.00       540.55
  303.85        2958.25           1339         118.00       514.39
  303.88        2958.50           1342         113.00       492.60
  303.92        2958.75           1345         131.00       571.06
  303.95        2959.00           1349         124.00       540.55
  303.97        2959.25           1352         124.00       540.55
  304.00        2959.50           1355         128.00       557.99
  304.03        2959.75           1359         118.00       514.39
  304.06        2960.00           1362         124.00       540.55
  304.09        2960.25           1365         117.00       510.03
  304.11        2960.50           1369         136.00       592.86
  304.14        2960.75           1372         130.00       566.71
  304.17        2961.00           1375         145.00       632.10
  304.20        2961.25           1379         166.00       723.64
  304.22        2961.50           1382         273.00      1190.10
  304.25        2961.75           1385         969.00      4224.60
  304.28        2962.00           1389        2838.00     12376.00
  304.31        2962.25           1392        5080.00     22159.45
  304.33        2962.50           1395        7480.00     32638.75
  304.36        2962.75           1399        9926.00     43325.67
  304.39        2963.00           1402       12330.00     53835.79
  304.43        2963.25           1405       15160.00     66216.86
  304.46        2963.50           1409       18277.00     79864.19
  304.48        2963.75           1412       21021.00     91887.66
  304.51        2964.00           1415       23878.00    104415.50
  304.54        2964.25           1419       27525.00    120421.20
  304.57        2964.50           1422       30029.00    131419.50
  304.60        2964.75           1425       32689.00    143110.90
  304.62        2965.00           1429       36152.00    158344.10
  304.65        2965.25           1432       38606.00    169147.40
  304.68        2965.50           1435       40871.00    179124.80
  304.71        2965.75           1439       43584.00    191083.50
  304.73        2966.00           1442       45987.00    201683.00
  304.76        2966.25           1445       48355.00    212134.80
  304.79        2966.50           1449       51189.00    224652.00
  304.82        2966.75           1452       52171.00    228991.50
  304.84        2967.00           1455       52605.00    230909.70
  304.87        2967.25           1459       52942.00    232399.30
  304.90        2967.50           1462       52731.00    231466.60
  304.93        2967.75           1465       52524.00    230551.60
  304.96        2968.00           1469       51368.00    225442.90
  304.98        2968.25           1472       50065.00    219686.40
  305.01        2968.50           1475       48372.00    212209.80
  305.04        2968.75           1479       45177.00    198109.40
  305.07        2969.00           1482       42966.00    188358.70
  305.09        2969.25           1485       40294.00    176582.50
  305.12        2969.50           1489       36763.00    161033.30
  305.15        2969.75           1492       33881.00    148352.80
  305.18        2970.00           1495       31609.00    138363.00
  305.21        2970.25           1499       28788.00    125967.70
  305.24        2970.50           1502       26319.00    115126.70
  305.27        2970.75           1505       23763.00    103911.10
  305.30        2971.00           1509       20950.00     91576.44
  305.32        2971.25           1512       18582.00     81200.19
  305.35        2971.50           1515       16063.00     70169.35
  305.38        2971.75           1519       12638.00     55182.83
  305.41        2972.00           1522        9865.00     43059.08
  305.43        2972.25           1525        7234.00     31564.32
  305.46        2972.50           1529        4249.00     18532.53
  305.49        2972.75           1532        2312.00     10081.51
  305.52        2973.00           1536         775.00      3378.72
  305.55        2973.25           1539         274.00      1194.46
  305.57        2973.50           1542         187.00       815.19
  305.60        2973.75           1546         148.00       645.17
  305.63        2974.00           1549         147.00       640.81
  305.66        2974.25           1552         138.00       601.58
  305.68        2974.50           1556         126.00       549.27
  305.71        2974.75           1559         126.00       549.27
  305.75        2975.00           1562         124.00       540.55
  305.77        2975.25           1566         117.00       510.03
  305.80        2975.50           1569         116.00       505.67
  305.83        2975.75           1572         108.00       470.80
  305.86        2976.00           1576         115.00       501.32
  305.88        2976.25           1579         108.00       470.80
  305.91        2976.50           1582         113.00       492.60
  305.94        2976.75           1586         124.00       540.55
  305.97        2977.00           1589         104.00       453.36
  305.99        2977.25           1592         107.00       466.44
  306.02        2977.50           1596          99.00       431.57
  306.05        2977.75           1599         112.00       488.24
  306.08        2978.00           1602         122.00       531.83
  306.10        2978.25           1606         110.00       479.52
  306.13        2978.50           1609         115.00       501.32
  306.16        2978.75           1612         111.00       483.88
  306.19        2979.00           1616         110.00       479.52
  306.22        2979.25           1619         126.00       549.27
  306.24        2979.50           1623         103.00       449.00
  306.27        2979.75           1626         108.00       470.80
  306.30        2980.00           1629         113.00       492.60
  306.33        2980.25           1633         109.00       475.16
  306.35        2980.50           1636         100.00       435.93
  306.38        2980.75           1639         117.00       510.03
  306.41        2981.00           1643         117.00       510.03
  306.44        2981.25           1646          99.00       431.57
  306.46        2981.50           1649         107.00       466.44
  306.49        2981.75           1653         104.00       453.36
  306.52        2982.00           1656          99.00       431.57
  306.55        2982.25           1659         102.00       444.64
  306.57        2982.50           1663         107.00       466.44
  306.60        2982.75           1666         104.00       453.36
  306.63        2983.00           1669         104.00       453.36
  306.66        2983.25           1673         106.00       462.08
  306.69        2983.50           1676         112.00       488.24
  306.72        2983.75           1679         106.00       462.08
  306.75        2984.00           1683         103.00       449.00
HS scan finished at 05:07:03
end
