************************************************************
  HS Scan of (1) Internal mercury lamp
************************************************************
Integration time is 0.2294 seconds per sample
dh070317DelftKZ 51.997-4.386 2.375pr1000
************************************************************
Dead Time -------------------------  3E-08 
Number of Cycles Used -------------  4 
Starting Wavelength (Angstroms) ---  2950 
Final Wavelength (Angstoms) -------  2984 
Wavelength Increment (Angstroms) --  .25 
Filter Wheel #1 Position ---------- (1) Ground quartz diffuser (ND=2.32)
Filter Wheel #2 Position ---------- (1) Neutral Density 0.494



************************************************************
HS scan start time = 04:55:16
Dark Count =  .1 


Time (GMT)  Wavelength (Ang)  Step Number  Raw Counts  Counts/Second

  295.72        2950.00           1229         136.00       592.43
  295.82        2950.25           1232         116.00       505.24
  295.84        2950.50           1236         129.00       561.91
  295.87        2950.75           1239         135.00       588.07
  295.90        2951.00           1242         139.00       605.50
  295.94        2951.25           1246         124.00       540.11
  295.97        2951.50           1249         122.00       531.39
  296.00        2951.75           1252         128.00       557.55
  296.03        2952.00           1255         119.00       518.32
  296.06        2952.25           1259         123.00       535.75
  296.08        2952.50           1262         138.00       601.14
  296.11        2952.75           1265         128.00       557.55
  296.14        2953.00           1269         130.00       566.27
  296.17        2953.25           1272         131.00       570.63
  296.19        2953.50           1275         130.00       566.27
  296.22        2953.75           1279         143.00       622.94
  296.25        2954.00           1282         131.00       570.63
  296.28        2954.25           1285         124.00       540.11
  296.30        2954.50           1289         132.00       574.99
  296.33        2954.75           1292         126.00       548.83
  296.36        2955.00           1295         137.00       596.78
  296.39        2955.25           1299         128.00       557.55
  296.42        2955.50           1302         131.00       570.63
  296.45        2955.75           1305         124.00       540.11
  296.48        2956.00           1309         128.00       557.55
  296.50        2956.25           1312         127.00       553.19
  296.53        2956.50           1315         104.00       452.93
  296.56        2956.75           1319         122.00       531.39
  296.59        2957.00           1322         129.00       561.91
  296.62        2957.25           1325         116.00       505.24
  296.64        2957.50           1329         119.00       518.32
  296.67        2957.75           1332         129.00       561.91
  296.70        2958.00           1335         136.00       592.43
  296.73        2958.25           1339         123.00       535.75
  296.75        2958.50           1342         119.00       518.32
  296.78        2958.75           1345         131.00       570.63
  296.81        2959.00           1349         123.00       535.75
  296.84        2959.25           1352         118.00       513.96
  296.87        2959.50           1355         130.00       566.27
  296.89        2959.75           1359         126.00       548.83
  296.92        2960.00           1362         120.00       522.68
  296.95        2960.25           1365         129.00       561.91
  296.98        2960.50           1369         126.00       548.83
  297.00        2960.75           1372         123.00       535.75
  297.03        2961.00           1375         143.00       622.94
  297.06        2961.25           1379         164.00       714.49
  297.09        2961.50           1382         292.00      1272.50
  297.12        2961.75           1385         973.00      4241.60
  297.14        2962.00           1389        2441.00     10643.77
  297.17        2962.25           1392        4173.00     18200.43
  297.20        2962.50           1395        6125.00     26721.06
  297.23        2962.75           1399        9029.00     39405.33
  297.25        2963.00           1402       11361.00     49598.16
  297.28        2963.25           1405       13344.00     58270.48
  297.31        2963.50           1409       16031.00     70028.84
  297.34        2963.75           1412       18404.00     80420.04
  297.37        2964.00           1415       20935.00     91510.25
  297.39        2964.25           1419       23879.00    104419.40
  297.42        2964.50           1422       26442.00    115666.10
  297.45        2964.75           1425       29399.00    128651.20
  297.48        2965.00           1429       32261.00    141228.80
  297.51        2965.25           1432       34189.00    149707.00
  297.54        2965.50           1435       36483.00    159800.40
  297.57        2965.75           1439       39541.00    173264.90
  297.59        2966.00           1442       41877.00    183557.70
  297.63        2966.25           1445       43068.00    188807.90
  297.66        2966.50           1449       45044.00    197522.30
  297.69        2966.75           1452       46185.00    202556.30
  297.72        2967.00           1455       46655.00    204630.30
  297.75        2967.25           1459       47278.00    207379.90
  297.77        2967.50           1462       46792.00    205234.90
  297.80        2967.75           1465       46750.00    205049.50
  297.83        2968.00           1469       45825.00    200967.80
  297.86        2968.25           1472       44197.00    193786.40
  297.88        2968.50           1475       42513.00    186361.20
  297.91        2968.75           1479       39574.00    173410.30
  297.94        2969.00           1482       37926.00    166152.60
  297.97        2969.25           1485       35652.00    156143.40
  298.00        2969.50           1489       32981.00    144394.40
  298.02        2969.75           1492       30796.00    134789.40
  298.05        2970.00           1495       28730.00    125712.50
  298.08        2970.25           1499       25519.00    111615.10
  298.11        2970.50           1502       23515.00    102822.80
  298.13        2970.75           1505       21529.00     94114.09
  298.16        2971.00           1509       18873.00     82474.52
  298.19        2971.25           1512       16156.00     70576.04
  298.22        2971.50           1515       13907.00     60733.49
  298.24        2971.75           1519       11799.00     51513.29
  298.27        2972.00           1522        9593.00     41869.92
  298.30        2972.25           1525        7263.00     31690.53
  298.33        2972.50           1529        4248.00     18527.73
  298.36        2972.75           1532        2041.00      8899.06
  298.39        2973.00           1536         598.00      2606.57
  298.42        2973.25           1539         265.00      1154.79
  298.44        2973.50           1542         186.00       810.39
  298.47        2973.75           1546         150.00       653.46
  298.50        2974.00           1549         140.00       609.86
  298.53        2974.25           1552         137.00       596.78
  298.56        2974.50           1556         125.00       544.47
  298.58        2974.75           1559         123.00       535.75
  298.61        2975.00           1562         119.00       518.32
  298.64        2975.25           1566         119.00       518.32
  298.67        2975.50           1569         116.00       505.24
  298.69        2975.75           1572         114.00       496.52
  298.72        2976.00           1576         117.00       509.60
  298.75        2976.25           1579         106.00       461.65
  298.78        2976.50           1582         112.00       487.80
  298.80        2976.75           1586         114.00       496.52
  298.83        2977.00           1589         116.00       505.24
  298.86        2977.25           1592         112.00       487.80
  298.90        2977.50           1596         109.00       474.72
  298.93        2977.75           1599         107.00       466.00
  298.95        2978.00           1602         107.00       466.00
  298.98        2978.25           1606         109.00       474.72
  299.01        2978.50           1609         109.00       474.72
  299.04        2978.75           1612         113.00       492.16
  299.06        2979.00           1616         107.00       466.00
  299.09        2979.25           1619         114.00       496.52
  299.12        2979.50           1623         106.00       461.65
  299.15        2979.75           1626          99.00       431.13
  299.17        2980.00           1629         102.00       444.21
  299.20        2980.25           1633         114.00       496.52
  299.23        2980.50           1636         100.00       435.49
  299.26        2980.75           1639         111.00       483.44
  299.29        2981.00           1643         105.00       457.29
  299.31        2981.25           1646         107.00       466.00
  299.34        2981.50           1649          99.00       431.13
  299.37        2981.75           1653         101.00       439.85
  299.40        2982.00           1656         106.00       461.65
  299.42        2982.25           1659         104.00       452.93
  299.45        2982.50           1663         108.00       470.36
  299.48        2982.75           1666         110.00       479.08
  299.51        2983.00           1669         101.00       439.85
  299.54        2983.25           1673         114.00       496.52
  299.56        2983.50           1676         102.00       444.21
  299.59        2983.75           1679          97.00       422.41
  299.62        2984.00           1683          94.00       409.33
HS scan finished at 04:59:55
end
