************************************************************
  HS Scan of (1) Internal mercury lamp
************************************************************
Integration time is 0.2294 seconds per sample
dh100317DelftKZ 51.997-4.386 2.214056pr1000
************************************************************
Dead Time -------------------------  3E-08 
Number of Cycles Used -------------  4 
Starting Wavelength (Angstroms) ---  2950 
Final Wavelength (Angstoms) -------  2984 
Wavelength Increment (Angstroms) --  .25 
Filter Wheel #1 Position ---------- (1) Ground quartz diffuser (ND=2.32)
Filter Wheel #2 Position ---------- (1) Neutral Density 0.494



************************************************************
HS scan start time = 00:32:22
Dark Count =  0 


Time (GMT)  Wavelength (Ang)  Step Number  Raw Counts  Counts/Second

   32.82        2950.00           1229         133.00       579.78
   32.92        2950.25           1232         132.00       575.42
   32.95        2950.50           1236         128.00       557.99
   32.98        2950.75           1239         139.00       605.94
   33.01        2951.00           1242         127.00       553.63
   33.04        2951.25           1246         124.00       540.55
   33.06        2951.50           1249         124.00       540.55
   33.09        2951.75           1252         137.00       597.22
   33.12        2952.00           1255         127.00       553.63
   33.15        2952.25           1259         130.00       566.71
   33.17        2952.50           1262         133.00       579.78
   33.20        2952.75           1265         144.00       627.74
   33.23        2953.00           1269         125.00       544.91
   33.26        2953.25           1272         124.00       540.55
   33.28        2953.50           1275         128.00       557.99
   33.31        2953.75           1279         126.00       549.27
   33.34        2954.00           1282         131.00       571.06
   33.37        2954.25           1285         123.00       536.19
   33.40        2954.50           1289         138.00       601.58
   33.42        2954.75           1292         130.00       566.71
   33.45        2955.00           1295         135.00       588.50
   33.48        2955.25           1299         129.00       562.35
   33.51        2955.50           1302         137.00       597.22
   33.54        2955.75           1305         125.00       544.91
   33.56        2956.00           1309         127.00       553.63
   33.59        2956.25           1312         124.00       540.55
   33.62        2956.50           1315         123.00       536.19
   33.65        2956.75           1319         133.00       579.78
   33.67        2957.00           1322         118.00       514.39
   33.70        2957.25           1325         122.00       531.83
   33.73        2957.50           1329         122.00       531.83
   33.76        2957.75           1332         128.00       557.99
   33.79        2958.00           1335         134.00       584.14
   33.81        2958.25           1339         129.00       562.35
   33.84        2958.50           1342         121.00       527.47
   33.87        2958.75           1345         129.00       562.35
   33.90        2959.00           1349         121.00       527.47
   33.92        2959.25           1352         124.00       540.55
   33.95        2959.50           1355         112.00       488.24
   33.98        2959.75           1359         118.00       514.39
   34.01        2960.00           1362         124.00       540.55
   34.04        2960.25           1365         127.00       553.63
   34.06        2960.50           1369         125.00       544.91
   34.09        2960.75           1372         136.00       592.86
   34.12        2961.00           1375         136.00       592.86
   34.15        2961.25           1379         137.00       597.22
   34.17        2961.50           1382         194.00       845.71
   34.20        2961.75           1385         496.00      2162.30
   34.23        2962.00           1389        1675.00      7303.26
   34.26        2962.25           1392        3084.00     13449.19
   34.28        2962.50           1395        5026.00     21923.75
   34.31        2962.75           1399        7745.00     33796.24
   34.34        2963.00           1402        9647.00     42106.34
   34.37        2963.25           1405       11486.00     50145.13
   34.40        2963.50           1409       14295.00     62431.56
   34.42        2963.75           1412       16670.00     72826.77
   34.45        2964.00           1415       19021.00     83123.34
   34.48        2964.25           1419       21826.00     95416.60
   34.51        2964.50           1422       23942.00    104696.20
   34.53        2964.75           1425       26110.00    114209.30
   34.56        2965.00           1429       29147.00    127544.60
   34.59        2965.25           1432       31099.00    136121.40
   34.63        2965.50           1435       33172.00    145234.70
   34.66        2965.75           1439       36320.00    159083.50
   34.68        2966.00           1442       38378.00    168143.30
   34.71        2966.25           1445       40541.00    177670.80
   34.74        2966.50           1449       42608.00    186780.40
   34.77        2966.75           1452       43390.00    190228.10
   34.79        2967.00           1455       43804.00    192053.70
   34.82        2967.25           1459       43969.00    192781.30
   34.85        2967.50           1462       43953.00    192710.80
   34.88        2967.75           1465       43970.00    192785.70
   34.91        2968.00           1469       43448.00    190483.90
   34.93        2968.25           1472       41939.00    183831.40
   34.97        2968.50           1475       40048.00    175498.70
   35.00        2968.75           1479       37893.00    166007.80
   35.02        2969.00           1482       35671.00    156227.40
   35.05        2969.25           1485       33672.00    147433.60
   35.08        2969.50           1489       30934.00    135396.30
   35.11        2969.75           1492       28818.00    126099.50
   35.13        2970.00           1495       27506.00    120337.80
   35.16        2970.25           1499       25059.00    109596.90
   35.19        2970.50           1502       23073.00    100884.60
   35.22        2970.75           1505       21071.00     92106.81
   35.25        2971.00           1509       18199.00     79522.53
   35.27        2971.25           1512       16209.00     70808.50
   35.30        2971.50           1515       14059.00     61398.96
   35.33        2971.75           1519       11454.00     50005.22
   35.36        2972.00           1522        9286.00     40528.76
   35.39        2972.25           1525        7111.00     31027.13
   35.41        2972.50           1529        4611.00     20112.39
   35.44        2972.75           1532        2955.00     12886.41
   35.47        2973.00           1536        1220.00      5319.07
   35.50        2973.25           1539         501.00      2184.10
   35.53        2973.50           1542         215.00       937.25
   35.55        2973.75           1546         156.00       680.05
   35.58        2974.00           1549         148.00       645.17
   35.61        2974.25           1552         137.00       597.22
   35.64        2974.50           1556         126.00       549.27
   35.66        2974.75           1559         124.00       540.55
   35.69        2975.00           1562         112.00       488.24
   35.72        2975.25           1566         112.00       488.24
   35.75        2975.50           1569         108.00       470.80
   35.78        2975.75           1572         106.00       462.08
   35.80        2976.00           1576         113.00       492.60
   35.83        2976.25           1579         112.00       488.24
   35.86        2976.50           1582         107.00       466.44
   35.89        2976.75           1586         113.00       492.60
   35.91        2977.00           1589         117.00       510.03
   35.94        2977.25           1592         126.00       549.27
   35.97        2977.50           1596         109.00       475.16
   36.00        2977.75           1599         109.00       475.16
   36.03        2978.00           1602         118.00       514.39
   36.05        2978.25           1606         110.00       479.52
   36.08        2978.50           1609         106.00       462.08
   36.11        2978.75           1612         110.00       479.52
   36.14        2979.00           1616         103.00       449.00
   36.16        2979.25           1619         110.00       479.52
   36.19        2979.50           1623         115.00       501.32
   36.22        2979.75           1626         110.00       479.52
   36.25        2980.00           1629         106.00       462.08
   36.27        2980.25           1633         112.00       488.24
   36.30        2980.50           1636         103.00       449.00
   36.33        2980.75           1639         101.00       440.28
   36.36        2981.00           1643         114.00       496.96
   36.39        2981.25           1646         103.00       449.00
   36.41        2981.50           1649         107.00       466.44
   36.44        2981.75           1653         105.00       457.72
   36.47        2982.00           1656         107.00       466.44
   36.50        2982.25           1659         110.00       479.52
   36.52        2982.50           1663         107.00       466.44
   36.55        2982.75           1666         111.00       483.88
   36.58        2983.00           1669          98.00       427.21
   36.61        2983.25           1673         102.00       444.64
   36.64        2983.50           1676         106.00       462.08
   36.66        2983.75           1679          95.00       414.13
   36.69        2984.00           1683         100.00       435.93
HS scan finished at 00:36:59
end
************************************************************
  HS Scan of (1) Internal mercury lamp
************************************************************
Integration time is 0.2294 seconds per sample
dh100317DelftKZ 51.997-4.386 2.214056pr1000
************************************************************
Dead Time -------------------------  3E-08 
Number of Cycles Used -------------  4 
Starting Wavelength (Angstroms) ---  2950 
Final Wavelength (Angstoms) -------  2984 
Wavelength Increment (Angstroms) --  .25 
Filter Wheel #1 Position ---------- (1) Ground quartz diffuser (ND=2.32)
Filter Wheel #2 Position ---------- (1) Neutral Density 0.494



************************************************************
HS scan start time = 04:48:05
Dark Count =  .1 


Time (GMT)  Wavelength (Ang)  Step Number  Raw Counts  Counts/Second

  288.54        2950.00           1229         136.00       592.43
  288.64        2950.25           1232         121.00       527.04
  288.67        2950.50           1236         135.00       588.07
  288.69        2950.75           1239         119.00       518.32
  288.72        2951.00           1242         126.00       548.83
  288.75        2951.25           1246         122.00       531.39
  288.78        2951.50           1249         119.00       518.32
  288.80        2951.75           1252         129.00       561.91
  288.83        2952.00           1255         128.00       557.55
  288.86        2952.25           1259         119.00       518.32
  288.89        2952.50           1262         125.00       544.47
  288.92        2952.75           1265         129.00       561.91
  288.94        2953.00           1269         132.00       574.99
  288.97        2953.25           1272         122.00       531.39
  289.00        2953.50           1275         134.00       583.71
  289.03        2953.75           1279         122.00       531.39
  289.05        2954.00           1282         130.00       566.27
  289.08        2954.25           1285         129.00       561.91
  289.11        2954.50           1289         122.00       531.39
  289.14        2954.75           1292         124.00       540.11
  289.16        2955.00           1295         120.00       522.68
  289.19        2955.25           1299         134.00       583.71
  289.22        2955.50           1302         118.00       513.96
  289.25        2955.75           1305         116.00       505.24
  289.27        2956.00           1309         132.00       574.99
  289.30        2956.25           1312         132.00       574.99
  289.33        2956.50           1315         116.00       505.24
  289.36        2956.75           1319         120.00       522.68
  289.39        2957.00           1322         128.00       557.55
  289.42        2957.25           1325         116.00       505.24
  289.45        2957.50           1329         124.00       540.11
  289.47        2957.75           1332         121.00       527.04
  289.50        2958.00           1335         117.00       509.60
  289.53        2958.25           1339         117.00       509.60
  289.56        2958.50           1342         131.00       570.63
  289.59        2958.75           1345         124.00       540.11
  289.62        2959.00           1349         118.00       513.96
  289.65        2959.25           1352         116.00       505.24
  289.67        2959.50           1355         125.00       544.47
  289.70        2959.75           1359         121.00       527.04
  289.73        2960.00           1362         112.00       487.80
  289.76        2960.25           1365         121.00       527.04
  289.78        2960.50           1369         131.00       570.63
  289.81        2960.75           1372         126.00       548.83
  289.84        2961.00           1375         132.00       574.99
  289.87        2961.25           1379         150.00       653.46
  289.90        2961.50           1382         221.00       962.97
  289.93        2961.75           1385         741.00      3230.04
  289.96        2962.00           1389        2216.00      9662.35
  289.99        2962.25           1392        3528.00     15385.92
  290.01        2962.50           1395        5041.00     21988.78
  290.04        2962.75           1399        7333.00     31996.26
  290.07        2963.00           1402        9303.00     40602.61
  290.09        2963.25           1405       11376.00     49663.74
  290.12        2963.50           1409       13784.00     60195.35
  290.15        2963.75           1412       15655.00     68382.96
  290.18        2964.00           1415       17587.00     76841.72
  290.21        2964.25           1419       20542.00     89787.74
  290.24        2964.50           1422       22346.00     97696.12
  290.27        2964.75           1425       24265.00    106112.80
  290.29        2965.00           1429       27237.00    119156.20
  290.32        2965.25           1432       28972.00    126775.50
  290.35        2965.50           1435       31064.00    135967.20
  290.38        2965.75           1439       33671.00    147428.70
  290.41        2966.00           1442       35139.00    153886.20
  290.43        2966.25           1445       37155.00    162758.40
  290.46        2966.50           1449       38701.00    169565.30
  290.49        2966.75           1452       39363.00    172480.90
  290.52        2967.00           1455       40089.00    175678.90
  290.55        2967.25           1459       39998.00    175278.00
  290.57        2967.50           1462       39787.00    174348.50
  290.60        2967.75           1465       39960.00    175110.60
  290.63        2968.00           1469       38813.00    170058.50
  290.66        2968.25           1472       37545.00    164475.20
  290.69        2968.50           1475       36204.00    158572.50
  290.71        2968.75           1479       33601.00    147120.90
  290.74        2969.00           1482       32083.00    140446.20
  290.77        2969.25           1485       30451.00    133273.30
  290.80        2969.50           1489       28125.00    123055.50
  290.82        2969.75           1492       26325.00    115152.60
  290.85        2970.00           1495       24715.00    108087.10
  290.88        2970.25           1499       22316.00     97564.58
  290.91        2970.50           1502       20246.00     88490.50
  290.94        2970.75           1505       18154.00     79325.00
  290.96        2971.00           1509       16037.00     70055.10
  290.99        2971.25           1512       14110.00     61621.67
  291.02        2971.50           1515       12049.00     52606.50
  291.05        2971.75           1519        9578.00     41804.36
  291.08        2972.00           1522        7913.00     34529.65
  291.10        2972.25           1525        6383.00     27847.58
  291.13        2972.50           1529        3963.00     17284.03
  291.16        2972.75           1532        2155.00      9396.28
  291.19        2973.00           1536         687.00      2994.60
  291.22        2973.25           1539         247.00      1076.32
  291.25        2973.50           1542         170.00       740.64
  291.28        2973.75           1546         136.00       592.43
  291.31        2974.00           1549         133.00       579.35
  291.33        2974.25           1552         133.00       579.35
  291.36        2974.50           1556         125.00       544.47
  291.39        2974.75           1559         119.00       518.32
  291.42        2975.00           1562         109.00       474.72
  291.45        2975.25           1566         122.00       531.39
  291.47        2975.50           1569         111.00       483.44
  291.50        2975.75           1572         101.00       439.85
  291.53        2976.00           1576         111.00       483.44
  291.56        2976.25           1579         107.00       466.00
  291.58        2976.50           1582         118.00       513.96
  291.61        2976.75           1586         106.00       461.65
  291.64        2977.00           1589         107.00       466.00
  291.67        2977.25           1592         107.00       466.00
  291.70        2977.50           1596         107.00       466.00
  291.72        2977.75           1599         108.00       470.36
  291.75        2978.00           1602         103.00       448.57
  291.78        2978.25           1606         111.00       483.44
  291.81        2978.50           1609         108.00       470.36
  291.83        2978.75           1612         108.00       470.36
  291.86        2979.00           1616         109.00       474.72
  291.89        2979.25           1619          99.00       431.13
  291.92        2979.50           1623         109.00       474.72
  291.94        2979.75           1626         118.00       513.96
  291.97        2980.00           1629         106.00       461.65
  292.00        2980.25           1633         104.00       452.93
  292.03        2980.50           1636         108.00       470.36
  292.05        2980.75           1639         101.00       439.85
  292.08        2981.00           1643         103.00       448.57
  292.11        2981.25           1646         103.00       448.57
  292.14        2981.50           1649         101.00       439.85
  292.17        2981.75           1653         104.00       452.93
  292.19        2982.00           1656          93.00       404.97
  292.22        2982.25           1659         109.00       474.72
  292.25        2982.50           1663         103.00       448.57
  292.28        2982.75           1666         105.00       457.29
  292.30        2983.00           1669          97.00       422.41
  292.33        2983.25           1673         101.00       439.85
  292.36        2983.50           1676          93.00       404.97
  292.39        2983.75           1679         101.00       439.85
  292.41        2984.00           1683         100.00       435.49
HS scan finished at 04:52:43
end
