************************************************************
  HS Scan of (1) Internal mercury lamp
************************************************************
Integration time is 0.2294 seconds per sample
dh030317DelftKZ 51.997-4.386 2.214056pr1000
************************************************************
Dead Time -------------------------  3E-08 
Number of Cycles Used -------------  4 
Starting Wavelength (Angstroms) ---  2950 
Final Wavelength (Angstoms) -------  2984 
Wavelength Increment (Angstroms) --  .25 
Filter Wheel #1 Position ---------- (1) Ground quartz diffuser (ND=2.32)
Filter Wheel #2 Position ---------- (1) Neutral Density 0.494



************************************************************
HS scan start time = 00:33:10
Dark Count =  .1 


Time (GMT)  Wavelength (Ang)  Step Number  Raw Counts  Counts/Second

   33.61        2950.00           1229         131.00       570.63
   33.71        2950.25           1232         135.00       588.07
   33.74        2950.50           1236         135.00       588.07
   33.78        2950.75           1239         134.00       583.71
   33.80        2951.00           1242         131.00       570.63
   33.83        2951.25           1246         128.00       557.55
   33.86        2951.50           1249         136.00       592.43
   33.89        2951.75           1252         128.00       557.55
   33.91        2952.00           1255         130.00       566.27
   33.94        2952.25           1259         122.00       531.39
   33.97        2952.50           1262         131.00       570.63
   34.00        2952.75           1265         132.00       574.99
   34.03        2953.00           1269         128.00       557.55
   34.06        2953.25           1272         128.00       557.55
   34.09        2953.50           1275         130.00       566.27
   34.12        2953.75           1279         125.00       544.47
   34.15        2954.00           1282         127.00       553.19
   34.18        2954.25           1285         126.00       548.83
   34.20        2954.50           1289         144.00       627.30
   34.23        2954.75           1292         135.00       588.07
   34.26        2955.00           1295         125.00       544.47
   34.29        2955.25           1299         125.00       544.47
   34.31        2955.50           1302         133.00       579.35
   34.34        2955.75           1305         133.00       579.35
   34.37        2956.00           1309         130.00       566.27
   34.40        2956.25           1312         142.00       618.58
   34.42        2956.50           1315         127.00       553.19
   34.45        2956.75           1319         126.00       548.83
   34.48        2957.00           1322         119.00       518.32
   34.51        2957.25           1325         124.00       540.11
   34.54        2957.50           1329         124.00       540.11
   34.57        2957.75           1332         130.00       566.27
   34.59        2958.00           1335         137.00       596.78
   34.62        2958.25           1339         115.00       500.88
   34.65        2958.50           1342         128.00       557.55
   34.68        2958.75           1345         121.00       527.04
   34.71        2959.00           1349         128.00       557.55
   34.74        2959.25           1352         113.00       492.16
   34.77        2959.50           1355         127.00       553.19
   34.79        2959.75           1359         125.00       544.47
   34.82        2960.00           1362         122.00       531.39
   34.85        2960.25           1365         119.00       518.32
   34.88        2960.50           1369         123.00       535.75
   34.90        2960.75           1372         129.00       561.91
   34.93        2961.00           1375         141.00       614.22
   34.96        2961.25           1379         143.00       622.94
   34.99        2961.50           1382         247.00      1076.32
   35.01        2961.75           1385         714.00      3112.32
   35.04        2962.00           1389        2110.00      9200.01
   35.07        2962.25           1392        3717.00     16210.59
   35.10        2962.50           1395        5724.00     24970.31
   35.13        2962.75           1399        8258.00     36036.76
   35.15        2963.00           1402       10351.00     45182.83
   35.18        2963.25           1405       11955.00     52195.45
   35.21        2963.50           1409       14920.00     65166.08
   35.24        2963.75           1412       17266.00     75436.01
   35.26        2964.00           1415       19251.00     84130.56
   35.29        2964.25           1419       22554.00     98608.19
   35.32        2964.50           1422       24641.00    107762.40
   35.35        2964.75           1425       26923.00    117777.70
   35.37        2965.00           1429       29553.00    129327.80
   35.40        2965.25           1432       31933.00    139786.80
   35.43        2965.50           1435       34000.00    148875.70
   35.46        2965.75           1439       36814.00    161257.30
   35.49        2966.00           1442       37994.00    166452.10
   35.52        2966.25           1445       40023.00    175388.10
   35.55        2966.50           1449       42420.00    185951.20
   35.58        2966.75           1452       43370.00    190139.50
   35.60        2967.00           1455       43738.00    191762.20
   35.63        2967.25           1459       44028.00    193041.00
   35.66        2967.50           1462       43884.00    192406.00
   35.69        2967.75           1465       43787.00    191978.30
   35.71        2968.00           1469       42878.00    187970.30
   35.74        2968.25           1472       41587.00    182279.60
   35.77        2968.50           1475       39815.00    174471.90
   35.80        2968.75           1479       37804.00    165615.50
   35.83        2969.00           1482       35768.00    156653.90
   35.85        2969.25           1485       34129.00    149443.10
   35.88        2969.50           1489       31155.00    136367.10
   35.91        2969.75           1492       28855.00    126261.60
   35.94        2970.00           1495       26722.00    116895.30
   35.96        2970.25           1499       24075.00    105279.20
   35.99        2970.50           1502       22348.00     97704.88
   36.02        2970.75           1505       20249.00     88503.64
   36.05        2971.00           1509       17398.00     76014.03
   36.07        2971.25           1512       15239.00     66562.18
   36.10        2971.50           1515       13777.00     60164.74
   36.13        2971.75           1519       11152.00     48684.40
   36.16        2972.00           1522        9057.00     39527.67
   36.19        2972.25           1525        6830.00     29799.52
   36.21        2972.50           1529        3950.00     17227.30
   36.24        2972.75           1532        2098.00      9147.67
   36.27        2973.00           1536         766.00      3339.04
   36.30        2973.25           1539         313.00      1364.05
   36.32        2973.50           1542         180.00       784.24
   36.35        2973.75           1546         142.00       618.58
   36.38        2974.00           1549         139.00       605.50
   36.41        2974.25           1552         123.00       535.75
   36.44        2974.50           1556         123.00       535.75
   36.47        2974.75           1559         126.00       548.83
   36.50        2975.00           1562         119.00       518.32
   36.52        2975.25           1566         111.00       483.44
   36.55        2975.50           1569         105.00       457.29
   36.58        2975.75           1572         112.00       487.80
   36.61        2976.00           1576         116.00       505.24
   36.63        2976.25           1579         123.00       535.75
   36.67        2976.50           1582         125.00       544.47
   36.70        2976.75           1586         108.00       470.36
   36.72        2977.00           1589         107.00       466.00
   36.75        2977.25           1592         117.00       509.60
   36.78        2977.50           1596         118.00       513.96
   36.81        2977.75           1599         115.00       500.88
   36.83        2978.00           1602         106.00       461.65
   36.86        2978.25           1606         114.00       496.52
   36.89        2978.50           1609         112.00       487.80
   36.92        2978.75           1612         110.00       479.08
   36.94        2979.00           1616         106.00       461.65
   36.97        2979.25           1619         110.00       479.08
   37.00        2979.50           1623         102.00       444.21
   37.03        2979.75           1626         111.00       483.44
   37.05        2980.00           1629         107.00       466.00
   37.08        2980.25           1633         110.00       479.08
   37.11        2980.50           1636         107.00       466.00
   37.14        2980.75           1639         113.00       492.16
   37.17        2981.00           1643         115.00       500.88
   37.19        2981.25           1646         111.00       483.44
   37.22        2981.50           1649         113.00       492.16
   37.25        2981.75           1653         102.00       444.21
   37.28        2982.00           1656         101.00       439.85
   37.30        2982.25           1659         106.00       461.65
   37.33        2982.50           1663         110.00       479.08
   37.36        2982.75           1666         109.00       474.72
   37.39        2983.00           1669         107.00       466.00
   37.41        2983.25           1673         106.00       461.65
   37.44        2983.50           1676         105.00       457.29
   37.47        2983.75           1679         112.00       487.80
   37.50        2984.00           1683         108.00       470.36
HS scan finished at 00:37:48
end
************************************************************
  HS Scan of (1) Internal mercury lamp
************************************************************
Integration time is 0.2294 seconds per sample
dh030317DelftKZ 51.997-4.386 2.214056pr1000
************************************************************
Dead Time -------------------------  3E-08 
Number of Cycles Used -------------  4 
Starting Wavelength (Angstroms) ---  2950 
Final Wavelength (Angstoms) -------  2984 
Wavelength Increment (Angstroms) --  .25 
Filter Wheel #1 Position ---------- (1) Ground quartz diffuser (ND=2.32)
Filter Wheel #2 Position ---------- (1) Neutral Density 0.494



************************************************************
HS scan start time = 05:04:39
Dark Count =  0 


Time (GMT)  Wavelength (Ang)  Step Number  Raw Counts  Counts/Second

  305.10        2950.00           1229         133.00       579.78
  305.20        2950.25           1232         137.00       597.22
  305.22        2950.50           1236         130.00       566.71
  305.25        2950.75           1239         133.00       579.78
  305.28        2951.00           1242         140.00       610.30
  305.31        2951.25           1246         135.00       588.50
  305.33        2951.50           1249         123.00       536.19
  305.36        2951.75           1252         136.00       592.86
  305.39        2952.00           1255         130.00       566.71
  305.42        2952.25           1259         119.00       518.75
  305.45        2952.50           1262         123.00       536.19
  305.47        2952.75           1265         124.00       540.55
  305.50        2953.00           1269         119.00       518.75
  305.53        2953.25           1272         120.00       523.11
  305.56        2953.50           1275         140.00       610.30
  305.58        2953.75           1279         131.00       571.06
  305.61        2954.00           1282         117.00       510.03
  305.64        2954.25           1285         130.00       566.71
  305.67        2954.50           1289         126.00       549.27
  305.69        2954.75           1292         134.00       584.14
  305.72        2955.00           1295         129.00       562.35
  305.75        2955.25           1299         129.00       562.35
  305.78        2955.50           1302         123.00       536.19
  305.80        2955.75           1305         111.00       483.88
  305.83        2956.00           1309         117.00       510.03
  305.86        2956.25           1312         124.00       540.55
  305.89        2956.50           1315         127.00       553.63
  305.92        2956.75           1319         135.00       588.50
  305.94        2957.00           1322         135.00       588.50
  305.97        2957.25           1325         111.00       483.88
  306.00        2957.50           1329         134.00       584.14
  306.03        2957.75           1332         134.00       584.14
  306.05        2958.00           1335         128.00       557.99
  306.08        2958.25           1339         124.00       540.55
  306.11        2958.50           1342         120.00       523.11
  306.14        2958.75           1345         111.00       483.88
  306.16        2959.00           1349         123.00       536.19
  306.19        2959.25           1352         120.00       523.11
  306.22        2959.50           1355         119.00       518.75
  306.25        2959.75           1359         114.00       496.96
  306.28        2960.00           1362         121.00       527.47
  306.30        2960.25           1365         125.00       544.91
  306.33        2960.50           1369         126.00       549.27
  306.36        2960.75           1372         125.00       544.91
  306.39        2961.00           1375         132.00       575.42
  306.42        2961.25           1379         152.00       662.61
  306.45        2961.50           1382         229.00       998.29
  306.47        2961.75           1385         753.00      3282.80
  306.50        2962.00           1389        2186.00      9531.93
  306.53        2962.25           1392        3585.00     15635.06
  306.56        2962.50           1395        5171.00     22556.67
  306.59        2962.75           1399        7641.00     33341.97
  306.61        2963.00           1402        9657.00     42150.04
  306.64        2963.25           1405       11420.00     49856.56
  306.67        2963.50           1409       14505.00     63350.46
  306.70        2963.75           1412       16341.00     71386.38
  306.73        2964.00           1415       18473.00     80722.72
  306.75        2964.25           1419       21436.00     93706.82
  306.78        2964.50           1422       23440.00    102494.30
  306.81        2964.75           1425       25471.00    111404.90
  306.84        2965.00           1429       27680.00    121101.80
  306.86        2965.25           1432       29106.00    127364.60
  306.89        2965.50           1435       31198.00    136556.60
  306.92        2965.75           1439       33821.00    148088.90
  306.95        2966.00           1442       35721.00    156447.50
  306.98        2966.25           1445       37937.00    166201.50
  307.00        2966.50           1449       39643.00    173714.60
  307.03        2966.75           1452       40640.00    178106.90
  307.07        2967.00           1455       41043.00    179882.70
  307.10        2967.25           1459       41149.00    180349.80
  307.13        2967.50           1462       40993.00    179662.40
  307.15        2967.75           1465       41014.00    179754.90
  307.18        2968.00           1469       40620.00    178018.80
  307.21        2968.25           1472       39272.00    172080.50
  307.24        2968.50           1475       37836.00    165756.80
  307.26        2968.75           1479       35207.00    154185.80
  307.29        2969.00           1482       33297.00    145784.40
  307.32        2969.25           1485       31359.00    137264.20
  307.35        2969.50           1489       28831.00    126156.60
  307.38        2969.75           1492       26880.00    117589.30
  307.40        2970.00           1495       25069.00    109640.80
  307.43        2970.25           1499       22601.00     98814.72
  307.47        2970.50           1502       20909.00     91396.72
  307.50        2970.75           1505       19315.00     84411.40
  307.53        2971.00           1509       16874.00     73719.97
  307.55        2971.25           1512       14645.00     63963.07
  307.58        2971.50           1515       12455.00     54382.47
  307.61        2971.75           1519        9823.00     42875.52
  307.64        2972.00           1522        7870.00     34342.25
  307.68        2972.25           1525        6144.00     26804.46
  307.71        2972.50           1529        3694.00     16110.66
  307.73        2972.75           1532        2073.00      9039.07
  307.76        2973.00           1536         640.00      2790.12
  307.79        2973.25           1539         258.00      1124.71
  307.82        2973.50           1542         168.00       732.36
  307.84        2973.75           1546         136.00       592.86
  307.87        2974.00           1549         128.00       557.99
  307.90        2974.25           1552         134.00       584.14
  307.93        2974.50           1556         123.00       536.19
  307.96        2974.75           1559         118.00       514.39
  307.98        2975.00           1562         118.00       514.39
  308.01        2975.25           1566         112.00       488.24
  308.04        2975.50           1569         124.00       540.55
  308.07        2975.75           1572         103.00       449.00
  308.09        2976.00           1576          98.00       427.21
  308.12        2976.25           1579         108.00       470.80
  308.15        2976.50           1582         125.00       544.91
  308.18        2976.75           1586         101.00       440.28
  308.20        2977.00           1589          98.00       427.21
  308.23        2977.25           1592         115.00       501.32
  308.26        2977.50           1596         116.00       505.67
  308.29        2977.75           1599         108.00       470.80
  308.32        2978.00           1602         112.00       488.24
  308.34        2978.25           1606         110.00       479.52
  308.37        2978.50           1609         105.00       457.72
  308.40        2978.75           1612         103.00       449.00
  308.43        2979.00           1616         105.00       457.72
  308.45        2979.25           1619         106.00       462.08
  308.48        2979.50           1623         107.00       466.44
  308.51        2979.75           1626         105.00       457.72
  308.54        2980.00           1629         110.00       479.52
  308.56        2980.25           1633         111.00       483.88
  308.59        2980.50           1636         108.00       470.80
  308.62        2980.75           1639         101.00       440.28
  308.65        2981.00           1643         104.00       453.36
  308.68        2981.25           1646         105.00       457.72
  308.70        2981.50           1649         114.00       496.96
  308.73        2981.75           1653         109.00       475.16
  308.76        2982.00           1656          98.00       427.21
  308.79        2982.25           1659         113.00       492.60
  308.81        2982.50           1663         106.00       462.08
  308.84        2982.75           1666          96.00       418.49
  308.87        2983.00           1669         102.00       444.64
  308.90        2983.25           1673          92.00       401.05
  308.93        2983.50           1676          96.00       418.49
  308.95        2983.75           1679         100.00       435.93
  308.98        2984.00           1683         106.00       462.08
HS scan finished at 05:09:17
end
