************************************************************
  HS Scan of (1) Internal mercury lamp
************************************************************
Integration time is 0.2294 seconds per sample
dh090317DelftKZ 51.997-4.386 2.428648pr1000
************************************************************
Dead Time -------------------------  3E-08 
Number of Cycles Used -------------  4 
Starting Wavelength (Angstroms) ---  2950 
Final Wavelength (Angstoms) -------  2984 
Wavelength Increment (Angstroms) --  .25 
Filter Wheel #1 Position ---------- (1) Ground quartz diffuser (ND=2.32)
Filter Wheel #2 Position ---------- (1) Neutral Density 0.494



************************************************************
HS scan start time = 04:50:40
Dark Count =  0 


Time (GMT)  Wavelength (Ang)  Step Number  Raw Counts  Counts/Second

  291.11        2950.00           1229         135.00       588.50
  291.21        2950.25           1232         134.00       584.14
  291.24        2950.50           1236         130.00       566.71
  291.26        2950.75           1239         127.00       553.63
  291.29        2951.00           1242         132.00       575.42
  291.32        2951.25           1246         128.00       557.99
  291.35        2951.50           1249         129.00       562.35
  291.37        2951.75           1252         127.00       553.63
  291.40        2952.00           1255         131.00       571.06
  291.44        2952.25           1259         122.00       531.83
  291.47        2952.50           1262         124.00       540.55
  291.49        2952.75           1265         124.00       540.55
  291.52        2953.00           1269         134.00       584.14
  291.55        2953.25           1272         129.00       562.35
  291.58        2953.50           1275         123.00       536.19
  291.61        2953.75           1279         126.00       549.27
  291.63        2954.00           1282         138.00       601.58
  291.66        2954.25           1285         141.00       614.66
  291.70        2954.50           1289         126.00       549.27
  291.73        2954.75           1292         129.00       562.35
  291.75        2955.00           1295         120.00       523.11
  291.78        2955.25           1299         120.00       523.11
  291.81        2955.50           1302         124.00       540.55
  291.84        2955.75           1305         127.00       553.63
  291.86        2956.00           1309         120.00       523.11
  291.89        2956.25           1312         139.00       605.94
  291.92        2956.50           1315         129.00       562.35
  291.95        2956.75           1319         135.00       588.50
  291.98        2957.00           1322         122.00       531.83
  292.00        2957.25           1325         131.00       571.06
  292.03        2957.50           1329         131.00       571.06
  292.06        2957.75           1332         127.00       553.63
  292.09        2958.00           1335         133.00       579.78
  292.11        2958.25           1339         119.00       518.75
  292.14        2958.50           1342         131.00       571.06
  292.17        2958.75           1345         126.00       549.27
  292.20        2959.00           1349         119.00       518.75
  292.23        2959.25           1352         129.00       562.35
  292.26        2959.50           1355         124.00       540.55
  292.29        2959.75           1359         125.00       544.91
  292.31        2960.00           1362         118.00       514.39
  292.34        2960.25           1365         125.00       544.91
  292.37        2960.50           1369         130.00       566.71
  292.40        2960.75           1372         135.00       588.50
  292.42        2961.00           1375         153.00       666.97
  292.45        2961.25           1379         147.00       640.81
  292.48        2961.50           1382         323.00      1408.08
  292.51        2961.75           1385         996.00      4342.33
  292.53        2962.00           1389        2543.00     11089.13
  292.56        2962.25           1392        4392.00     19156.60
  292.59        2962.50           1395        6453.00     28153.67
  292.62        2962.75           1399        9395.00     41005.08
  292.65        2963.00           1402       11830.00     51649.28
  292.67        2963.25           1405       14029.00     61267.70
  292.70        2963.50           1409       16502.00     72091.23
  292.73        2963.75           1412       19074.00     83355.53
  292.76        2964.00           1415       21726.00     94978.18
  292.79        2964.25           1419       24898.00    108890.50
  292.81        2964.50           1422       27579.00    120658.30
  292.84        2964.75           1425       30137.00    131894.00
  292.87        2965.00           1429       33397.00    146224.20
  292.90        2965.25           1432       35607.00    155945.90
  292.92        2965.50           1435       38063.00    166756.30
  292.95        2965.75           1439       40880.00    179164.40
  292.98        2966.00           1442       42851.00    187851.70
  293.01        2966.25           1445       44574.00    195449.60
  293.04        2966.50           1449       47110.00    206638.90
  293.06        2966.75           1452       47884.00    210055.40
  293.09        2967.00           1455       48502.00    212783.80
  293.12        2967.25           1459       48530.00    212907.40
  293.15        2967.50           1462       48563.00    213053.10
  293.17        2967.75           1465       48412.00    212386.40
  293.20        2968.00           1469       47213.00    207093.50
  293.23        2968.25           1472       45666.00    200266.70
  293.26        2968.50           1475       43754.00    191833.20
  293.29        2968.75           1479       41144.00    180327.80
  293.31        2969.00           1482       39057.00    171133.60
  293.34        2969.25           1485       37036.00    162234.90
  293.37        2969.50           1489       34026.00    148990.60
  293.40        2969.75           1492       31685.00    138697.10
  293.42        2970.00           1495       29330.00    128348.50
  293.45        2970.25           1499       26251.00    114828.20
  293.48        2970.50           1502       24241.00    106007.90
  293.51        2970.75           1505       22164.00     96898.54
  293.54        2971.00           1509       19283.00     84271.19
  293.56        2971.25           1512       16554.00     72318.90
  293.59        2971.50           1515       14558.00     63582.37
  293.62        2971.75           1519       12081.00     52746.88
  293.65        2972.00           1522        9707.00     42368.55
  293.68        2972.25           1525        7416.00     32359.21
  293.70        2972.50           1529        4244.00     18510.71
  293.73        2972.75           1532        2026.00      8834.08
  293.76        2973.00           1536         635.00      2768.32
  293.79        2973.25           1539         262.00      1142.15
  293.81        2973.50           1542         178.00       775.96
  293.84        2973.75           1546         134.00       584.14
  293.87        2974.00           1549         142.00       619.02
  293.90        2974.25           1552         127.00       553.63
  293.92        2974.50           1556         116.00       505.67
  293.95        2974.75           1559         127.00       553.63
  293.98        2975.00           1562         122.00       531.83
  294.01        2975.25           1566         106.00       462.08
  294.04        2975.50           1569         119.00       518.75
  294.06        2975.75           1572         111.00       483.88
  294.09        2976.00           1576         103.00       449.00
  294.12        2976.25           1579          98.00       427.21
  294.15        2976.50           1582         120.00       523.11
  294.17        2976.75           1586         108.00       470.80
  294.20        2977.00           1589         102.00       444.64
  294.23        2977.25           1592          97.00       422.85
  294.26        2977.50           1596         116.00       505.67
  294.28        2977.75           1599         100.00       435.93
  294.31        2978.00           1602         112.00       488.24
  294.34        2978.25           1606         110.00       479.52
  294.37        2978.50           1609         102.00       444.64
  294.40        2978.75           1612         111.00       483.88
  294.42        2979.00           1616         112.00       488.24
  294.45        2979.25           1619         110.00       479.52
  294.48        2979.50           1623         104.00       453.36
  294.51        2979.75           1626         106.00       462.08
  294.53        2980.00           1629         113.00       492.60
  294.56        2980.25           1633         111.00       483.88
  294.59        2980.50           1636         108.00       470.80
  294.62        2980.75           1639         108.00       470.80
  294.65        2981.00           1643         105.00       457.72
  294.67        2981.25           1646         104.00       453.36
  294.70        2981.50           1649         116.00       505.67
  294.73        2981.75           1653         101.00       440.28
  294.76        2982.00           1656         108.00       470.80
  294.78        2982.25           1659         105.00       457.72
  294.81        2982.50           1663         109.00       475.16
  294.84        2982.75           1666         116.00       505.67
  294.87        2983.00           1669         104.00       453.36
  294.90        2983.25           1673         101.00       440.28
  294.93        2983.50           1676         111.00       483.88
  294.96        2983.75           1679         112.00       488.24
  294.99        2984.00           1683         109.00       475.16
HS scan finished at 04:55:17
end
