************************************************************
  HS Scan of (1) Internal mercury lamp
************************************************************
Integration time is 0.2294 seconds per sample
dh010317DelftKZ 51.997-4.386 2.267704pr1000
************************************************************
Dead Time -------------------------  3E-08 
Number of Cycles Used -------------  4 
Starting Wavelength (Angstroms) ---  2950 
Final Wavelength (Angstoms) -------  2984 
Wavelength Increment (Angstroms) --  .25 
Filter Wheel #1 Position ---------- (1) Ground quartz diffuser (ND=2.32)
Filter Wheel #2 Position ---------- (1) Neutral Density 0.494



************************************************************
HS scan start time = 05:09:06
Dark Count =  0 


Time (GMT)  Wavelength (Ang)  Step Number  Raw Counts  Counts/Second

  309.54        2950.00           1229         121.00       527.47
  309.64        2950.25           1232         128.00       557.99
  309.67        2950.50           1236         129.00       562.35
  309.70        2950.75           1239         118.00       514.39
  309.72        2951.00           1242         134.00       584.14
  309.75        2951.25           1246         123.00       536.19
  309.78        2951.50           1249         117.00       510.03
  309.81        2951.75           1252         124.00       540.55
  309.84        2952.00           1255         131.00       571.06
  309.87        2952.25           1259         133.00       579.78
  309.90        2952.50           1262         123.00       536.19
  309.93        2952.75           1265         134.00       584.14
  309.96        2953.00           1269         128.00       557.99
  309.98        2953.25           1272         127.00       553.63
  310.01        2953.50           1275         123.00       536.19
  310.04        2953.75           1279         134.00       584.14
  310.07        2954.00           1282         131.00       571.06
  310.10        2954.25           1285         123.00       536.19
  310.12        2954.50           1289         117.00       510.03
  310.15        2954.75           1292         128.00       557.99
  310.18        2955.00           1295         118.00       514.39
  310.21        2955.25           1299         131.00       571.06
  310.23        2955.50           1302         122.00       531.83
  310.26        2955.75           1305         136.00       592.86
  310.29        2956.00           1309         127.00       553.63
  310.32        2956.25           1312         123.00       536.19
  310.35        2956.50           1315         126.00       549.27
  310.37        2956.75           1319         127.00       553.63
  310.40        2957.00           1322         120.00       523.11
  310.43        2957.25           1325         122.00       531.83
  310.46        2957.50           1329         129.00       562.35
  310.48        2957.75           1332         128.00       557.99
  310.51        2958.00           1335         116.00       505.67
  310.54        2958.25           1339         116.00       505.67
  310.57        2958.50           1342         128.00       557.99
  310.59        2958.75           1345         125.00       544.91
  310.62        2959.00           1349         112.00       488.24
  310.65        2959.25           1352         116.00       505.67
  310.68        2959.50           1355         126.00       549.27
  310.70        2959.75           1359         126.00       549.27
  310.73        2960.00           1362         126.00       549.27
  310.76        2960.25           1365         118.00       514.39
  310.79        2960.50           1369         136.00       592.86
  310.82        2960.75           1372         122.00       531.83
  310.84        2961.00           1375         125.00       544.91
  310.87        2961.25           1379         153.00       666.97
  310.90        2961.50           1382         212.00       924.18
  310.92        2961.75           1385         721.00      3143.28
  310.95        2962.00           1389        2292.00      9994.28
  310.98        2962.25           1392        3915.00     17075.00
  311.01        2962.50           1395        5989.00     26127.71
  311.04        2962.75           1399        8667.00     37824.06
  311.06        2963.00           1402       10719.00     46791.89
  311.09        2963.25           1405       12962.00     56599.96
  311.12        2963.50           1409       15634.00     68291.48
  311.15        2963.75           1412       17974.00     78537.06
  311.19        2964.00           1415       19831.00     86672.33
  311.22        2964.25           1419       22456.00     98178.90
  311.25        2964.50           1422       24299.00    106262.40
  311.28        2964.75           1425       26348.00    115254.00
  311.30        2965.00           1429       29364.00    128497.90
  311.33        2965.25           1432       31394.00    137418.00
  311.36        2965.50           1435       33323.00    145898.80
  311.39        2965.75           1439       36066.00    157965.70
  311.42        2966.00           1442       37862.00    165871.30
  311.44        2966.25           1445       39804.00    174423.90
  311.47        2966.50           1449       42237.00    185145.00
  311.50        2966.75           1452       43078.00    188852.50
  311.53        2967.00           1455       43586.00    191092.40
  311.55        2967.25           1459       43799.00    192031.60
  311.58        2967.50           1462       43700.00    191595.10
  311.61        2967.75           1465       43540.00    190889.50
  311.64        2968.00           1469       42462.00    186136.80
  311.66        2968.25           1472       41194.00    180548.10
  311.69        2968.50           1475       39442.00    172829.30
  311.72        2968.75           1479       37313.00    163454.30
  311.75        2969.00           1482       35091.00    153675.50
  311.78        2969.25           1485       32709.00    143198.90
  311.80        2969.50           1489       30357.00    132860.70
  311.83        2969.75           1492       28677.00    125480.20
  311.86        2970.00           1495       27014.00    118177.60
  311.89        2970.25           1499       24542.00    107328.50
  311.91        2970.50           1502       22340.00     97670.25
  311.94        2970.75           1505       20029.00     87539.97
  311.97        2971.00           1509       17264.00     75427.68
  312.00        2971.25           1512       15280.00     66742.05
  312.03        2971.50           1515       13204.00     57658.50
  312.05        2971.75           1519       10810.00     47189.69
  312.08        2972.00           1522        8602.00     37540.08
  312.11        2972.25           1525        6475.00     28249.74
  312.14        2972.50           1529        4025.00     17555.01
  312.16        2972.75           1532        2264.00      9872.15
  312.19        2973.00           1536         875.00      3814.73
  312.22        2973.25           1539         343.00      1495.27
  312.25        2973.50           1542         177.00       771.60
  312.28        2973.75           1546         135.00       588.50
  312.30        2974.00           1549         146.00       636.46
  312.33        2974.25           1552         129.00       562.35
  312.36        2974.50           1556         116.00       505.67
  312.39        2974.75           1559         121.00       527.47
  312.41        2975.00           1562         112.00       488.24
  312.44        2975.25           1566         114.00       496.96
  312.47        2975.50           1569         107.00       466.44
  312.50        2975.75           1572         115.00       501.32
  312.52        2976.00           1576          99.00       431.57
  312.55        2976.25           1579         111.00       483.88
  312.58        2976.50           1582         107.00       466.44
  312.61        2976.75           1586         107.00       466.44
  312.64        2977.00           1589         108.00       470.80
  312.66        2977.25           1592         109.00       475.16
  312.69        2977.50           1596          96.00       418.49
  312.72        2977.75           1599         106.00       462.08
  312.75        2978.00           1602         111.00       483.88
  312.77        2978.25           1606         109.00       475.16
  312.80        2978.50           1609         120.00       523.11
  312.83        2978.75           1612         108.00       470.80
  312.86        2979.00           1616         112.00       488.24
  312.88        2979.25           1619         107.00       466.44
  312.91        2979.50           1623         106.00       462.08
  312.94        2979.75           1626         110.00       479.52
  312.97        2980.00           1629         102.00       444.64
  312.99        2980.25           1633         101.00       440.28
  313.02        2980.50           1636         105.00       457.72
  313.05        2980.75           1639         104.00       453.36
  313.08        2981.00           1643          94.00       409.77
  313.11        2981.25           1646          97.00       422.85
  313.13        2981.50           1649          92.00       401.05
  313.16        2981.75           1653         109.00       475.16
  313.19        2982.00           1656         102.00       444.64
  313.21        2982.25           1659         105.00       457.72
  313.24        2982.50           1663         109.00       475.16
  313.27        2982.75           1666          97.00       422.85
  313.30        2983.00           1669          95.00       414.13
  313.33        2983.25           1673         100.00       435.93
  313.35        2983.50           1676         107.00       466.44
  313.38        2983.75           1679         110.00       479.52
  313.41        2984.00           1683         105.00       457.72
HS scan finished at 05:13:42
end
