************************************************************
  HS Scan of (1) Internal mercury lamp
************************************************************
Integration time is 0.2294 seconds per sample
dh020317DelftKZ 51.997-4.386 2.321352pr1000
************************************************************
Dead Time -------------------------  3E-08 
Number of Cycles Used -------------  4 
Starting Wavelength (Angstroms) ---  2950 
Final Wavelength (Angstoms) -------  2984 
Wavelength Increment (Angstroms) --  .25 
Filter Wheel #1 Position ---------- (1) Ground quartz diffuser (ND=2.32)
Filter Wheel #2 Position ---------- (1) Neutral Density 0.494



************************************************************
HS scan start time = 05:06:51
Dark Count =  .1 


Time (GMT)  Wavelength (Ang)  Step Number  Raw Counts  Counts/Second

  307.31        2950.00           1229         135.00       588.07
  307.40        2950.25           1232         127.00       553.19
  307.43        2950.50           1236         125.00       544.47
  307.46        2950.75           1239         133.00       579.35
  307.49        2951.00           1242         131.00       570.63
  307.51        2951.25           1246         132.00       574.99
  307.54        2951.50           1249         124.00       540.11
  307.57        2951.75           1252         134.00       583.71
  307.60        2952.00           1255         119.00       518.32
  307.63        2952.25           1259         139.00       605.50
  307.65        2952.50           1262         126.00       548.83
  307.68        2952.75           1265         130.00       566.27
  307.71        2953.00           1269         125.00       544.47
  307.74        2953.25           1272         126.00       548.83
  307.76        2953.50           1275         131.00       570.63
  307.79        2953.75           1279         125.00       544.47
  307.82        2954.00           1282         121.00       527.04
  307.85        2954.25           1285         122.00       531.39
  307.87        2954.50           1289         120.00       522.68
  307.90        2954.75           1292         133.00       579.35
  307.93        2955.00           1295         128.00       557.55
  307.96        2955.25           1299         124.00       540.11
  307.98        2955.50           1302         138.00       601.14
  308.01        2955.75           1305         137.00       596.78
  308.04        2956.00           1309         131.00       570.63
  308.07        2956.25           1312         119.00       518.32
  308.09        2956.50           1315         113.00       492.16
  308.12        2956.75           1319         118.00       513.96
  308.15        2957.00           1322         118.00       513.96
  308.18        2957.25           1325         126.00       548.83
  308.21        2957.50           1329         127.00       553.19
  308.23        2957.75           1332         127.00       553.19
  308.26        2958.00           1335         118.00       513.96
  308.29        2958.25           1339         126.00       548.83
  308.32        2958.50           1342         133.00       579.35
  308.34        2958.75           1345         122.00       531.39
  308.37        2959.00           1349         123.00       535.75
  308.40        2959.25           1352         120.00       522.68
  308.43        2959.50           1355         114.00       496.52
  308.45        2959.75           1359         118.00       513.96
  308.48        2960.00           1362         126.00       548.83
  308.51        2960.25           1365         128.00       557.55
  308.54        2960.50           1369         126.00       548.83
  308.57        2960.75           1372         125.00       544.47
  308.59        2961.00           1375         142.00       618.58
  308.62        2961.25           1379         154.00       670.89
  308.65        2961.50           1382         258.00      1124.28
  308.68        2961.75           1385         656.00      2859.44
  308.70        2962.00           1389        2253.00      9823.73
  308.73        2962.25           1392        4059.00     17702.95
  308.76        2962.50           1395        5908.00     25773.63
  308.79        2962.75           1399        8755.00     38208.11
  308.81        2963.00           1402       10894.00     47556.47
  308.84        2963.25           1405       13000.00     56765.73
  308.87        2963.50           1409       15782.00     68938.86
  308.90        2963.75           1412       18059.00     78908.90
  308.93        2964.00           1415       20296.00     88709.62
  308.96        2964.25           1419       23037.00    100726.30
  308.98        2964.50           1422       24882.00    108819.80
  309.01        2964.75           1425       27046.00    118317.70
  309.04        2965.00           1429       29693.00    129942.80
  309.07        2965.25           1432       31970.00    139949.50
  309.09        2965.50           1435       34176.00    149649.90
  309.12        2965.75           1439       36617.00    160390.20
  309.15        2966.00           1442       38684.00    169490.40
  309.18        2966.25           1445       40739.00    178542.70
  309.21        2966.50           1449       42994.00    188481.70
  309.23        2966.75           1452       43865.00    192322.20
  309.26        2967.00           1455       44251.00    194024.50
  309.29        2967.25           1459       44566.00    195413.80
  309.32        2967.50           1462       44508.00    195158.00
  309.34        2967.75           1465       44550.00    195343.30
  309.37        2968.00           1469       43648.00    191365.30
  309.40        2968.25           1472       42521.00    186396.40
  309.43        2968.50           1475       40248.00    176379.40
  309.46        2968.75           1479       37734.00    165307.30
  309.48        2969.00           1482       36089.00    158066.40
  309.51        2969.25           1485       33900.00    148435.90
  309.54        2969.50           1489       31046.00    135888.10
  309.57        2969.75           1492       28960.00    126722.80
  309.59        2970.00           1495       27060.00    118379.10
  309.62        2970.25           1499       24921.00    108990.90
  309.65        2970.50           1502       22742.00     99432.60
  309.68        2970.75           1505       20676.00     90375.03
  309.70        2971.00           1509       17606.00     76924.93
  309.73        2971.25           1512       15491.00     67665.12
  309.76        2971.50           1515       13562.00     59224.14
  309.79        2971.75           1519       10992.00     47984.90
  309.82        2972.00           1522        8737.00     38129.47
  309.84        2972.25           1525        6660.00     29057.14
  309.87        2972.50           1529        3887.00     16952.39
  309.90        2972.75           1532        2237.00      9753.94
  309.93        2973.00           1536         838.00      3652.97
  309.95        2973.25           1539         334.00      1455.60
  309.98        2973.50           1542         183.00       797.32
  310.01        2973.75           1546         152.00       662.18
  310.04        2974.00           1549         138.00       601.14
  310.06        2974.25           1552         140.00       609.86
  310.09        2974.50           1556         132.00       574.99
  310.12        2974.75           1559         112.00       487.80
  310.15        2975.00           1562         116.00       505.24
  310.18        2975.25           1566         109.00       474.72
  310.20        2975.50           1569         111.00       483.44
  310.23        2975.75           1572         113.00       492.16
  310.26        2976.00           1576         111.00       483.44
  310.29        2976.25           1579         103.00       448.57
  310.31        2976.50           1582         104.00       452.93
  310.34        2976.75           1586         114.00       496.52
  310.37        2977.00           1589          97.00       422.41
  310.40        2977.25           1592         105.00       457.29
  310.43        2977.50           1596         110.00       479.08
  310.45        2977.75           1599         103.00       448.57
  310.48        2978.00           1602         109.00       474.72
  310.51        2978.25           1606         110.00       479.08
  310.54        2978.50           1609         103.00       448.57
  310.56        2978.75           1612         116.00       505.24
  310.59        2979.00           1616         116.00       505.24
  310.62        2979.25           1619         106.00       461.65
  310.65        2979.50           1623         115.00       500.88
  310.67        2979.75           1626         103.00       448.57
  310.70        2980.00           1629         103.00       448.57
  310.73        2980.25           1633         113.00       492.16
  310.76        2980.50           1636         113.00       492.16
  310.79        2980.75           1639         100.00       435.49
  310.81        2981.00           1643         102.00       444.21
  310.84        2981.25           1646         111.00       483.44
  310.87        2981.50           1649         113.00       492.16
  310.90        2981.75           1653          99.00       431.13
  310.92        2982.00           1656         111.00       483.44
  310.95        2982.25           1659         112.00       487.80
  310.98        2982.50           1663         102.00       444.21
  311.01        2982.75           1666          97.00       422.41
  311.03        2983.00           1669         110.00       479.08
  311.06        2983.25           1673         111.00       483.44
  311.09        2983.50           1676          92.00       400.62
  311.12        2983.75           1679          97.00       422.41
  311.14        2984.00           1683         102.00       444.21
HS scan finished at 05:11:26
end
