************************************************************
  HS Scan of (1) Internal mercury lamp
************************************************************
Integration time is 0.2294 seconds per sample
dh120317DelftKZ 51.997-4.386 2.267704pr1000
************************************************************
Dead Time -------------------------  3E-08 
Number of Cycles Used -------------  4 
Starting Wavelength (Angstroms) ---  2950 
Final Wavelength (Angstoms) -------  2984 
Wavelength Increment (Angstroms) --  .25 
Filter Wheel #1 Position ---------- (1) Ground quartz diffuser (ND=2.32)
Filter Wheel #2 Position ---------- (1) Neutral Density 0.494



************************************************************
HS scan start time = 04:42:59
Dark Count =  .1 


Time (GMT)  Wavelength (Ang)  Step Number  Raw Counts  Counts/Second

  283.44        2950.00           1229         113.00       492.16
  283.54        2950.25           1232         129.00       561.91
  283.56        2950.50           1236         140.00       609.86
  283.59        2950.75           1239         125.00       544.47
  283.62        2951.00           1242         132.00       574.99
  283.65        2951.25           1246         129.00       561.91
  283.68        2951.50           1249         122.00       531.39
  283.70        2951.75           1252         120.00       522.68
  283.73        2952.00           1255         118.00       513.96
  283.76        2952.25           1259         111.00       483.44
  283.79        2952.50           1262         123.00       535.75
  283.81        2952.75           1265         119.00       518.32
  283.84        2953.00           1269         127.00       553.19
  283.87        2953.25           1272         123.00       535.75
  283.90        2953.50           1275         119.00       518.32
  283.92        2953.75           1279         135.00       588.07
  283.95        2954.00           1282         133.00       579.35
  283.98        2954.25           1285         125.00       544.47
  284.01        2954.50           1289         121.00       527.04
  284.04        2954.75           1292         119.00       518.32
  284.06        2955.00           1295         134.00       583.71
  284.09        2955.25           1299         120.00       522.68
  284.12        2955.50           1302         127.00       553.19
  284.15        2955.75           1305         129.00       561.91
  284.17        2956.00           1309         131.00       570.63
  284.20        2956.25           1312         138.00       601.14
  284.23        2956.50           1315         122.00       531.39
  284.26        2956.75           1319         122.00       531.39
  284.28        2957.00           1322         133.00       579.35
  284.31        2957.25           1325         115.00       500.88
  284.34        2957.50           1329         123.00       535.75
  284.37        2957.75           1332         126.00       548.83
  284.39        2958.00           1335         125.00       544.47
  284.42        2958.25           1339         121.00       527.04
  284.45        2958.50           1342         117.00       509.60
  284.48        2958.75           1345         118.00       513.96
  284.51        2959.00           1349         123.00       535.75
  284.53        2959.25           1352         138.00       601.14
  284.56        2959.50           1355         110.00       479.08
  284.59        2959.75           1359         127.00       553.19
  284.62        2960.00           1362         114.00       496.52
  284.65        2960.25           1365         120.00       522.68
  284.68        2960.50           1369         125.00       544.47
  284.71        2960.75           1372         129.00       561.91
  284.73        2961.00           1375         143.00       622.94
  284.76        2961.25           1379         139.00       605.50
  284.79        2961.50           1382         238.00      1037.09
  284.82        2961.75           1385         646.00      2815.84
  284.84        2962.00           1389        1876.00      8179.43
  284.87        2962.25           1392        3373.00     14709.63
  284.90        2962.50           1395        5316.00     23189.19
  284.93        2962.75           1399        7838.00     34202.04
  284.95        2963.00           1402        9501.00     41467.86
  284.98        2963.25           1405       11207.00     48924.85
  285.01        2963.50           1409       13912.00     60755.37
  285.04        2963.75           1412       16080.00     70243.34
  285.07        2964.00           1415       18147.00     79294.34
  285.10        2964.25           1419       20865.00     91203.44
  285.12        2964.50           1422       22442.00     98117.07
  285.15        2964.75           1425       24744.00    108214.30
  285.18        2965.00           1429       27557.00    120561.20
  285.21        2965.25           1432       29281.00    128132.90
  285.23        2965.50           1435       31494.00    137857.10
  285.26        2965.75           1439       34341.00    150375.60
  285.29        2966.00           1442       36055.00    157916.80
  285.32        2966.25           1445       37846.00    165800.40
  285.35        2966.50           1449       39718.00    174044.60
  285.37        2966.75           1452       40534.00    177639.50
  285.40        2967.00           1455       40779.00    178719.00
  285.43        2967.25           1459       40834.00    178961.30
  285.46        2967.50           1462       40736.00    178529.50
  285.49        2967.75           1465       40869.00    179115.50
  285.51        2968.00           1469       39962.00    175119.40
  285.54        2968.25           1472       38417.00    168314.60
  285.57        2968.50           1475       36788.00    161142.90
  285.60        2968.75           1479       34352.00    150424.00
  285.62        2969.00           1482       32558.00    142534.50
  285.65        2969.25           1485       30713.00    134424.60
  285.68        2969.50           1489       28218.00    123463.90
  285.71        2969.75           1492       26374.00    115367.70
  285.74        2970.00           1495       24940.00    109074.30
  285.77        2970.25           1499       22744.00     99441.38
  285.80        2970.50           1502       20953.00     91589.16
  285.83        2970.75           1505       18961.00     82860.03
  285.86        2971.00           1509       16519.00     72165.23
  285.89        2971.25           1512       14289.00     62404.87
  285.91        2971.50           1515       12403.00     54154.62
  285.94        2971.75           1519       10110.00     44129.44
  285.97        2972.00           1522        8118.00     35425.16
  286.00        2972.25           1525        6181.00     26965.58
  286.03        2972.50           1529        3723.00     16236.76
  286.06        2972.75           1532        2369.00     10329.70
  286.09        2973.00           1536         871.00      3796.86
  286.11        2973.25           1539         357.00      1555.87
  286.14        2973.50           1542         200.00       871.43
  286.17        2973.75           1546         148.00       644.74
  286.20        2974.00           1549         128.00       557.55
  286.23        2974.25           1552         139.00       605.50
  286.26        2974.50           1556         124.00       540.11
  286.28        2974.75           1559         118.00       513.96
  286.31        2975.00           1562         107.00       466.00
  286.34        2975.25           1566         107.00       466.00
  286.37        2975.50           1569         111.00       483.44
  286.39        2975.75           1572         109.00       474.72
  286.42        2976.00           1576         104.00       452.93
  286.45        2976.25           1579         110.00       479.08
  286.48        2976.50           1582         116.00       505.24
  286.51        2976.75           1586         112.00       487.80
  286.53        2977.00           1589         106.00       461.65
  286.56        2977.25           1592         104.00       452.93
  286.59        2977.50           1596         100.00       435.49
  286.62        2977.75           1599         115.00       500.88
  286.64        2978.00           1602          99.00       431.13
  286.67        2978.25           1606         113.00       492.16
  286.70        2978.50           1609         104.00       452.93
  286.73        2978.75           1612         110.00       479.08
  286.75        2979.00           1616         110.00       479.08
  286.78        2979.25           1619         113.00       492.16
  286.81        2979.50           1623         104.00       452.93
  286.84        2979.75           1626         106.00       461.65
  286.86        2980.00           1629         105.00       457.29
  286.89        2980.25           1633          99.00       431.13
  286.92        2980.50           1636         104.00       452.93
  286.95        2980.75           1639          98.00       426.77
  286.97        2981.00           1643         105.00       457.29
  287.00        2981.25           1646         108.00       470.36
  287.03        2981.50           1649         104.00       452.93
  287.06        2981.75           1653          97.00       422.41
  287.08        2982.00           1656         111.00       483.44
  287.11        2982.25           1659         100.00       435.49
  287.14        2982.50           1663          98.00       426.77
  287.17        2982.75           1666         107.00       466.00
  287.20        2983.00           1669         104.00       452.93
  287.22        2983.25           1673          94.00       409.33
  287.25        2983.50           1676         103.00       448.57
  287.28        2983.75           1679         108.00       470.36
  287.31        2984.00           1683          99.00       431.13
HS scan finished at 04:47:36
end
