************************************************************
  HS Scan of (1) Internal mercury lamp
************************************************************
Integration time is 0.2294 seconds per sample
dh160317DelftKZ 51.997-4.386 2.375pr1000
************************************************************
Dead Time -------------------------  3E-08 
Number of Cycles Used -------------  4 
Starting Wavelength (Angstroms) ---  2950 
Final Wavelength (Angstoms) -------  2984 
Wavelength Increment (Angstroms) --  .25 
Filter Wheel #1 Position ---------- (1) Ground quartz diffuser (ND=2.32)
Filter Wheel #2 Position ---------- (1) Neutral Density 0.494



************************************************************
HS scan start time = 04:32:53
Dark Count =  .1 


Time (GMT)  Wavelength (Ang)  Step Number  Raw Counts  Counts/Second

  273.33        2950.00           1229         124.00       540.11
  273.43        2950.25           1232         136.00       592.43
  273.45        2950.50           1236         143.00       622.94
  273.48        2950.75           1239         128.00       557.55
  273.51        2951.00           1242         134.00       583.71
  273.54        2951.25           1246         133.00       579.35
  273.56        2951.50           1249         131.00       570.63
  273.59        2951.75           1252         139.00       605.50
  273.62        2952.00           1255         121.00       527.04
  273.65        2952.25           1259         139.00       605.50
  273.67        2952.50           1262         127.00       553.19
  273.70        2952.75           1265         138.00       601.14
  273.73        2953.00           1269         137.00       596.78
  273.76        2953.25           1272         129.00       561.91
  273.79        2953.50           1275         125.00       544.47
  273.81        2953.75           1279         128.00       557.55
  273.84        2954.00           1282         134.00       583.71
  273.88        2954.25           1285         127.00       553.19
  273.91        2954.50           1289         136.00       592.43
  273.94        2954.75           1292         136.00       592.43
  273.96        2955.00           1295         128.00       557.55
  273.99        2955.25           1299         126.00       548.83
  274.02        2955.50           1302         134.00       583.71
  274.05        2955.75           1305         128.00       557.55
  274.07        2956.00           1309         126.00       548.83
  274.10        2956.25           1312         121.00       527.04
  274.13        2956.50           1315         117.00       509.60
  274.16        2956.75           1319         126.00       548.83
  274.19        2957.00           1322         123.00       535.75
  274.21        2957.25           1325         133.00       579.35
  274.24        2957.50           1329         127.00       553.19
  274.27        2957.75           1332         126.00       548.83
  274.30        2958.00           1335         125.00       544.47
  274.32        2958.25           1339         125.00       544.47
  274.35        2958.50           1342         126.00       548.83
  274.38        2958.75           1345         115.00       500.88
  274.41        2959.00           1349         122.00       531.39
  274.43        2959.25           1352         118.00       513.96
  274.47        2959.50           1355         129.00       561.91
  274.50        2959.75           1359         123.00       535.75
  274.52        2960.00           1362         144.00       627.30
  274.55        2960.25           1365         126.00       548.83
  274.58        2960.50           1369         130.00       566.27
  274.61        2960.75           1372         135.00       588.07
  274.64        2961.00           1375         143.00       622.94
  274.66        2961.25           1379         156.00       679.61
  274.69        2961.50           1382         232.00      1010.93
  274.72        2961.75           1385         787.00      3430.61
  274.75        2962.00           1389        2590.00     11293.71
  274.77        2962.25           1392        4499.00     19623.15
  274.80        2962.50           1395        6726.00     29345.35
  274.83        2962.75           1399        9256.00     40397.23
  274.86        2963.00           1402       11480.00     50118.46
  274.88        2963.25           1405       13871.00     60575.98
  274.91        2963.50           1409       16855.00     73636.35
  274.94        2963.75           1412       18642.00     81462.58
  274.97        2964.00           1415       20530.00     89735.14
  275.00        2964.25           1419       23606.00    103221.90
  275.02        2964.50           1422       26090.00    114121.10
  275.05        2964.75           1425       28409.00    124302.70
  275.08        2965.00           1429       30949.00    135461.80
  275.11        2965.25           1432       33145.00    145115.60
  275.13        2965.50           1435       35317.00    154669.40
  275.16        2965.75           1439       37920.00    166126.20
  275.19        2966.00           1442       40081.00    175643.70
  275.22        2966.25           1445       42422.00    185960.00
  275.25        2966.50           1449       44317.00    194315.60
  275.27        2966.75           1452       45447.00    199300.10
  275.30        2967.00           1455       46024.00    201845.80
  275.33        2967.25           1459       45923.00    201400.20
  275.36        2967.50           1462       45980.00    201651.70
  275.40        2967.75           1465       45812.00    200910.40
  275.42        2968.00           1469       44796.00    196428.30
  275.45        2968.25           1472       43112.00    189001.90
  275.48        2968.50           1475       41311.00    181063.20
  275.51        2968.75           1479       38586.00    169058.80
  275.53        2969.00           1482       36699.00    160751.10
  275.56        2969.25           1485       34785.00    152328.80
  275.59        2969.50           1489       32296.00    141382.60
  275.62        2969.75           1492       30077.00    131629.90
  275.65        2970.00           1495       28028.00    122629.50
  275.67        2970.25           1499       25312.00    110706.70
  275.70        2970.50           1502       23052.00    100792.10
  275.73        2970.75           1505       21005.00     91817.08
  275.77        2971.00           1509       18213.00     79583.43
  275.80        2971.25           1512       16028.00     70015.71
  275.83        2971.50           1515       14035.00     61293.51
  275.86        2971.75           1519       10863.00     47420.95
  275.89        2972.00           1522        8855.00     38645.04
  275.92        2972.25           1525        6914.00     30166.35
  275.94        2972.50           1529        4423.00     19291.46
  275.97        2972.75           1532        2509.00     10940.38
  276.00        2973.00           1536         759.00      3308.52
  276.03        2973.25           1539         286.00      1246.34
  276.06        2973.50           1542         176.00       766.80
  276.08        2973.75           1546         146.00       636.02
  276.11        2974.00           1549         138.00       601.14
  276.14        2974.25           1552         126.00       548.83
  276.17        2974.50           1556         127.00       553.19
  276.20        2974.75           1559         125.00       544.47
  276.23        2975.00           1562         114.00       496.52
  276.25        2975.25           1566         118.00       513.96
  276.28        2975.50           1569         111.00       483.44
  276.31        2975.75           1572         110.00       479.08
  276.34        2976.00           1576         123.00       535.75
  276.37        2976.25           1579         106.00       461.65
  276.39        2976.50           1582         108.00       470.36
  276.42        2976.75           1586         118.00       513.96
  276.45        2977.00           1589         101.00       439.85
  276.48        2977.25           1592         112.00       487.80
  276.50        2977.50           1596          94.00       409.33
  276.53        2977.75           1599         108.00       470.36
  276.56        2978.00           1602         108.00       470.36
  276.59        2978.25           1606         105.00       457.29
  276.62        2978.50           1609         114.00       496.52
  276.64        2978.75           1612         107.00       466.00
  276.67        2979.00           1616         104.00       452.93
  276.70        2979.25           1619         106.00       461.65
  276.73        2979.50           1623         107.00       466.00
  276.75        2979.75           1626         119.00       518.32
  276.78        2980.00           1629         104.00       452.93
  276.81        2980.25           1633         102.00       444.21
  276.84        2980.50           1636         102.00       444.21
  276.87        2980.75           1639         106.00       461.65
  276.89        2981.00           1643         105.00       457.29
  276.92        2981.25           1646         113.00       492.16
  276.95        2981.50           1649         109.00       474.72
  276.98        2981.75           1653         106.00       461.65
  277.00        2982.00           1656          98.00       426.77
  277.03        2982.25           1659         104.00       452.93
  277.06        2982.50           1663         109.00       474.72
  277.09        2982.75           1666         111.00       483.44
  277.11        2983.00           1669         107.00       466.00
  277.14        2983.25           1673         106.00       461.65
  277.17        2983.50           1676         107.00       466.00
  277.20        2983.75           1679         107.00       466.00
  277.23        2984.00           1683         100.00       435.49
HS scan finished at 04:37:31
end
