************************************************************
  HS Scan of (1) Internal mercury lamp
************************************************************
Integration time is 0.2294 seconds per sample
dh140317DelftKZ 51.997-4.386 2.375pr1000
************************************************************
Dead Time -------------------------  3E-08 
Number of Cycles Used -------------  4 
Starting Wavelength (Angstroms) ---  2950 
Final Wavelength (Angstoms) -------  2984 
Wavelength Increment (Angstroms) --  .25 
Filter Wheel #1 Position ---------- (1) Ground quartz diffuser (ND=2.32)
Filter Wheel #2 Position ---------- (1) Neutral Density 0.494



************************************************************
HS scan start time = 04:37:57
Dark Count =  0 


Time (GMT)  Wavelength (Ang)  Step Number  Raw Counts  Counts/Second

  278.40        2950.00           1229         130.00       566.71
  278.50        2950.25           1232         127.00       553.63
  278.52        2950.50           1236         145.00       632.10
  278.55        2950.75           1239         133.00       579.78
  278.58        2951.00           1242         134.00       584.14
  278.61        2951.25           1246         128.00       557.99
  278.63        2951.50           1249         134.00       584.14
  278.66        2951.75           1252         120.00       523.11
  278.69        2952.00           1255         129.00       562.35
  278.72        2952.25           1259         132.00       575.42
  278.74        2952.50           1262         119.00       518.75
  278.77        2952.75           1265         133.00       579.78
  278.80        2953.00           1269         143.00       623.38
  278.83        2953.25           1272         131.00       571.06
  278.86        2953.50           1275         138.00       601.58
  278.88        2953.75           1279         132.00       575.42
  278.91        2954.00           1282         135.00       588.50
  278.94        2954.25           1285         127.00       553.63
  278.97        2954.50           1289         129.00       562.35
  279.01        2954.75           1292         128.00       557.99
  279.04        2955.00           1295         124.00       540.55
  279.07        2955.25           1299         139.00       605.94
  279.09        2955.50           1302         120.00       523.11
  279.12        2955.75           1305         126.00       549.27
  279.15        2956.00           1309         130.00       566.71
  279.18        2956.25           1312         117.00       510.03
  279.20        2956.50           1315         121.00       527.47
  279.23        2956.75           1319         126.00       549.27
  279.26        2957.00           1322         124.00       540.55
  279.29        2957.25           1325         131.00       571.06
  279.31        2957.50           1329         120.00       523.11
  279.34        2957.75           1332         124.00       540.55
  279.37        2958.00           1335         131.00       571.06
  279.40        2958.25           1339         127.00       553.63
  279.42        2958.50           1342         126.00       549.27
  279.45        2958.75           1345         116.00       505.67
  279.48        2959.00           1349         121.00       527.47
  279.51        2959.25           1352         110.00       479.52
  279.54        2959.50           1355         118.00       514.39
  279.56        2959.75           1359         120.00       523.11
  279.59        2960.00           1362         135.00       588.50
  279.62        2960.25           1365         114.00       496.96
  279.65        2960.50           1369         129.00       562.35
  279.67        2960.75           1372         143.00       623.38
  279.70        2961.00           1375         132.00       575.42
  279.73        2961.25           1379         158.00       688.77
  279.76        2961.50           1382         202.00       880.58
  279.79        2961.75           1385         573.00      2498.01
  279.82        2962.00           1389        2035.00      8873.33
  279.84        2962.25           1392        3854.00     16808.82
  279.87        2962.50           1395        5915.00     25804.62
  279.90        2962.75           1399        8573.00     37413.38
  279.93        2963.00           1402       10780.00     47058.55
  279.96        2963.25           1405       12476.00     54474.31
  279.98        2963.50           1409       15162.00     66225.61
  280.01        2963.75           1412       17585.00     76833.40
  280.04        2964.00           1415       19789.00     86488.29
  280.07        2964.25           1419       23020.00    100652.20
  280.10        2964.50           1422       25184.00    110145.40
  280.13        2964.75           1425       27333.00    119578.20
  280.16        2965.00           1429       30310.00    132654.20
  280.18        2965.25           1432       32683.00    143084.60
  280.21        2965.50           1435       34970.00    153143.10
  280.24        2965.75           1439       37775.00    165488.30
  280.27        2966.00           1442       39458.00    172899.80
  280.29        2966.25           1445       41594.00    182310.90
  280.32        2966.50           1449       44385.00    194616.00
  280.35        2966.75           1452       45613.00    200032.90
  280.38        2967.00           1455       45957.00    201550.70
  280.41        2967.25           1459       46184.00    202552.30
  280.43        2967.50           1462       46201.00    202627.30
  280.46        2967.75           1465       45836.00    201016.80
  280.49        2968.00           1469       44907.00    196918.40
  280.52        2968.25           1472       43627.00    191273.20
  280.55        2968.50           1475       41909.00    183699.20
  280.57        2968.75           1479       39728.00    174089.10
  280.60        2969.00           1482       37755.00    165400.20
  280.63        2969.25           1485       35576.00    155809.40
  280.66        2969.50           1489       32452.00    142068.90
  280.68        2969.75           1492       30135.00    131885.20
  280.71        2970.00           1495       28415.00    124329.50
  280.74        2970.25           1499       25710.00    112453.70
  280.77        2970.50           1502       23668.00    103494.30
  280.80        2970.75           1505       21645.00     94623.06
  280.82        2971.00           1509       18653.00     81511.20
  280.85        2971.25           1512       16418.00     71723.47
  280.88        2971.50           1515       14545.00     63525.49
  280.91        2971.75           1519       11921.00     52047.21
  280.94        2972.00           1522       10057.00     43898.23
  280.96        2972.25           1525        7807.00     34067.06
  280.99        2972.50           1529        4770.00     20806.36
  281.02        2972.75           1532        2617.00     11411.93
  281.05        2973.00           1536         821.00      3579.29
  281.07        2973.25           1539         346.00      1508.35
  281.10        2973.50           1542         182.00       793.39
  281.13        2973.75           1546         149.00       649.53
  281.16        2974.00           1549         136.00       592.86
  281.19        2974.25           1552         132.00       575.42
  281.21        2974.50           1556         130.00       566.71
  281.24        2974.75           1559         131.00       571.06
  281.27        2975.00           1562         115.00       501.32
  281.30        2975.25           1566         113.00       492.60
  281.32        2975.50           1569         105.00       457.72
  281.35        2975.75           1572         109.00       475.16
  281.38        2976.00           1576         102.00       444.64
  281.41        2976.25           1579         117.00       510.03
  281.43        2976.50           1582         103.00       449.00
  281.46        2976.75           1586         102.00       444.64
  281.49        2977.00           1589         106.00       462.08
  281.52        2977.25           1592         114.00       496.96
  281.54        2977.50           1596         108.00       470.80
  281.57        2977.75           1599         107.00       466.44
  281.60        2978.00           1602         117.00       510.03
  281.63        2978.25           1606         112.00       488.24
  281.66        2978.50           1609         113.00       492.60
  281.68        2978.75           1612         119.00       518.75
  281.71        2979.00           1616         114.00       496.96
  281.74        2979.25           1619         110.00       479.52
  281.77        2979.50           1623         109.00       475.16
  281.79        2979.75           1626         100.00       435.93
  281.82        2980.00           1629         104.00       453.36
  281.86        2980.25           1633          96.00       418.49
  281.88        2980.50           1636         108.00       470.80
  281.91        2980.75           1639         104.00       453.36
  281.94        2981.00           1643         108.00       470.80
  281.97        2981.25           1646         105.00       457.72
  281.99        2981.50           1649         111.00       483.88
  282.02        2981.75           1653         109.00       475.16
  282.05        2982.00           1656         110.00       479.52
  282.08        2982.25           1659          96.00       418.49
  282.10        2982.50           1663          98.00       427.21
  282.13        2982.75           1666         106.00       462.08
  282.16        2983.00           1669         105.00       457.72
  282.19        2983.25           1673         101.00       440.28
  282.21        2983.50           1676          99.00       431.57
  282.24        2983.75           1679         108.00       470.80
  282.27        2984.00           1683         102.00       444.64
HS scan finished at 04:42:34
end
