************************************************************
  HS Scan of (1) Internal mercury lamp
************************************************************
Integration time is 0.2294 seconds per sample
dh170317DelftKZ 51.997-4.386 2.482296pr1000
************************************************************
Dead Time -------------------------  3E-08 
Number of Cycles Used -------------  4 
Starting Wavelength (Angstroms) ---  2950 
Final Wavelength (Angstoms) -------  2984 
Wavelength Increment (Angstroms) --  .25 
Filter Wheel #1 Position ---------- (1) Ground quartz diffuser (ND=2.32)
Filter Wheel #2 Position ---------- (1) Neutral Density 0.494



************************************************************
HS scan start time = 00:32:28
Dark Count =  0 


Time (GMT)  Wavelength (Ang)  Step Number  Raw Counts  Counts/Second

   32.92        2950.00           1229         133.00       579.78
   33.02        2950.25           1232         138.00       601.58
   33.05        2950.50           1236         124.00       540.55
   33.08        2950.75           1239         126.00       549.27
   33.11        2951.00           1242         130.00       566.71
   33.13        2951.25           1246         138.00       601.58
   33.16        2951.50           1249         131.00       571.06
   33.19        2951.75           1252         136.00       592.86
   33.22        2952.00           1255         127.00       553.63
   33.25        2952.25           1259         131.00       571.06
   33.28        2952.50           1262         135.00       588.50
   33.31        2952.75           1265         132.00       575.42
   33.33        2953.00           1269         120.00       523.11
   33.36        2953.25           1272         126.00       549.27
   33.39        2953.50           1275         122.00       531.83
   33.42        2953.75           1279         128.00       557.99
   33.44        2954.00           1282         129.00       562.35
   33.47        2954.25           1285         127.00       553.63
   33.50        2954.50           1289         130.00       566.71
   33.53        2954.75           1292         128.00       557.99
   33.55        2955.00           1295         122.00       531.83
   33.58        2955.25           1299         126.00       549.27
   33.61        2955.50           1302         131.00       571.06
   33.64        2955.75           1305         135.00       588.50
   33.67        2956.00           1309         126.00       549.27
   33.70        2956.25           1312         132.00       575.42
   33.72        2956.50           1315         134.00       584.14
   33.75        2956.75           1319         134.00       584.14
   33.78        2957.00           1322         121.00       527.47
   33.81        2957.25           1325         127.00       553.63
   33.83        2957.50           1329         128.00       557.99
   33.86        2957.75           1332         120.00       523.11
   33.89        2958.00           1335         117.00       510.03
   33.92        2958.25           1339         121.00       527.47
   33.95        2958.50           1342         126.00       549.27
   33.97        2958.75           1345         122.00       531.83
   34.00        2959.00           1349         128.00       557.99
   34.03        2959.25           1352         114.00       496.96
   34.06        2959.50           1355         120.00       523.11
   34.08        2959.75           1359         131.00       571.06
   34.11        2960.00           1362         122.00       531.83
   34.14        2960.25           1365         138.00       601.58
   34.17        2960.50           1369         134.00       584.14
   34.19        2960.75           1372         145.00       632.10
   34.22        2961.00           1375         157.00       684.41
   34.25        2961.25           1379         161.00       701.85
   34.28        2961.50           1382         271.00      1181.38
   34.30        2961.75           1385         929.00      4050.19
   34.33        2962.00           1389        2914.00     12707.55
   34.36        2962.25           1392        4746.00     20701.61
   34.39        2962.50           1395        6838.00     29834.89
   34.42        2962.75           1399       10272.00     44837.96
   34.45        2963.00           1402       12704.00     55471.49
   34.48        2963.25           1405       14997.00     65503.49
   34.50        2963.50           1409       18865.00     82439.91
   34.53        2963.75           1412       21474.00     93873.41
   34.56        2964.00           1415       24276.00    106161.50
   34.59        2964.25           1419       27765.00    121475.00
   34.61        2964.50           1422       30477.00    133388.00
   34.64        2964.75           1425       33169.00    145221.50
   34.67        2965.00           1429       36326.00    159109.90
   34.70        2965.25           1432       38394.00    168213.80
   34.73        2965.50           1435       40952.00    179481.70
   34.75        2965.75           1439       44078.00    193262.00
   34.78        2966.00           1442       46581.00    204304.20
   34.81        2966.25           1445       49066.00    215274.20
   34.84        2966.50           1449       51741.00    227091.10
   34.86        2966.75           1452       52722.00    231426.80
   34.89        2967.00           1455       53389.00    234375.40
   34.92        2967.25           1459       53605.00    235330.40
   34.95        2967.50           1462       53576.00    235202.20
   34.98        2967.75           1465       53500.00    234866.20
   35.00        2968.00           1469       52547.00    230653.30
   35.03        2968.25           1472       51105.00    224280.80
   35.06        2968.50           1475       49128.00    215548.00
   35.09        2968.75           1479       46150.00    202402.30
   35.12        2969.00           1482       43365.00    190117.90
   35.14        2969.25           1485       40678.00    178274.40
   35.17        2969.50           1489       37357.00    163648.00
   35.20        2969.75           1492       34924.00    152940.70
   35.23        2970.00           1495       32450.00    142060.10
   35.26        2970.25           1499       29303.00    128229.90
   35.29        2970.50           1502       27027.00    118234.70
   35.32        2970.75           1505       25011.00    109386.30
   35.35        2971.00           1509       21679.00     94772.12
   35.38        2971.25           1512       18878.00     82496.86
   35.41        2971.50           1515       16185.00     70703.43
   35.43        2971.75           1519       12719.00     55537.10
   35.46        2972.00           1522       10151.00     44309.08
   35.49        2972.25           1525        7744.00     33791.87
   35.52        2972.50           1529        4679.00     20409.18
   35.54        2972.75           1532        2598.00     11329.05
   35.57        2973.00           1536         750.00      3269.72
   35.60        2973.25           1539         287.00      1251.14
   35.63        2973.50           1542         187.00       815.19
   35.65        2973.75           1546         157.00       684.41
   35.68        2974.00           1549         143.00       623.38
   35.71        2974.25           1552         130.00       566.71
   35.74        2974.50           1556         118.00       514.39
   35.77        2974.75           1559         122.00       531.83
   35.79        2975.00           1562         129.00       562.35
   35.82        2975.25           1566         115.00       501.32
   35.85        2975.50           1569         116.00       505.67
   35.88        2975.75           1572         119.00       518.75
   35.91        2976.00           1576         107.00       466.44
   35.94        2976.25           1579         109.00       475.16
   35.96        2976.50           1582         117.00       510.03
   35.99        2976.75           1586         122.00       531.83
   36.02        2977.00           1589         106.00       462.08
   36.05        2977.25           1592         112.00       488.24
   36.07        2977.50           1596         122.00       531.83
   36.10        2977.75           1599         106.00       462.08
   36.13        2978.00           1602         107.00       466.44
   36.16        2978.25           1606         111.00       483.88
   36.19        2978.50           1609         109.00       475.16
   36.21        2978.75           1612         107.00       466.44
   36.24        2979.00           1616         105.00       457.72
   36.27        2979.25           1619          99.00       431.57
   36.30        2979.50           1623         116.00       505.67
   36.32        2979.75           1626         106.00       462.08
   36.35        2980.00           1629         107.00       466.44
   36.38        2980.25           1633         110.00       479.52
   36.41        2980.50           1636         105.00       457.72
   36.43        2980.75           1639          96.00       418.49
   36.46        2981.00           1643         120.00       523.11
   36.49        2981.25           1646         112.00       488.24
   36.52        2981.50           1649          99.00       431.57
   36.54        2981.75           1653         111.00       483.88
   36.57        2982.00           1656         117.00       510.03
   36.60        2982.25           1659         114.00       496.96
   36.63        2982.50           1663         106.00       462.08
   36.66        2982.75           1666         110.00       479.52
   36.68        2983.00           1669         103.00       449.00
   36.71        2983.25           1673         105.00       457.72
   36.74        2983.50           1676         117.00       510.03
   36.77        2983.75           1679          97.00       422.85
   36.79        2984.00           1683         114.00       496.96
HS scan finished at 00:37:05
end
************************************************************
  HS Scan of (1) Internal mercury lamp
************************************************************
Integration time is 0.2294 seconds per sample
dh170317DelftKZ 51.997-4.386 2.482296pr1000
************************************************************
Dead Time -------------------------  3E-08 
Number of Cycles Used -------------  4 
Starting Wavelength (Angstroms) ---  2950 
Final Wavelength (Angstoms) -------  2984 
Wavelength Increment (Angstroms) --  .25 
Filter Wheel #1 Position ---------- (1) Ground quartz diffuser (ND=2.32)
Filter Wheel #2 Position ---------- (1) Neutral Density 0.494



************************************************************
HS scan start time = 04:30:04
Dark Count =  .1 


Time (GMT)  Wavelength (Ang)  Step Number  Raw Counts  Counts/Second

  270.52        2950.00           1229         134.00       583.71
  270.62        2950.25           1232         120.00       522.68
  270.65        2950.50           1236         140.00       609.86
  270.68        2950.75           1239         130.00       566.27
  270.70        2951.00           1242         138.00       601.14
  270.73        2951.25           1246         131.00       570.63
  270.76        2951.50           1249         132.00       574.99
  270.79        2951.75           1252         131.00       570.63
  270.81        2952.00           1255         130.00       566.27
  270.84        2952.25           1259         122.00       531.39
  270.87        2952.50           1262         127.00       553.19
  270.90        2952.75           1265         126.00       548.83
  270.92        2953.00           1269         132.00       574.99
  270.95        2953.25           1272         121.00       527.04
  270.98        2953.50           1275         134.00       583.71
  271.01        2953.75           1279         132.00       574.99
  271.04        2954.00           1282         121.00       527.04
  271.07        2954.25           1285         138.00       601.14
  271.10        2954.50           1289         135.00       588.07
  271.13        2954.75           1292         129.00       561.91
  271.16        2955.00           1295         127.00       553.19
  271.19        2955.25           1299         130.00       566.27
  271.21        2955.50           1302         134.00       583.71
  271.24        2955.75           1305         121.00       527.04
  271.27        2956.00           1309         128.00       557.55
  271.30        2956.25           1312         133.00       579.35
  271.33        2956.50           1315         115.00       500.88
  271.35        2956.75           1319         127.00       553.19
  271.38        2957.00           1322         119.00       518.32
  271.41        2957.25           1325         128.00       557.55
  271.43        2957.50           1329         119.00       518.32
  271.46        2957.75           1332         119.00       518.32
  271.49        2958.00           1335         127.00       553.19
  271.52        2958.25           1339         125.00       544.47
  271.55        2958.50           1342         123.00       535.75
  271.58        2958.75           1345         124.00       540.11
  271.61        2959.00           1349         113.00       492.16
  271.63        2959.25           1352         124.00       540.11
  271.66        2959.50           1355         131.00       570.63
  271.69        2959.75           1359         125.00       544.47
  271.72        2960.00           1362         121.00       527.04
  271.74        2960.25           1365         124.00       540.11
  271.77        2960.50           1369         120.00       522.68
  271.80        2960.75           1372         130.00       566.27
  271.83        2961.00           1375         146.00       636.02
  271.87        2961.25           1379         155.00       675.25
  271.89        2961.50           1382         236.00      1028.37
  271.92        2961.75           1385         818.00      3565.77
  271.95        2962.00           1389        2747.00     11978.58
  271.98        2962.25           1392        4571.00     19937.38
  272.01        2962.50           1395        6825.00     29777.68
  272.03        2962.75           1399        9907.00     43242.20
  272.06        2963.00           1402       12213.00     53323.69
  272.09        2963.25           1405       14701.00     64207.70
  272.12        2963.50           1409       17853.00     78006.66
  272.15        2963.75           1412       20350.00     88946.27
  272.18        2964.00           1415       22652.00     99037.94
  272.21        2964.25           1419       25446.00    111294.70
  272.23        2964.50           1422       27438.00    120038.70
  272.26        2964.75           1425       30169.00    132034.20
  272.29        2965.00           1429       33269.00    145660.90
  272.32        2965.25           1432       35536.00    155633.00
  272.34        2965.50           1435       37911.00    166086.60
  272.37        2965.75           1439       40807.00    178842.30
  272.40        2966.00           1442       42985.00    188442.00
  272.43        2966.25           1445       45120.00    197857.50
  272.46        2966.50           1449       47789.00    209635.60
  272.49        2966.75           1452       48798.00    214090.40
  272.52        2967.00           1455       49481.00    217106.50
  272.54        2967.25           1459       49344.00    216501.50
  272.57        2967.50           1462       49363.00    216585.40
  272.60        2967.75           1465       49328.00    216430.80
  272.63        2968.00           1469       48193.00    211419.10
  272.66        2968.25           1472       46526.00    204061.00
  272.69        2968.50           1475       44902.00    196895.90
  272.72        2968.75           1479       42066.00    184390.80
  272.74        2969.00           1482       39642.00    173709.80
  272.77        2969.25           1485       37203.00    162969.60
  272.80        2969.50           1489       34348.00    150406.40
  272.83        2969.75           1492       32340.00    141576.10
  272.85        2970.00           1495       30533.00    133633.60
  272.88        2970.25           1499       27509.00    120350.50
  272.91        2970.50           1502       25157.00    110026.50
  272.94        2970.75           1505       22677.00     99147.56
  272.97        2971.00           1509       19678.00     86001.47
  272.99        2971.25           1512       17097.00     74695.97
  273.02        2971.50           1515       14921.00     65170.46
  273.05        2971.75           1519       12146.00     53030.69
  273.08        2972.00           1522        9745.00     42534.19
  273.11        2972.25           1525        7266.00     31703.64
  273.13        2972.50           1529        4471.00     19500.94
  273.16        2972.75           1532        2571.00     11210.83
  273.19        2973.00           1536         906.00      3949.47
  273.22        2973.25           1539         360.00      1568.95
  273.25        2973.50           1542         185.00       806.04
  273.27        2973.75           1546         142.00       618.58
  273.30        2974.00           1549         148.00       644.74
  273.33        2974.25           1552         131.00       570.63
  273.36        2974.50           1556         122.00       531.39
  273.38        2974.75           1559         117.00       509.60
  273.41        2975.00           1562         123.00       535.75
  273.44        2975.25           1566         126.00       548.83
  273.47        2975.50           1569         119.00       518.32
  273.49        2975.75           1572         121.00       527.04
  273.52        2976.00           1576         108.00       470.36
  273.55        2976.25           1579         110.00       479.08
  273.58        2976.50           1582         116.00       505.24
  273.60        2976.75           1586         104.00       452.93
  273.63        2977.00           1589         116.00       505.24
  273.66        2977.25           1592         109.00       474.72
  273.69        2977.50           1596         109.00       474.72
  273.72        2977.75           1599         113.00       492.16
  273.74        2978.00           1602         105.00       457.29
  273.77        2978.25           1606         101.00       439.85
  273.80        2978.50           1609         117.00       509.60
  273.83        2978.75           1612         102.00       444.21
  273.85        2979.00           1616         109.00       474.72
  273.88        2979.25           1619         111.00       483.44
  273.91        2979.50           1623         123.00       535.75
  273.94        2979.75           1626         107.00       466.00
  273.97        2980.00           1629          94.00       409.33
  273.99        2980.25           1633         112.00       487.80
  274.02        2980.50           1636         122.00       531.39
  274.05        2980.75           1639         106.00       461.65
  274.08        2981.00           1643          99.00       431.13
  274.10        2981.25           1646         110.00       479.08
  274.13        2981.50           1649          97.00       422.41
  274.16        2981.75           1653          88.00       383.18
  274.19        2982.00           1656         104.00       452.93
  274.22        2982.25           1659          97.00       422.41
  274.24        2982.50           1663         104.00       452.93
  274.27        2982.75           1666         101.00       439.85
  274.30        2983.00           1669         100.00       435.49
  274.33        2983.25           1673         106.00       461.65
  274.35        2983.50           1676         110.00       479.08
  274.38        2983.75           1679         103.00       448.57
  274.41        2984.00           1683         105.00       457.29
HS scan finished at 04:34:43
end
