************************************************************
  HS Scan of (1) Internal mercury lamp
************************************************************
Integration time is 0.2294 seconds per sample
dh180317DelftKZ 51.997-4.386 2.482296pr1000
************************************************************
Dead Time -------------------------  3E-08 
Number of Cycles Used -------------  4 
Starting Wavelength (Angstroms) ---  2950 
Final Wavelength (Angstoms) -------  2984 
Wavelength Increment (Angstroms) --  .25 
Filter Wheel #1 Position ---------- (1) Ground quartz diffuser (ND=2.32)
Filter Wheel #2 Position ---------- (1) Neutral Density 0.494



************************************************************
HS scan start time = 04:27:31
Dark Count =  0 


Time (GMT)  Wavelength (Ang)  Step Number  Raw Counts  Counts/Second

  267.97        2950.00           1229         130.00       566.71
  268.07        2950.25           1232         130.00       566.71
  268.09        2950.50           1236         127.00       553.63
  268.12        2950.75           1239         127.00       553.63
  268.15        2951.00           1242         143.00       623.38
  268.18        2951.25           1246         128.00       557.99
  268.21        2951.50           1249         114.00       496.96
  268.23        2951.75           1252         130.00       566.71
  268.26        2952.00           1255         132.00       575.42
  268.29        2952.25           1259         129.00       562.35
  268.32        2952.50           1262         128.00       557.99
  268.35        2952.75           1265         122.00       531.83
  268.37        2953.00           1269         120.00       523.11
  268.40        2953.25           1272         127.00       553.63
  268.43        2953.50           1275         142.00       619.02
  268.46        2953.75           1279         131.00       571.06
  268.48        2954.00           1282         131.00       571.06
  268.51        2954.25           1285         121.00       527.47
  268.54        2954.50           1289         135.00       588.50
  268.57        2954.75           1292         134.00       584.14
  268.60        2955.00           1295         118.00       514.39
  268.62        2955.25           1299         125.00       544.91
  268.65        2955.50           1302         125.00       544.91
  268.68        2955.75           1305         132.00       575.42
  268.71        2956.00           1309         121.00       527.47
  268.73        2956.25           1312         127.00       553.63
  268.76        2956.50           1315         125.00       544.91
  268.79        2956.75           1319         128.00       557.99
  268.82        2957.00           1322         127.00       553.63
  268.84        2957.25           1325         124.00       540.55
  268.87        2957.50           1329         119.00       518.75
  268.90        2957.75           1332         117.00       510.03
  268.93        2958.00           1335         121.00       527.47
  268.95        2958.25           1339         122.00       531.83
  268.98        2958.50           1342         121.00       527.47
  269.01        2958.75           1345         140.00       610.30
  269.04        2959.00           1349         127.00       553.63
  269.06        2959.25           1352         112.00       488.24
  269.10        2959.50           1355         127.00       553.63
  269.13        2959.75           1359         118.00       514.39
  269.16        2960.00           1362         127.00       553.63
  269.19        2960.25           1365         122.00       531.83
  269.21        2960.50           1369         136.00       592.86
  269.24        2960.75           1372         139.00       605.94
  269.27        2961.00           1375         158.00       688.77
  269.30        2961.25           1379         154.00       671.33
  269.33        2961.50           1382         250.00      1089.84
  269.36        2961.75           1385         865.00      3771.13
  269.39        2962.00           1389        2668.00     11634.40
  269.41        2962.25           1392        4340.00     18929.67
  269.44        2962.50           1395        6176.00     26944.18
  269.47        2962.75           1399        9204.00     40170.44
  269.50        2963.00           1402       11650.00     50862.21
  269.53        2963.25           1405       13726.00     59942.05
  269.56        2963.50           1409       17184.00     75077.37
  269.58        2963.75           1412       19737.00     86260.43
  269.61        2964.00           1415       22198.00     97047.61
  269.64        2964.25           1419       25598.00    111962.20
  269.67        2964.50           1422       27788.00    121576.00
  269.70        2964.75           1425       30205.00    132192.80
  269.73        2965.00           1429       32850.00    143818.80
  269.76        2965.25           1432       34790.00    152351.20
  269.79        2965.50           1435       37213.00    163014.10
  269.81        2965.75           1439       40246.00    176371.00
  269.84        2966.00           1442       42422.00    185960.50
  269.87        2966.25           1445       44662.00    195837.70
  269.90        2966.50           1449       47071.00    206466.70
  269.93        2966.75           1452       48134.00    211159.10
  269.96        2967.00           1455       48739.00    213830.30
  269.99        2967.25           1459       48811.00    214148.20
  270.01        2967.50           1462       48737.00    213821.50
  270.04        2967.75           1465       48611.00    213265.10
  270.07        2968.00           1469       48142.00    211194.40
  270.10        2968.25           1472       46754.00    205067.60
  270.12        2968.50           1475       44711.00    196053.90
  270.15        2968.75           1479       41991.00    184060.60
  270.18        2969.00           1482       39486.00    173023.10
  270.21        2969.25           1485       37151.00    162741.20
  270.24        2969.50           1489       34097.00    149302.80
  270.26        2969.75           1492       31877.00    139541.10
  270.29        2970.00           1495       29884.00    130782.40
  270.32        2970.25           1499       26813.00    117295.20
  270.35        2970.50           1502       24651.00    107806.70
  270.38        2970.75           1505       22867.00     99981.22
  270.40        2971.00           1509       19833.00     86681.09
  270.43        2971.25           1512       17474.00     76347.29
  270.46        2971.50           1515       14994.00     65490.36
  270.49        2971.75           1519       11643.00     50831.60
  270.51        2972.00           1522        9196.00     40135.49
  270.54        2972.25           1525        7118.00     31057.70
  270.57        2972.50           1529        4272.00     18632.91
  270.60        2972.75           1532        2359.00     10286.52
  270.63        2973.00           1536         711.00      3099.68
  270.65        2973.25           1539         255.00      1111.63
  270.68        2973.50           1542         172.00       749.80
  270.71        2973.75           1546         147.00       640.81
  270.74        2974.00           1549         136.00       592.86
  270.76        2974.25           1552         135.00       588.50
  270.79        2974.50           1556         126.00       549.27
  270.82        2974.75           1559         123.00       536.19
  270.85        2975.00           1562         113.00       492.60
  270.88        2975.25           1566         121.00       527.47
  270.90        2975.50           1569         116.00       505.67
  270.93        2975.75           1572         107.00       466.44
  270.96        2976.00           1576         120.00       523.11
  270.99        2976.25           1579         109.00       475.16
  271.02        2976.50           1582         114.00       496.96
  271.04        2976.75           1586         105.00       457.72
  271.07        2977.00           1589         118.00       514.39
  271.10        2977.25           1592         112.00       488.24
  271.13        2977.50           1596         117.00       510.03
  271.15        2977.75           1599         105.00       457.72
  271.18        2978.00           1602         107.00       466.44
  271.21        2978.25           1606         104.00       453.36
  271.24        2978.50           1609         118.00       514.39
  271.26        2978.75           1612         117.00       510.03
  271.29        2979.00           1616          94.00       409.77
  271.32        2979.25           1619         109.00       475.16
  271.35        2979.50           1623         111.00       483.88
  271.38        2979.75           1626         114.00       496.96
  271.40        2980.00           1629         115.00       501.32
  271.43        2980.25           1633         111.00       483.88
  271.46        2980.50           1636         100.00       435.93
  271.49        2980.75           1639         109.00       475.16
  271.51        2981.00           1643          99.00       431.57
  271.54        2981.25           1646         108.00       470.80
  271.57        2981.50           1649         102.00       444.64
  271.60        2981.75           1653         107.00       466.44
  271.62        2982.00           1656         108.00       470.80
  271.65        2982.25           1659         104.00       453.36
  271.68        2982.50           1663          99.00       431.57
  271.71        2982.75           1666         100.00       435.93
  271.74        2983.00           1669         109.00       475.16
  271.76        2983.25           1673         102.00       444.64
  271.79        2983.50           1676         108.00       470.80
  271.82        2983.75           1679         110.00       479.52
  271.85        2984.00           1683          90.00       392.33
HS scan finished at 04:32:08
end
