************************************************************
  HS Scan of (1) Internal mercury lamp
************************************************************
Integration time is 0.2294 seconds per sample
dh110317DelftKZ 51.997-4.386 2.321352pr1000
************************************************************
Dead Time -------------------------  3E-08 
Number of Cycles Used -------------  4 
Starting Wavelength (Angstroms) ---  2950 
Final Wavelength (Angstoms) -------  2984 
Wavelength Increment (Angstroms) --  .25 
Filter Wheel #1 Position ---------- (1) Ground quartz diffuser (ND=2.32)
Filter Wheel #2 Position ---------- (1) Neutral Density 0.494



************************************************************
HS scan start time = 04:45:31
Dark Count =  .1 


Time (GMT)  Wavelength (Ang)  Step Number  Raw Counts  Counts/Second

  285.96        2950.00           1229         137.00       596.78
  286.06        2950.25           1232         135.00       588.07
  286.09        2950.50           1236         126.00       548.83
  286.11        2950.75           1239         126.00       548.83
  286.14        2951.00           1242         131.00       570.63
  286.17        2951.25           1246         128.00       557.55
  286.20        2951.50           1249         128.00       557.55
  286.22        2951.75           1252         128.00       557.55
  286.25        2952.00           1255         131.00       570.63
  286.28        2952.25           1259         127.00       553.19
  286.31        2952.50           1262         109.00       474.72
  286.34        2952.75           1265         132.00       574.99
  286.36        2953.00           1269         115.00       500.88
  286.39        2953.25           1272         137.00       596.78
  286.42        2953.50           1275         126.00       548.83
  286.45        2953.75           1279         129.00       561.91
  286.47        2954.00           1282         123.00       535.75
  286.50        2954.25           1285         130.00       566.27
  286.53        2954.50           1289         132.00       574.99
  286.56        2954.75           1292         134.00       583.71
  286.59        2955.00           1295         121.00       527.04
  286.62        2955.25           1299         134.00       583.71
  286.65        2955.50           1302         121.00       527.04
  286.68        2955.75           1305         130.00       566.27
  286.71        2956.00           1309         132.00       574.99
  286.73        2956.25           1312         124.00       540.11
  286.76        2956.50           1315         121.00       527.04
  286.79        2956.75           1319         121.00       527.04
  286.82        2957.00           1322         126.00       548.83
  286.85        2957.25           1325         125.00       544.47
  286.87        2957.50           1329         130.00       566.27
  286.90        2957.75           1332         125.00       544.47
  286.93        2958.00           1335         118.00       513.96
  286.96        2958.25           1339         121.00       527.04
  286.98        2958.50           1342         124.00       540.11
  287.01        2958.75           1345         134.00       583.71
  287.04        2959.00           1349         118.00       513.96
  287.07        2959.25           1352         124.00       540.11
  287.11        2959.50           1355         123.00       535.75
  287.13        2959.75           1359         124.00       540.11
  287.16        2960.00           1362         121.00       527.04
  287.19        2960.25           1365         136.00       592.43
  287.22        2960.50           1369         130.00       566.27
  287.24        2960.75           1372         142.00       618.58
  287.27        2961.00           1375         139.00       605.50
  287.30        2961.25           1379         153.00       666.53
  287.33        2961.50           1382         237.00      1032.73
  287.36        2961.75           1385         671.00      2924.84
  287.38        2962.00           1389        2324.00     10133.42
  287.41        2962.25           1392        4068.00     17742.22
  287.44        2962.50           1395        5794.00     25275.92
  287.47        2962.75           1399        8038.00     35075.69
  287.50        2963.00           1402       10116.00     44155.67
  287.52        2963.25           1405       12211.00     53314.94
  287.55        2963.50           1409       15132.00     66093.88
  287.58        2963.75           1412       17082.00     74630.28
  287.61        2964.00           1415       18952.00     82820.60
  287.63        2964.25           1419       21927.00     95858.97
  287.66        2964.50           1422       24099.00    105384.50
  287.69        2964.75           1425       26290.00    114998.90
  287.72        2965.00           1429       29241.00    127957.10
  287.75        2965.25           1432       31471.00    137756.00
  287.77        2965.50           1435       33749.00    147771.80
  287.80        2965.75           1439       36472.00    159752.00
  287.83        2966.00           1442       38186.00    167297.50
  287.86        2966.25           1445       40200.00    176167.90
  287.89        2966.50           1449       42080.00    184452.50
  287.91        2966.75           1452       42777.00    187525.00
  287.94        2967.00           1455       43135.00    189103.30
  287.97        2967.25           1459       43286.00    189769.10
  288.00        2967.50           1462       43268.00    189689.80
  288.03        2967.75           1465       43263.00    189667.70
  288.05        2968.00           1469       42116.00    184611.20
  288.08        2968.25           1472       40697.00    178357.60
  288.11        2968.50           1475       39241.00    171943.50
  288.14        2968.75           1479       36451.00    159659.60
  288.16        2969.00           1482       34715.00    152020.90
  288.19        2969.25           1485       32411.00    141888.20
  288.22        2969.50           1489       30237.00    132333.00
  288.25        2969.75           1492       28308.00    123859.10
  288.28        2970.00           1495       26583.00    116285.10
  288.30        2970.25           1499       24018.00    105029.20
  288.33        2970.50           1502       21877.00     95639.76
  288.36        2970.75           1505       19855.00     86777.06
  288.39        2971.00           1509       17042.00     74455.13
  288.41        2971.25           1512       15069.00     65818.16
  288.44        2971.50           1515       13024.00     56870.71
  288.47        2971.75           1519       10338.00     45126.00
  288.50        2972.00           1522        8199.00     35779.01
  288.52        2972.25           1525        6466.00     28210.00
  288.55        2972.50           1529        4345.00     18951.05
  288.58        2972.75           1532        2368.00     10325.34
  288.61        2973.00           1536         794.00      3461.13
  288.64        2973.25           1539         277.00      1207.11
  288.66        2973.50           1542         174.00       758.08
  288.69        2973.75           1546         134.00       583.71
  288.72        2974.00           1549         138.00       601.14
  288.75        2974.25           1552         126.00       548.83
  288.78        2974.50           1556         117.00       509.60
  288.81        2974.75           1559         118.00       513.96
  288.84        2975.00           1562         105.00       457.29
  288.86        2975.25           1566         109.00       474.72
  288.89        2975.50           1569         113.00       492.16
  288.92        2975.75           1572         111.00       483.44
  288.95        2976.00           1576         110.00       479.08
  288.97        2976.25           1579         100.00       435.49
  289.00        2976.50           1582         110.00       479.08
  289.03        2976.75           1586         117.00       509.60
  289.06        2977.00           1589         111.00       483.44
  289.09        2977.25           1592         120.00       522.68
  289.11        2977.50           1596         100.00       435.49
  289.14        2977.75           1599         104.00       452.93
  289.17        2978.00           1602         114.00       496.52
  289.20        2978.25           1606         108.00       470.36
  289.22        2978.50           1609         109.00       474.72
  289.25        2978.75           1612          98.00       426.77
  289.28        2979.00           1616         112.00       487.80
  289.31        2979.25           1619         107.00       466.00
  289.34        2979.50           1623         119.00       518.32
  289.37        2979.75           1626         105.00       457.29
  289.39        2980.00           1629         113.00       492.16
  289.42        2980.25           1633         107.00       466.00
  289.46        2980.50           1636         106.00       461.65
  289.49        2980.75           1639         113.00       492.16
  289.52        2981.00           1643         105.00       457.29
  289.54        2981.25           1646         106.00       461.65
  289.58        2981.50           1649         102.00       444.21
  289.61        2981.75           1653         107.00       466.00
  289.63        2982.00           1656          95.00       413.69
  289.66        2982.25           1659         103.00       448.57
  289.69        2982.50           1663          92.00       400.62
  289.72        2982.75           1666         103.00       448.57
  289.74        2983.00           1669          97.00       422.41
  289.77        2983.25           1673         105.00       457.29
  289.80        2983.50           1676         107.00       466.00
  289.83        2983.75           1679          93.00       404.97
  289.85        2984.00           1683         106.00       461.65
HS scan finished at 04:50:09
end
