************************************************************
  HS Scan of (1) Internal mercury lamp
************************************************************
Integration time is 0.2294 seconds per sample
dh130317DelftKZ 51.997-4.386 2.321352pr1000
************************************************************
Dead Time -------------------------  3E-08 
Number of Cycles Used -------------  4 
Starting Wavelength (Angstroms) ---  2950 
Final Wavelength (Angstoms) -------  2984 
Wavelength Increment (Angstroms) --  .25 
Filter Wheel #1 Position ---------- (1) Ground quartz diffuser (ND=2.32)
Filter Wheel #2 Position ---------- (1) Neutral Density 0.494



************************************************************
HS scan start time = 04:40:26
Dark Count =  0 


Time (GMT)  Wavelength (Ang)  Step Number  Raw Counts  Counts/Second

  280.88        2950.00           1229         135.00       588.50
  280.98        2950.25           1232         129.00       562.35
  281.01        2950.50           1236         135.00       588.50
  281.04        2950.75           1239         122.00       531.83
  281.06        2951.00           1242         135.00       588.50
  281.09        2951.25           1246         130.00       566.71
  281.12        2951.50           1249         129.00       562.35
  281.15        2951.75           1252         139.00       605.94
  281.18        2952.00           1255         125.00       544.91
  281.20        2952.25           1259         121.00       527.47
  281.23        2952.50           1262         121.00       527.47
  281.26        2952.75           1265         119.00       518.75
  281.29        2953.00           1269         129.00       562.35
  281.31        2953.25           1272         125.00       544.91
  281.34        2953.50           1275         118.00       514.39
  281.37        2953.75           1279         133.00       579.78
  281.40        2954.00           1282         117.00       510.03
  281.42        2954.25           1285         122.00       531.83
  281.45        2954.50           1289         127.00       553.63
  281.48        2954.75           1292         125.00       544.91
  281.51        2955.00           1295         127.00       553.63
  281.54        2955.25           1299         126.00       549.27
  281.56        2955.50           1302         123.00       536.19
  281.60        2955.75           1305         128.00       557.99
  281.63        2956.00           1309         117.00       510.03
  281.66        2956.25           1312         119.00       518.75
  281.68        2956.50           1315         134.00       584.14
  281.71        2956.75           1319         135.00       588.50
  281.74        2957.00           1322         124.00       540.55
  281.77        2957.25           1325         116.00       505.67
  281.79        2957.50           1329         122.00       531.83
  281.83        2957.75           1332         128.00       557.99
  281.86        2958.00           1335         129.00       562.35
  281.88        2958.25           1339         128.00       557.99
  281.92        2958.50           1342         123.00       536.19
  281.94        2958.75           1345         126.00       549.27
  281.98        2959.00           1349         118.00       514.39
  282.01        2959.25           1352         108.00       470.80
  282.04        2959.50           1355         124.00       540.55
  282.07        2959.75           1359         130.00       566.71
  282.09        2960.00           1362         117.00       510.03
  282.12        2960.25           1365         128.00       557.99
  282.15        2960.50           1369         126.00       549.27
  282.18        2960.75           1372         132.00       575.42
  282.21        2961.00           1375         134.00       584.14
  282.23        2961.25           1379         169.00       736.72
  282.26        2961.50           1382         224.00       976.49
  282.29        2961.75           1385         752.00      3278.44
  282.32        2962.00           1389        2410.00     10508.98
  282.34        2962.25           1392        4250.00     18536.90
  282.37        2962.50           1395        5969.00     26040.39
  282.40        2962.75           1399        8081.00     35263.97
  282.43        2963.00           1402       10126.00     44199.81
  282.46        2963.25           1405       12205.00     53289.14
  282.49        2963.50           1409       15351.00     67052.79
  282.52        2963.75           1412       17482.00     76382.33
  282.55        2964.00           1415       19345.00     84542.84
  282.58        2964.25           1419       22075.00     96508.31
  282.61        2964.50           1422       24242.00    106012.30
  282.63        2964.75           1425       26711.00    116847.40
  282.66        2965.00           1429       29529.00    129222.70
  282.69        2965.25           1432       31414.00    137505.90
  282.72        2965.50           1435       33229.00    145485.40
  282.74        2965.75           1439       36327.00    159114.30
  282.77        2966.00           1442       38454.00    168478.00
  282.80        2966.25           1445       40235.00    176322.60
  282.83        2966.50           1449       42608.00    186780.40
  282.86        2966.75           1452       43466.00    190563.20
  282.89        2967.00           1455       44079.00    193266.40
  282.92        2967.25           1459       43967.00    192772.50
  282.94        2967.50           1462       44102.00    193367.80
  282.97        2967.75           1465       43890.00    192432.90
  283.00        2968.00           1469       42802.00    187635.60
  283.03        2968.25           1472       41416.00    181526.40
  283.06        2968.50           1475       39738.00    174133.10
  283.08        2968.75           1479       37466.00    164127.90
  283.11        2969.00           1482       34955.00    153077.10
  283.14        2969.25           1485       33094.00    144891.80
  283.17        2969.50           1489       30519.00    133572.50
  283.20        2969.75           1492       28454.00    124500.80
  283.22        2970.00           1495       26686.00    116737.70
  283.25        2970.25           1499       24225.00    105937.70
  283.28        2970.50           1502       22038.00     96346.08
  283.31        2970.75           1505       20170.00     88157.87
  283.33        2971.00           1509       17797.00     77761.85
  283.36        2971.25           1512       15769.00     68882.40
  283.39        2971.50           1515       13852.00     60493.29
  283.42        2971.75           1519       10906.00     47609.37
  283.45        2972.00           1522        8696.00     37950.77
  283.47        2972.25           1525        6588.00     28743.17
  283.50        2972.50           1529        3914.00     17070.64
  283.53        2972.75           1532        2159.00      9414.17
  283.56        2973.00           1536         721.00      3143.28
  283.58        2973.25           1539         287.00      1251.14
  283.61        2973.50           1542         174.00       758.52
  283.64        2973.75           1546         147.00       640.81
  283.67        2974.00           1549         133.00       579.78
  283.70        2974.25           1552         124.00       540.55
  283.72        2974.50           1556         130.00       566.71
  283.75        2974.75           1559         115.00       501.32
  283.78        2975.00           1562         113.00       492.60
  283.81        2975.25           1566         108.00       470.80
  283.84        2975.50           1569         103.00       449.00
  283.86        2975.75           1572         115.00       501.32
  283.89        2976.00           1576         108.00       470.80
  283.92        2976.25           1579         106.00       462.08
  283.95        2976.50           1582         104.00       453.36
  283.97        2976.75           1586         111.00       483.88
  284.00        2977.00           1589         114.00       496.96
  284.03        2977.25           1592         103.00       449.00
  284.06        2977.50           1596         108.00       470.80
  284.08        2977.75           1599         105.00       457.72
  284.11        2978.00           1602         108.00       470.80
  284.14        2978.25           1606         108.00       470.80
  284.17        2978.50           1609          98.00       427.21
  284.19        2978.75           1612         118.00       514.39
  284.22        2979.00           1616         109.00       475.16
  284.25        2979.25           1619         110.00       479.52
  284.28        2979.50           1623         103.00       449.00
  284.31        2979.75           1626         106.00       462.08
  284.33        2980.00           1629         106.00       462.08
  284.36        2980.25           1633         109.00       475.16
  284.39        2980.50           1636         114.00       496.96
  284.42        2980.75           1639         106.00       462.08
  284.44        2981.00           1643         105.00       457.72
  284.47        2981.25           1646         106.00       462.08
  284.50        2981.50           1649          99.00       431.57
  284.53        2981.75           1653         101.00       440.28
  284.56        2982.00           1656          99.00       431.57
  284.58        2982.25           1659         100.00       435.93
  284.61        2982.50           1663         105.00       457.72
  284.64        2982.75           1666         102.00       444.64
  284.67        2983.00           1669         105.00       457.72
  284.69        2983.25           1673         102.00       444.64
  284.72        2983.50           1676         108.00       470.80
  284.75        2983.75           1679         109.00       475.16
  284.78        2984.00           1683          95.00       414.13
HS scan finished at 04:45:04
end
