************************************************************
  HS Scan of (1) Internal mercury lamp
************************************************************
Integration time is 0.2294 seconds per sample
dh150317DelftKZ 51.997-4.386 2.535944pr1000
************************************************************
Dead Time -------------------------  3E-08 
Number of Cycles Used -------------  4 
Starting Wavelength (Angstroms) ---  2950 
Final Wavelength (Angstoms) -------  2984 
Wavelength Increment (Angstroms) --  .25 
Filter Wheel #1 Position ---------- (1) Ground quartz diffuser (ND=2.32)
Filter Wheel #2 Position ---------- (1) Neutral Density 0.494



************************************************************
HS scan start time = 04:35:19
Dark Count =  .1 


Time (GMT)  Wavelength (Ang)  Step Number  Raw Counts  Counts/Second

  275.77        2950.00           1229         127.00       553.19
  275.87        2950.25           1232         134.00       583.71
  275.89        2950.50           1236         135.00       588.07
  275.92        2950.75           1239         131.00       570.63
  275.95        2951.00           1242         136.00       592.43
  275.98        2951.25           1246         140.00       609.86
  276.00        2951.50           1249         131.00       570.63
  276.03        2951.75           1252         129.00       561.91
  276.06        2952.00           1255         133.00       579.35
  276.09        2952.25           1259         129.00       561.91
  276.11        2952.50           1262         132.00       574.99
  276.14        2952.75           1265         131.00       570.63
  276.17        2953.00           1269         134.00       583.71
  276.20        2953.25           1272         120.00       522.68
  276.23        2953.50           1275         143.00       622.94
  276.25        2953.75           1279         125.00       544.47
  276.28        2954.00           1282         127.00       553.19
  276.31        2954.25           1285         126.00       548.83
  276.34        2954.50           1289         131.00       570.63
  276.36        2954.75           1292         121.00       527.04
  276.39        2955.00           1295         126.00       548.83
  276.42        2955.25           1299         128.00       557.55
  276.45        2955.50           1302         131.00       570.63
  276.47        2955.75           1305         117.00       509.60
  276.50        2956.00           1309         124.00       540.11
  276.53        2956.25           1312         122.00       531.39
  276.56        2956.50           1315         126.00       548.83
  276.59        2956.75           1319         128.00       557.55
  276.62        2957.00           1322         126.00       548.83
  276.64        2957.25           1325         134.00       583.71
  276.67        2957.50           1329         111.00       483.44
  276.70        2957.75           1332         121.00       527.04
  276.73        2958.00           1335         121.00       527.04
  276.75        2958.25           1339         124.00       540.11
  276.79        2958.50           1342         124.00       540.11
  276.82        2958.75           1345         123.00       535.75
  276.85        2959.00           1349         119.00       518.32
  276.88        2959.25           1352         127.00       553.19
  276.90        2959.50           1355         116.00       505.24
  276.93        2959.75           1359         120.00       522.68
  276.96        2960.00           1362         129.00       561.91
  276.99        2960.25           1365         130.00       566.27
  277.01        2960.50           1369         144.00       627.30
  277.04        2960.75           1372         148.00       644.74
  277.07        2961.00           1375         139.00       605.50
  277.10        2961.25           1379         163.00       710.13
  277.13        2961.50           1382         209.00       910.66
  277.15        2961.75           1385         612.00      2667.61
  277.18        2962.00           1389        2370.00     10334.07
  277.21        2962.25           1392        4584.00     19994.12
  277.24        2962.50           1395        6809.00     29707.81
  277.28        2962.75           1399        9777.00     42674.05
  277.30        2963.00           1402       12216.00     53336.80
  277.33        2963.25           1405       14810.00     64684.69
  277.36        2963.50           1409       17868.00     78072.37
  277.39        2963.75           1412       20322.00     88823.56
  277.41        2964.00           1415       22313.00     97551.43
  277.44        2964.25           1419       25677.00    112308.50
  277.47        2964.50           1422       28349.00    124039.20
  277.50        2964.75           1425       31194.00    136538.50
  277.53        2965.00           1429       34247.00    149962.20
  277.55        2965.25           1432       36453.00    159668.40
  277.58        2965.50           1435       38686.00    169499.20
  277.61        2965.75           1439       42028.00    184223.30
  277.64        2966.00           1442       44674.00    195890.20
  277.67        2966.25           1445       47016.00    206223.50
  277.69        2966.50           1449       49271.00    216179.10
  277.72        2966.75           1452       50390.00    221121.50
  277.75        2967.00           1455       50981.00    223732.50
  277.78        2967.25           1459       51501.00    226030.10
  277.80        2967.50           1462       51249.00    224916.60
  277.83        2967.75           1465       51187.00    224642.70
  277.86        2968.00           1469       50253.00    220516.40
  277.89        2968.25           1472       48932.00    214682.00
  277.92        2968.50           1475       46743.00    205018.70
  277.94        2968.75           1479       43532.00    190853.80
  277.97        2969.00           1482       41323.00    181116.10
  278.00        2969.25           1485       38989.00    170833.60
  278.03        2969.50           1489       36390.00    159391.10
  278.05        2969.75           1492       34015.00    148941.70
  278.08        2970.00           1495       31928.00    139764.90
  278.11        2970.25           1499       28598.00    125132.80
  278.14        2970.50           1502       26332.00    115183.30
  278.17        2970.75           1505       24033.00    105095.00
  278.19        2971.00           1509       20901.00     91361.22
  278.22        2971.25           1512       18489.00     80792.37
  278.25        2971.50           1515       16030.00     70024.46
  278.28        2971.75           1519       12863.00     56166.49
  278.30        2972.00           1522       10299.00     44955.54
  278.33        2972.25           1525        8166.00     35634.85
  278.36        2972.50           1529        5304.00     23136.81
  278.39        2972.75           1532        3226.00     14068.27
  278.42        2973.00           1536         990.00      4315.73
  278.44        2973.25           1539         366.00      1595.11
  278.47        2973.50           1542         180.00       784.24
  278.50        2973.75           1546         149.00       649.10
  278.53        2974.00           1549         150.00       653.46
  278.55        2974.25           1552         133.00       579.35
  278.58        2974.50           1556         126.00       548.83
  278.61        2974.75           1559         126.00       548.83
  278.64        2975.00           1562         121.00       527.04
  278.66        2975.25           1566         114.00       496.52
  278.70        2975.50           1569         107.00       466.00
  278.73        2975.75           1572         120.00       522.68
  278.75        2976.00           1576         108.00       470.36
  278.78        2976.25           1579         110.00       479.08
  278.81        2976.50           1582         115.00       500.88
  278.84        2976.75           1586         109.00       474.72
  278.86        2977.00           1589         106.00       461.65
  278.89        2977.25           1592         108.00       470.36
  278.92        2977.50           1596         107.00       466.00
  278.95        2977.75           1599         121.00       527.04
  278.98        2978.00           1602         106.00       461.65
  279.00        2978.25           1606         109.00       474.72
  279.03        2978.50           1609         108.00       470.36
  279.06        2978.75           1612         101.00       439.85
  279.09        2979.00           1616         105.00       457.29
  279.11        2979.25           1619         112.00       487.80
  279.14        2979.50           1623         115.00       500.88
  279.17        2979.75           1626         104.00       452.93
  279.20        2980.00           1629          96.00       418.05
  279.23        2980.25           1633         104.00       452.93
  279.25        2980.50           1636         112.00       487.80
  279.28        2980.75           1639         106.00       461.65
  279.31        2981.00           1643         101.00       439.85
  279.34        2981.25           1646         112.00       487.80
  279.36        2981.50           1649         111.00       483.44
  279.39        2981.75           1653         113.00       492.16
  279.42        2982.00           1656         103.00       448.57
  279.45        2982.25           1659         105.00       457.29
  279.47        2982.50           1663         106.00       461.65
  279.50        2982.75           1666         107.00       466.00
  279.53        2983.00           1669         107.00       466.00
  279.56        2983.25           1673         107.00       466.00
  279.58        2983.50           1676         105.00       457.29
  279.61        2983.75           1679         100.00       435.49
  279.64        2984.00           1683         114.00       496.52
HS scan finished at 04:39:56
end
