************************************************************
  HS Scan of (1) Internal mercury lamp
************************************************************
Integration time is 0.2294 seconds per sample
dh300317DelftKZ 51.997-4.386 2.696889pr1000
************************************************************
Dead Time -------------------------  3E-08 
Number of Cycles Used -------------  4 
Starting Wavelength (Angstroms) ---  2950 
Final Wavelength (Angstoms) -------  2984 
Wavelength Increment (Angstroms) --  .25 
Filter Wheel #1 Position ---------- (1) Ground quartz diffuser (ND=2.32)
Filter Wheel #2 Position ---------- (1) Neutral Density 0.494



************************************************************
HS scan start time = 03:53:46
Dark Count =  0 


Time (GMT)  Wavelength (Ang)  Step Number  Raw Counts  Counts/Second

  234.22        2950.00           1229         125.00       544.91
  234.32        2950.25           1232         123.00       536.19
  234.35        2950.50           1236         130.00       566.71
  234.37        2950.75           1239         133.00       579.78
  234.40        2951.00           1242         134.00       584.14
  234.43        2951.25           1246         131.00       571.06
  234.46        2951.50           1249         130.00       566.71
  234.48        2951.75           1252         128.00       557.99
  234.51        2952.00           1255         130.00       566.71
  234.54        2952.25           1259         128.00       557.99
  234.57        2952.50           1262         117.00       510.03
  234.60        2952.75           1265         119.00       518.75
  234.62        2953.00           1269         132.00       575.42
  234.65        2953.25           1272         120.00       523.11
  234.68        2953.50           1275         120.00       523.11
  234.71        2953.75           1279         128.00       557.99
  234.73        2954.00           1282         136.00       592.86
  234.76        2954.25           1285         129.00       562.35
  234.79        2954.50           1289         121.00       527.47
  234.82        2954.75           1292         123.00       536.19
  234.85        2955.00           1295         122.00       531.83
  234.88        2955.25           1299         125.00       544.91
  234.90        2955.50           1302         132.00       575.42
  234.93        2955.75           1305         133.00       579.78
  234.96        2956.00           1309         114.00       496.96
  234.99        2956.25           1312         121.00       527.47
  235.02        2956.50           1315         120.00       523.11
  235.04        2956.75           1319         119.00       518.75
  235.07        2957.00           1322         122.00       531.83
  235.10        2957.25           1325         132.00       575.42
  235.13        2957.50           1329         129.00       562.35
  235.15        2957.75           1332         131.00       571.06
  235.18        2958.00           1335         109.00       475.16
  235.21        2958.25           1339         120.00       523.11
  235.24        2958.50           1342         125.00       544.91
  235.27        2958.75           1345         134.00       584.14
  235.29        2959.00           1349         117.00       510.03
  235.32        2959.25           1352         119.00       518.75
  235.35        2959.50           1355         125.00       544.91
  235.38        2959.75           1359         120.00       523.11
  235.40        2960.00           1362         128.00       557.99
  235.43        2960.25           1365         131.00       571.06
  235.46        2960.50           1369         117.00       510.03
  235.49        2960.75           1372         140.00       610.30
  235.52        2961.00           1375         145.00       632.10
  235.55        2961.25           1379         153.00       666.97
  235.58        2961.50           1382         209.00       911.10
  235.61        2961.75           1385         674.00      2938.36
  235.64        2962.00           1389        2637.00     11499.17
  235.66        2962.25           1392        4818.00     21015.86
  235.69        2962.50           1395        7074.00     30865.53
  235.72        2962.75           1399        9898.00     43203.31
  235.75        2963.00           1402       12784.00     55821.39
  235.77        2963.25           1405       15596.00     68125.15
  235.80        2963.50           1409       18898.00     82584.48
  235.83        2963.75           1412       22128.00     96740.69
  235.86        2964.00           1415       24861.00    108728.10
  235.89        2964.25           1419       28515.00    124768.70
  235.91        2964.50           1422       31642.00    138508.10
  235.94        2964.75           1425       34397.00    150622.40
  235.97        2965.00           1429       38070.00    166787.10
  236.00        2965.25           1432       40408.00    177084.70
  236.03        2965.50           1435       42573.00    186626.10
  236.05        2965.75           1439       46287.00    203006.80
  236.08        2966.00           1442       48525.00    212885.40
  236.11        2966.25           1445       51520.00    226114.50
  236.14        2966.50           1449       54426.00    238960.70
  236.16        2966.75           1452       55621.00    244246.10
  236.19        2967.00           1455       56334.00    247400.50
  236.22        2967.25           1459       56443.00    247882.80
  236.25        2967.50           1462       56510.00    248179.20
  236.27        2967.75           1465       56410.00    247736.70
  236.30        2968.00           1469       55388.00    243215.40
  236.33        2968.25           1472       54330.00    238536.10
  236.36        2968.50           1475       52321.00    229654.40
  236.39        2968.75           1479       49003.00    214996.00
  236.42        2969.00           1482       46530.00    204079.10
  236.45        2969.25           1485       43596.00    191136.40
  236.47        2969.50           1489       39569.00    173388.70
  236.50        2969.75           1492       36939.00    161808.00
  236.53        2970.00           1495       35099.00    153710.70
  236.56        2970.25           1499       31394.00    137418.00
  236.59        2970.50           1502       28834.00    126169.80
  236.61        2970.75           1505       26129.00    114292.70
  236.64        2971.00           1509       23225.00    101551.30
  236.67        2971.25           1512       20858.00     91173.19
  236.70        2971.50           1515       17980.00     78563.33
  236.72        2971.75           1519       14308.00     62488.44
  236.75        2972.00           1522       11106.00     48483.73
  236.78        2972.25           1525        8314.00     36281.85
  236.81        2972.50           1529        5243.00     22870.96
  236.84        2972.75           1532        2895.00     12624.66
  236.86        2973.00           1536         981.00      4276.92
  236.89        2973.25           1539         352.00      1534.51
  236.92        2973.50           1542         191.00       832.63
  236.95        2973.75           1546         168.00       732.36
  236.97        2974.00           1549         153.00       666.97
  237.00        2974.25           1552         143.00       623.38
  237.03        2974.50           1556         131.00       571.06
  237.06        2974.75           1559         122.00       531.83
  237.08        2975.00           1562         110.00       479.52
  237.11        2975.25           1566         121.00       527.47
  237.14        2975.50           1569         116.00       505.67
  237.17        2975.75           1572         122.00       531.83
  237.20        2976.00           1576         111.00       483.88
  237.22        2976.25           1579         117.00       510.03
  237.25        2976.50           1582         117.00       510.03
  237.28        2976.75           1586         108.00       470.80
  237.31        2977.00           1589         103.00       449.00
  237.33        2977.25           1592         106.00       462.08
  237.36        2977.50           1596         112.00       488.24
  237.39        2977.75           1599         106.00       462.08
  237.42        2978.00           1602          92.00       401.05
  237.44        2978.25           1606         115.00       501.32
  237.47        2978.50           1609         107.00       466.44
  237.50        2978.75           1612         117.00       510.03
  237.53        2979.00           1616         102.00       444.64
  237.56        2979.25           1619         108.00       470.80
  237.58        2979.50           1623         104.00       453.36
  237.61        2979.75           1626         108.00       470.80
  237.64        2980.00           1629         100.00       435.93
  237.67        2980.25           1633         125.00       544.91
  237.69        2980.50           1636         119.00       518.75
  237.72        2980.75           1639          99.00       431.57
  237.76        2981.00           1643         104.00       453.36
  237.78        2981.25           1646         103.00       449.00
  237.81        2981.50           1649          95.00       414.13
  237.84        2981.75           1653         108.00       470.80
  237.87        2982.00           1656          97.00       422.85
  237.89        2982.25           1659          97.00       422.85
  237.92        2982.50           1663          97.00       422.85
  237.95        2982.75           1666         111.00       483.88
  237.98        2983.00           1669         108.00       470.80
  238.01        2983.25           1673         111.00       483.88
  238.04        2983.50           1676         104.00       453.36
  238.07        2983.75           1679         111.00       483.88
  238.10        2984.00           1683         102.00       444.64
HS scan finished at 03:58:23
end
