************************************************************
  HS Scan of (1) Internal mercury lamp
************************************************************
Integration time is 0.2294 seconds per sample
dh290318Delft 51.9969-4.3863 3.287017pr1000
************************************************************
Dead Time -------------------------  2.7E-08 
Number of Cycles Used -------------  4 
Starting Wavelength (Angstroms) ---  2950 
Final Wavelength (Angstoms) -------  2984 
Wavelength Increment (Angstroms) --  .25 
Filter Wheel #1 Position ---------- (1) Ground quartz diffuser (ND=2.32)
Filter Wheel #2 Position ---------- (1) Neutral Density 0.494



************************************************************
HS scan start time = 05:58:27
Dark Count =  .2 


Time (GMT)  Wavelength (Ang)  Step Number  Raw Counts  Counts/Second

  358.90        2950.00           1229         114.00       496.08
  359.00        2950.25           1232         102.00       443.77
  359.03        2950.50           1236         102.00       443.77
  359.06        2950.75           1239         103.00       448.13
  359.09        2951.00           1242         110.00       478.65
  359.12        2951.25           1246          93.00       404.54
  359.15        2951.50           1249          94.00       408.90
  359.18        2951.75           1252          98.00       426.33
  359.21        2952.00           1256          99.00       430.69
  359.24        2952.25           1259          96.00       417.62
  359.27        2952.50           1262          98.00       426.33
  359.30        2952.75           1266          97.00       421.98
  359.33        2953.00           1269         101.00       439.41
  359.36        2953.25           1272         101.00       439.41
  359.39        2953.50           1276          98.00       426.33
  359.42        2953.75           1279         111.00       483.01
  359.45        2954.00           1282          97.00       421.98
  359.47        2954.25           1286         104.00       452.49
  359.50        2954.50           1289          97.00       421.98
  359.53        2954.75           1292         105.00       456.85
  359.56        2955.00           1296         102.00       443.77
  359.59        2955.25           1299         105.00       456.85
  359.62        2955.50           1302         106.00       461.21
  359.65        2955.75           1306          99.00       430.69
  359.68        2956.00           1309          97.00       421.98
  359.71        2956.25           1312         103.00       448.13
  359.74        2956.50           1316         100.00       435.05
  359.77        2956.75           1319         103.00       448.13
  359.80        2957.00           1322          97.00       421.98
  359.83        2957.25           1326         106.00       461.21
  359.86        2957.50           1329          96.00       417.62
  359.89        2957.75           1332         105.00       456.85
  359.92        2958.00           1336         103.00       448.13
  359.95        2958.25           1339          99.00       430.69
  359.98        2958.50           1342         106.00       461.21
  360.01        2958.75           1345          98.00       426.33
  360.04        2959.00           1349         102.00       443.77
  360.07        2959.25           1352         105.00       456.85
  360.10        2959.50           1355         100.00       435.05
  360.13        2959.75           1359          96.00       417.62
  360.16        2960.00           1362         107.00       465.57
  360.18        2960.25           1365         100.00       435.05
  360.21        2960.50           1369         103.00       448.13
  360.24        2960.75           1372         103.00       448.13
  360.27        2961.00           1375         110.00       478.65
  360.30        2961.25           1379         141.00       613.79
  360.33        2961.50           1382         180.00       783.80
  360.36        2961.75           1385         612.00      2667.15
  360.39        2962.00           1389        2227.00      9709.61
  360.42        2962.25           1392        4304.00     18770.63
  360.45        2962.50           1395        7021.00     30630.38
  360.48        2962.75           1399       11615.00     50700.57
  360.51        2963.00           1402       14757.00     64439.83
  360.54        2963.25           1405       17691.00     77278.78
  360.57        2963.50           1409       22014.00     96212.12
  360.60        2963.75           1412       25360.00    110879.90
  360.63        2964.00           1415       28895.00    126388.70
  360.66        2964.25           1419       33149.00    145069.30
  360.69        2964.50           1422       36406.00    159384.50
  360.72        2964.75           1425       38812.00    169966.60
  360.75        2965.00           1429       43810.00    191968.00
  360.78        2965.25           1432       46917.00    205658.40
  360.81        2965.50           1435       49777.00    218269.50
  360.84        2965.75           1439       54336.00    238390.00
  360.87        2966.00           1442       57846.00    253895.90
  360.90        2966.25           1445       60547.00    265836.80
  360.93        2966.50           1449       64318.00    282521.00
  360.96        2966.75           1452       65943.00    289715.10
  360.99        2967.00           1455       66405.00    291761.00
  361.02        2967.25           1459       66974.00    294281.00
  361.05        2967.50           1462       67047.00    294604.40
  361.08        2967.75           1465       67053.00    294630.90
  361.11        2968.00           1469       66148.00    290622.90
  361.14        2968.25           1472       64216.00    282069.50
  361.17        2968.50           1475       61434.00    269759.80
  361.20        2968.75           1479       57769.00    253555.50
  361.23        2969.00           1482       54738.00    240165.20
  361.26        2969.25           1485       51535.00    226025.60
  361.28        2969.50           1489       47696.00    209092.60
  361.31        2969.75           1492       44342.00    194311.50
  361.34        2970.00           1495       41612.00    182289.10
  361.37        2970.25           1499       37840.00    165690.80
  361.40        2970.50           1502       34784.00    152254.10
  361.43        2970.75           1505       31754.00    138941.40
  361.46        2971.00           1509       27496.00    120249.40
  361.49        2971.25           1512       24379.00    106578.30
  361.52        2971.50           1515       21098.00     92198.72
  361.55        2971.75           1519       16930.00     73947.85
  361.58        2972.00           1522       14258.00     62257.14
  361.61        2972.25           1525       11156.00     48694.32
  361.64        2972.50           1529        6997.00     30525.59
  361.67        2972.75           1532        4146.00     18081.19
  361.70        2973.00           1535        2185.00      9526.43
  361.73        2973.25           1539         678.00      2954.90
  361.76        2973.50           1542         240.00      1045.37
  361.79        2973.75           1546         158.00       687.89
  361.82        2974.00           1549         140.00       609.43
  361.85        2974.25           1552         122.00       530.96
  361.88        2974.50           1556         122.00       530.96
  361.91        2974.75           1559         112.00       487.36
  361.94        2975.00           1562         106.00       461.21
  361.97        2975.25           1566          95.00       413.26
  362.00        2975.50           1569          90.00       391.46
  362.03        2975.75           1572         101.00       439.41
  362.06        2976.00           1576          94.00       408.90
  362.09        2976.25           1579          95.00       413.26
  362.12        2976.50           1582          99.00       430.69
  362.14        2976.75           1586         109.00       474.29
  362.17        2977.00           1589          97.00       421.98
  362.20        2977.25           1592          85.00       369.66
  362.23        2977.50           1596          94.00       408.90
  362.26        2977.75           1599          85.00       369.66
  362.29        2978.00           1602          95.00       413.26
  362.32        2978.25           1606          91.00       395.82
  362.35        2978.50           1609          91.00       395.82
  362.38        2978.75           1612          85.00       369.66
  362.41        2979.00           1616          89.00       387.10
  362.44        2979.25           1619         100.00       435.05
  362.47        2979.50           1622          97.00       421.98
  362.50        2979.75           1626          87.00       378.38
  362.53        2980.00           1629          90.00       391.46
  362.56        2980.25           1632          88.00       382.74
  362.59        2980.50           1636          88.00       382.74
  362.62        2980.75           1639          96.00       417.62
  362.65        2981.00           1642          91.00       395.82
  362.68        2981.25           1646          85.00       369.66
  362.71        2981.50           1649          87.00       378.38
  362.74        2981.75           1653          93.00       404.54
  362.77        2982.00           1656          89.00       387.10
  362.80        2982.25           1659          84.00       365.30
  362.82        2982.50           1663          84.00       365.30
  362.85        2982.75           1666          90.00       391.46
  362.88        2983.00           1669          89.00       387.10
  362.91        2983.25           1673          92.00       400.18
  362.94        2983.50           1676          85.00       369.66
  362.97        2983.75           1679          90.00       391.46
  363.00        2984.00           1683          94.00       408.90
HS scan finished at 06:03:19
end
************************************************************
  HS Scan of (1) Internal mercury lamp
************************************************************
Integration time is 0.2294 seconds per sample
dh290318Delft 51.9969-4.3863 3.287017pr1000
************************************************************
Dead Time -------------------------  2.7E-08 
Number of Cycles Used -------------  4 
Starting Wavelength (Angstroms) ---  2950 
Final Wavelength (Angstoms) -------  2984 
Wavelength Increment (Angstroms) --  .25 
Filter Wheel #1 Position ---------- (1) Ground quartz diffuser (ND=2.32)
Filter Wheel #2 Position ---------- (1) Neutral Density 0.494



************************************************************
HS scan start time = 07:45:38
Dark Count =  .1 


Time (GMT)  Wavelength (Ang)  Step Number  Raw Counts  Counts/Second

  466.08        2950.00           1229          96.00       418.05
  466.18        2950.25           1232         102.00       444.21
  466.21        2950.50           1236         104.00       452.93
  466.24        2950.75           1239          94.00       409.33
  466.27        2951.00           1242         104.00       452.93
  466.30        2951.25           1246          93.00       404.97
  466.33        2951.50           1249          95.00       413.69
  466.36        2951.75           1252          89.00       387.54
  466.39        2952.00           1256          97.00       422.41
  466.42        2952.25           1259         102.00       444.21
  466.45        2952.50           1262         102.00       444.21
  466.47        2952.75           1266          95.00       413.69
  466.50        2953.00           1269          95.00       413.69
  466.53        2953.25           1272         109.00       474.72
  466.56        2953.50           1276         101.00       439.85
  466.59        2953.75           1279          99.00       431.13
  466.62        2954.00           1282         103.00       448.57
  466.65        2954.25           1286         103.00       448.57
  466.68        2954.50           1289          99.00       431.13
  466.71        2954.75           1292          99.00       431.13
  466.74        2955.00           1296         101.00       439.85
  466.77        2955.25           1299          95.00       413.69
  466.80        2955.50           1302         100.00       435.49
  466.83        2955.75           1306          98.00       426.77
  466.86        2956.00           1309         109.00       474.72
  466.89        2956.25           1312         100.00       435.49
  466.92        2956.50           1316          93.00       404.97
  466.95        2956.75           1319          99.00       431.13
  466.98        2957.00           1322         105.00       457.29
  467.01        2957.25           1326          96.00       418.05
  467.04        2957.50           1329         104.00       452.93
  467.07        2957.75           1332          97.00       422.41
  467.10        2958.00           1336          94.00       409.33
  467.13        2958.25           1339          99.00       431.13
  467.16        2958.50           1342          99.00       431.13
  467.19        2958.75           1345         105.00       457.29
  467.22        2959.00           1349         104.00       452.93
  467.24        2959.25           1352         103.00       448.57
  467.27        2959.50           1355          93.00       404.97
  467.30        2959.75           1359         103.00       448.57
  467.33        2960.00           1362          97.00       422.41
  467.36        2960.25           1365          90.00       391.90
  467.39        2960.50           1369         109.00       474.72
  467.42        2960.75           1372         118.00       513.96
  467.45        2961.00           1375         114.00       496.52
  467.48        2961.25           1379         127.00       553.19
  467.51        2961.50           1382         196.00       853.99
  467.54        2961.75           1385         839.00      3657.29
  467.57        2962.00           1389        3255.00     14194.19
  467.60        2962.25           1392        5472.00     23868.47
  467.63        2962.50           1395        7969.00     34770.64
  467.66        2962.75           1399       12337.00     53857.25
  467.69        2963.00           1402       15667.00     68421.41
  467.72        2963.25           1405       18822.00     82230.76
  467.75        2963.50           1409       23528.00    102848.00
  467.78        2963.75           1412       26529.00    116007.50
  467.81        2964.00           1415       29476.00    128939.40
  467.84        2964.25           1419       34094.00    149222.10
  467.87        2964.50           1422       37490.00    164151.80
  467.90        2964.75           1425       40338.00    176681.70
  467.93        2965.00           1429       44966.00    197061.00
  467.96        2965.25           1432       48233.00    211460.60
  467.99        2965.50           1435       51449.00    225646.50
  468.02        2965.75           1439       55720.00    244502.90
  468.05        2966.00           1442       58670.00    257538.30
  468.08        2966.25           1445       61989.00    272215.30
  468.11        2966.50           1449       64932.00    285239.30
  468.14        2966.75           1452       66119.00    290495.00
  468.17        2967.00           1455       67000.00    294396.60
  468.20        2967.25           1459       67157.00    295092.00
  468.23        2967.50           1462       67177.00    295180.60
  468.26        2967.75           1465       67285.00    295659.00
  468.29        2968.00           1469       65955.00    289768.70
  468.32        2968.25           1472       63924.00    280777.50
  468.35        2968.50           1475       61260.00    268990.60
  468.38        2968.75           1479       57220.00    251129.90
  468.41        2969.00           1482       54126.00    237463.10
  468.44        2969.25           1485       51412.00    225483.20
  468.47        2969.50           1489       47952.00    210221.70
  468.49        2969.75           1492       45168.00    197951.00
  468.52        2970.00           1495       41810.00    183161.20
  468.55        2970.25           1499       37474.00    164081.50
  468.58        2970.50           1502       34036.00    148967.20
  468.61        2970.75           1505       30439.00    133167.10
  468.64        2971.00           1509       26435.00    115595.20
  468.67        2971.25           1512       23514.00    102786.60
  468.70        2971.50           1515       20342.00     88887.46
  468.73        2971.75           1519       16095.00     70294.15
  468.76        2972.00           1522       13049.00     56970.31
  468.79        2972.25           1525       10879.00     47484.12
  468.82        2972.50           1529        6717.00     29303.47
  468.85        2972.75           1532        3772.00     16449.76
  468.88        2973.00           1535        1507.00      6570.04
  468.91        2973.25           1539         320.00      1394.56
  468.94        2973.50           1542         176.00       766.80
  468.97        2973.75           1546         146.00       636.02
  469.00        2974.00           1549         137.00       596.78
  469.03        2974.25           1552         133.00       579.35
  469.06        2974.50           1556         117.00       509.60
  469.09        2974.75           1559         111.00       483.44
  469.12        2975.00           1562         105.00       457.29
  469.15        2975.25           1566          98.00       426.77
  469.18        2975.50           1569          84.00       365.74
  469.21        2975.75           1572          96.00       418.05
  469.24        2976.00           1576         100.00       435.49
  469.27        2976.25           1579          91.00       396.26
  469.30        2976.50           1582          97.00       422.41
  469.33        2976.75           1586          97.00       422.41
  469.36        2977.00           1589          89.00       387.54
  469.39        2977.25           1592          94.00       409.33
  469.42        2977.50           1596          89.00       387.54
  469.45        2977.75           1599          97.00       422.41
  469.48        2978.00           1602          99.00       431.13
  469.51        2978.25           1606          93.00       404.97
  469.54        2978.50           1609          96.00       418.05
  469.57        2978.75           1612          87.00       378.82
  469.60        2979.00           1616          90.00       391.90
  469.63        2979.25           1619         100.00       435.49
  469.66        2979.50           1622          98.00       426.77
  469.68        2979.75           1626          93.00       404.97
  469.71        2980.00           1629          95.00       413.69
  469.74        2980.25           1632          89.00       387.54
  469.77        2980.50           1636          92.00       400.61
  469.80        2980.75           1639          85.00       370.10
  469.83        2981.00           1642          80.00       348.30
  469.86        2981.25           1646          88.00       383.18
  469.89        2981.50           1649          87.00       378.82
  469.92        2981.75           1653          96.00       418.05
  469.95        2982.00           1656          90.00       391.90
  469.98        2982.25           1659          78.00       339.58
  470.01        2982.50           1663          89.00       387.54
  470.04        2982.75           1666          86.00       374.46
  470.07        2983.00           1669          89.00       387.54
  470.10        2983.25           1673          83.00       361.38
  470.13        2983.50           1676          93.00       404.97
  470.16        2983.75           1679          90.00       391.90
  470.19        2984.00           1683          95.00       413.69
HS scan finished at 07:50:30
end
