************************************************************
  HS Scan of (1) Internal mercury lamp
************************************************************
Integration time is 0.2294 seconds per sample
dh240318Delft 51.9969-4.3863 3.287017pr1000
************************************************************
Dead Time -------------------------  2.7E-08 
Number of Cycles Used -------------  4 
Starting Wavelength (Angstroms) ---  2950 
Final Wavelength (Angstoms) -------  2984 
Wavelength Increment (Angstroms) --  .25 
Filter Wheel #1 Position ---------- (1) Ground quartz diffuser (ND=2.32)
Filter Wheel #2 Position ---------- (1) Neutral Density 0.494



************************************************************
HS scan start time = 00:31:33
Dark Count =  .2 


Time (GMT)  Wavelength (Ang)  Step Number  Raw Counts  Counts/Second

   32.00        2950.00           1229          99.00       430.69
   32.10        2950.25           1232         106.00       461.21
   32.13        2950.50           1236         109.00       474.29
   32.16        2950.75           1239         101.00       439.41
   32.19        2951.00           1242         100.00       435.05
   32.22        2951.25           1246         106.00       461.21
   32.25        2951.50           1249         104.00       452.49
   32.28        2951.75           1252          94.00       408.90
   32.31        2952.00           1256         102.00       443.77
   32.34        2952.25           1259         104.00       452.49
   32.37        2952.50           1262         106.00       461.21
   32.40        2952.75           1266         101.00       439.41
   32.43        2953.00           1269         104.00       452.49
   32.46        2953.25           1272         111.00       483.01
   32.49        2953.50           1276         109.00       474.29
   32.52        2953.75           1279          99.00       430.69
   32.54        2954.00           1282         103.00       448.13
   32.57        2954.25           1286          97.00       421.98
   32.61        2954.50           1289         103.00       448.13
   32.63        2954.75           1292          99.00       430.69
   32.66        2955.00           1296          97.00       421.98
   32.69        2955.25           1299         100.00       435.05
   32.72        2955.50           1302         103.00       448.13
   32.75        2955.75           1306          93.00       404.54
   32.78        2956.00           1309          98.00       426.33
   32.81        2956.25           1312         114.00       496.08
   32.84        2956.50           1316          91.00       395.82
   32.87        2956.75           1319         109.00       474.29
   32.90        2957.00           1322          99.00       430.69
   32.93        2957.25           1326          98.00       426.33
   32.96        2957.50           1329         104.00       452.49
   32.99        2957.75           1332         103.00       448.13
   33.02        2958.00           1336          92.00       400.18
   33.05        2958.25           1339          94.00       408.90
   33.08        2958.50           1342          85.00       369.66
   33.11        2958.75           1345          91.00       395.82
   33.14        2959.00           1349          99.00       430.69
   33.17        2959.25           1352         103.00       448.13
   33.20        2959.50           1355          95.00       413.26
   33.23        2959.75           1359          94.00       408.90
   33.26        2960.00           1362         100.00       435.05
   33.29        2960.25           1365          97.00       421.98
   33.31        2960.50           1369          98.00       426.33
   33.34        2960.75           1372         106.00       461.21
   33.37        2961.00           1375         121.00       526.60
   33.40        2961.25           1379         142.00       618.14
   33.43        2961.50           1382         176.00       766.36
   33.46        2961.75           1385         745.00      3247.02
   33.49        2962.00           1389        2655.00     11576.42
   33.52        2962.25           1392        4746.00     20699.45
   33.55        2962.50           1395        7930.00     34599.88
   33.58        2962.75           1399       12096.00     52803.22
   33.61        2963.00           1402       15103.00     65953.43
   33.64        2963.25           1405       19052.00     83237.43
   33.67        2963.50           1409       23672.00    103478.80
   33.70        2963.75           1412       27028.00    118196.10
   33.73        2964.00           1415       30243.00    132306.20
   33.76        2964.25           1419       34634.00    151594.80
   33.79        2964.50           1422       37913.00    166011.90
   33.82        2964.75           1425       41169.00    180338.90
   33.85        2965.00           1429       44808.00    196364.40
   33.88        2965.25           1432       47934.00    210141.90
   33.91        2965.50           1435       50665.00    222186.80
   33.94        2965.75           1439       55236.00    242364.60
   33.97        2966.00           1442       58237.00    255624.00
   34.00        2966.25           1445       61011.00    267888.80
   34.03        2966.50           1449       65404.00    287328.60
   34.06        2966.75           1452       66951.00    294179.20
   34.09        2967.00           1455       67957.00    298635.40
   34.12        2967.25           1459       68184.00    299641.10
   34.15        2967.50           1462       67956.00    298631.00
   34.18        2967.75           1465       68285.00    300088.60
   34.21        2968.00           1469       67084.00    294768.20
   34.24        2968.25           1472       65493.00    287722.60
   34.27        2968.50           1475       63349.00    278232.30
   34.30        2968.75           1479       58861.00    258382.20
   34.33        2969.00           1482       55651.00    244197.70
   34.36        2969.25           1485       52333.00    229547.30
   34.39        2969.50           1489       48681.00    213435.70
   34.41        2969.75           1492       45448.00    199184.30
   34.44        2970.00           1495       41959.00    183816.80
   34.48        2970.25           1499       37962.00    166227.40
   34.51        2970.50           1502       35604.00    155858.50
   34.53        2970.75           1505       32418.00    141857.90
   34.56        2971.00           1509       27842.00    121767.60
   34.59        2971.25           1512       24315.00    106297.70
   34.62        2971.50           1515       20959.00     91589.78
   34.65        2971.75           1519       16737.00     73103.18
   34.68        2972.00           1522       13710.00     59860.40
   34.71        2972.25           1525       10602.00     46273.12
   34.74        2972.50           1529        6847.00     29870.64
   34.77        2972.75           1532        3738.00     16300.98
   34.80        2973.00           1535        1543.00      6726.59
   34.83        2973.25           1539         436.00      1899.84
   34.86        2973.50           1542         195.00       849.19
   34.89        2973.75           1546         161.00       700.97
   34.92        2974.00           1549         134.00       583.27
   34.95        2974.25           1552         132.00       574.55
   34.98        2974.50           1556         135.00       587.63
   35.01        2974.75           1559         123.00       535.32
   35.04        2975.00           1562         117.00       509.16
   35.07        2975.25           1566         107.00       465.57
   35.10        2975.50           1569         103.00       448.13
   35.13        2975.75           1572          89.00       387.10
   35.16        2976.00           1576         104.00       452.49
   35.19        2976.25           1579         101.00       439.41
   35.22        2976.50           1582          95.00       413.26
   35.25        2976.75           1586          91.00       395.82
   35.27        2977.00           1589          93.00       404.54
   35.30        2977.25           1592          89.00       387.10
   35.33        2977.50           1596         101.00       439.41
   35.36        2977.75           1599          93.00       404.54
   35.39        2978.00           1602          92.00       400.18
   35.42        2978.25           1606          94.00       408.90
   35.45        2978.50           1609          89.00       387.10
   35.48        2978.75           1612          85.00       369.66
   35.51        2979.00           1616          91.00       395.82
   35.54        2979.25           1619          99.00       430.69
   35.57        2979.50           1622          93.00       404.54
   35.60        2979.75           1626          93.00       404.54
   35.63        2980.00           1629          93.00       404.54
   35.66        2980.25           1632          89.00       387.10
   35.69        2980.50           1636          91.00       395.82
   35.72        2980.75           1639          99.00       430.69
   35.75        2981.00           1642          94.00       408.90
   35.78        2981.25           1646          94.00       408.90
   35.81        2981.50           1649          88.00       382.74
   35.84        2981.75           1653          93.00       404.54
   35.87        2982.00           1656          84.00       365.30
   35.90        2982.25           1659          85.00       369.66
   35.93        2982.50           1663          88.00       382.74
   35.96        2982.75           1666          90.00       391.46
   35.99        2983.00           1669          92.00       400.18
   36.01        2983.25           1673          92.00       400.18
   36.04        2983.50           1676          90.00       391.46
   36.07        2983.75           1679          87.00       378.38
   36.10        2984.00           1683          81.00       352.23
HS scan finished at 00:36:25
end
************************************************************
  HS Scan of (1) Internal mercury lamp
************************************************************
Integration time is 0.2294 seconds per sample
dh240318Delft 51.9969-4.3863 3.287017pr1000
************************************************************
Dead Time -------------------------  2.7E-08 
Number of Cycles Used -------------  4 
Starting Wavelength (Angstroms) ---  2950 
Final Wavelength (Angstoms) -------  2984 
Wavelength Increment (Angstroms) --  .25 
Filter Wheel #1 Position ---------- (1) Ground quartz diffuser (ND=2.32)
Filter Wheel #2 Position ---------- (1) Neutral Density 0.494



************************************************************
HS scan start time = 06:10:01
Dark Count =  .3 


Time (GMT)  Wavelength (Ang)  Step Number  Raw Counts  Counts/Second

  370.47        2950.00           1229         102.00       443.34
  370.57        2950.25           1232         107.00       465.13
  370.60        2950.50           1236         109.00       473.85
  370.63        2950.75           1239         112.00       486.93
  370.66        2951.00           1242         103.00       447.70
  370.69        2951.25           1246         100.00       434.62
  370.72        2951.50           1249         105.00       456.41
  370.75        2951.75           1252         102.00       443.34
  370.78        2952.00           1256          90.00       391.02
  370.81        2952.25           1259          98.00       425.90
  370.84        2952.50           1262         106.00       460.77
  370.87        2952.75           1266         104.00       452.05
  370.90        2953.00           1269         104.00       452.05
  370.93        2953.25           1272          99.00       430.26
  370.96        2953.50           1276         102.00       443.34
  370.99        2953.75           1279          96.00       417.18
  371.02        2954.00           1282         100.00       434.62
  371.05        2954.25           1286         101.00       438.98
  371.08        2954.50           1289          98.00       425.90
  371.11        2954.75           1292         102.00       443.34
  371.14        2955.00           1296          99.00       430.26
  371.17        2955.25           1299         110.00       478.21
  371.20        2955.50           1302         102.00       443.34
  371.23        2955.75           1306         111.00       482.57
  371.26        2956.00           1309          99.00       430.26
  371.29        2956.25           1312          99.00       430.26
  371.32        2956.50           1316          94.00       408.46
  371.34        2956.75           1319          96.00       417.18
  371.37        2957.00           1322         101.00       438.98
  371.40        2957.25           1326         103.00       447.70
  371.43        2957.50           1329          99.00       430.26
  371.46        2957.75           1332         106.00       460.77
  371.49        2958.00           1336         102.00       443.34
  371.52        2958.25           1339          98.00       425.90
  371.55        2958.50           1342         102.00       443.34
  371.58        2958.75           1345         105.00       456.41
  371.61        2959.00           1349          99.00       430.26
  371.64        2959.25           1352          95.00       412.82
  371.67        2959.50           1355         101.00       438.98
  371.70        2959.75           1359          99.00       430.26
  371.73        2960.00           1362          96.00       417.18
  371.76        2960.25           1365         105.00       456.41
  371.79        2960.50           1369         111.00       482.57
  371.82        2960.75           1372         112.00       486.93
  371.85        2961.00           1375         114.00       495.65
  371.88        2961.25           1379         133.00       578.47
  371.91        2961.50           1382         152.00       661.30
  371.94        2961.75           1385         536.00      2335.37
  371.97        2962.00           1389        2503.00     10912.98
  371.99        2962.25           1392        5033.00     21951.54
  372.02        2962.50           1395        8059.00     35162.84
  372.05        2962.75           1399       12502.00     54577.76
  372.08        2963.00           1402       15686.00     68503.66
  372.11        2963.25           1405       19373.00     84642.65
  372.14        2963.50           1409       24066.00    105205.60
  372.17        2963.75           1412       26876.00    117528.90
  372.20        2964.00           1415       29844.00    130554.00
  372.23        2964.25           1419       33853.00    148162.20
  372.26        2964.50           1422       37156.00    162682.10
  372.29        2964.75           1425       40465.00    177239.80
  372.32        2965.00           1429       44931.00    196905.90
  372.35        2965.25           1432       47818.00    209630.00
  372.38        2965.50           1435       50915.00    223289.40
  372.41        2965.75           1439       55074.00    241648.70
  372.44        2966.00           1442       58246.00    255663.30
  372.47        2966.25           1445       61355.00    269409.90
  372.50        2966.50           1449       64915.00    285163.20
  372.53        2966.75           1452       66670.00    292934.20
  372.56        2967.00           1455       67909.00    298422.30
  372.59        2967.25           1459       67877.00    298280.60
  372.62        2967.50           1462       68055.00    299069.20
  372.65        2967.75           1465       68089.00    299219.80
  372.68        2968.00           1469       66606.00    292650.80
  372.71        2968.25           1472       64643.00    283959.10
  372.74        2968.50           1475       62303.00    273603.60
  372.77        2968.75           1479       58277.00    255800.30
  372.80        2969.00           1482       55248.00    242417.20
  372.83        2969.25           1485       52280.00    229313.00
  372.86        2969.50           1489       48864.00    214242.30
  372.89        2969.75           1492       46092.00    202021.80
  372.92        2970.00           1495       42791.00    187479.70
  372.95        2970.25           1499       38426.00    168268.00
  372.97        2970.50           1502       34891.00    152723.90
  373.00        2970.75           1505       31529.00    137952.70
  373.03        2971.00           1509       27572.00    120582.50
  373.06        2971.25           1512       24430.00    106801.40
  373.09        2971.50           1515       21330.00     93214.69
  373.12        2971.75           1519       16849.00     73592.90
  373.16        2972.00           1522       13740.00     59991.17
  373.18        2972.25           1525       11003.00     48025.18
  373.21        2972.50           1529        7296.00     31830.75
  373.24        2972.75           1532        4705.00     20520.09
  373.27        2973.00           1535        2107.00      9185.80
  373.30        2973.25           1539         455.00      1982.23
  373.33        2973.50           1542         208.00       905.43
  373.36        2973.75           1546         153.00       665.66
  373.39        2974.00           1549         140.00       608.99
  373.42        2974.25           1552         128.00       556.68
  373.45        2974.50           1556         126.00       547.96
  373.48        2974.75           1559         120.00       521.80
  373.51        2975.00           1562         113.00       491.29
  373.54        2975.25           1566         102.00       443.34
  373.57        2975.50           1569          94.00       408.46
  373.60        2975.75           1572          96.00       417.18
  373.63        2976.00           1576          98.00       425.90
  373.66        2976.25           1579          95.00       412.82
  373.69        2976.50           1582         108.00       469.49
  373.72        2976.75           1586          97.00       421.54
  373.75        2977.00           1589          99.00       430.26
  373.78        2977.25           1592          91.00       395.38
  373.80        2977.50           1596          90.00       391.02
  373.83        2977.75           1599          97.00       421.54
  373.86        2978.00           1602          86.00       373.59
  373.89        2978.25           1606          97.00       421.54
  373.92        2978.50           1609          90.00       391.02
  373.95        2978.75           1612          94.00       408.46
  373.98        2979.00           1616         101.00       438.98
  374.01        2979.25           1619          96.00       417.18
  374.04        2979.50           1622          98.00       425.90
  374.07        2979.75           1626          99.00       430.26
  374.10        2980.00           1629          84.00       364.87
  374.13        2980.25           1632          89.00       386.66
  374.16        2980.50           1636          98.00       425.90
  374.19        2980.75           1639          99.00       430.26
  374.22        2981.00           1642          94.00       408.46
  374.25        2981.25           1646          92.00       399.74
  374.28        2981.50           1649          84.00       364.87
  374.31        2981.75           1653          90.00       391.02
  374.34        2982.00           1656          92.00       399.74
  374.37        2982.25           1659          95.00       412.82
  374.40        2982.50           1663          88.00       382.31
  374.43        2982.75           1666          80.00       347.43
  374.46        2983.00           1669          97.00       421.54
  374.49        2983.25           1673          88.00       382.31
  374.51        2983.50           1676          93.00       404.10
  374.54        2983.75           1679          84.00       364.87
  374.57        2984.00           1683          82.00       356.15
HS scan finished at 06:14:53
end
************************************************************
  HS Scan of (1) Internal mercury lamp
************************************************************
Integration time is 0.2294 seconds per sample
dh240318Delft 51.9969-4.3863 3.287017pr1000
************************************************************
Dead Time -------------------------  2.7E-08 
Number of Cycles Used -------------  4 
Starting Wavelength (Angstroms) ---  2950 
Final Wavelength (Angstoms) -------  2984 
Wavelength Increment (Angstroms) --  .25 
Filter Wheel #1 Position ---------- (1) Ground quartz diffuser (ND=2.32)
Filter Wheel #2 Position ---------- (1) Neutral Density 0.494



************************************************************
HS scan start time = 07:57:13
Dark Count =  .3 


Time (GMT)  Wavelength (Ang)  Step Number  Raw Counts  Counts/Second

  477.67        2950.00           1229         106.00       460.77
  477.77        2950.25           1232          98.00       425.90
  477.80        2950.50           1236         106.00       460.77
  477.83        2950.75           1239         104.00       452.05
  477.86        2951.00           1242         106.00       460.77
  477.89        2951.25           1246          96.00       417.18
  477.91        2951.50           1249         110.00       478.21
  477.95        2951.75           1252          97.00       421.54
  477.97        2952.00           1256         101.00       438.98
  478.00        2952.25           1259         102.00       443.34
  478.03        2952.50           1262         104.00       452.05
  478.06        2952.75           1266          97.00       421.54
  478.09        2953.00           1269         101.00       438.98
  478.12        2953.25           1272          92.00       399.74
  478.15        2953.50           1276         110.00       478.21
  478.18        2953.75           1279          90.00       391.02
  478.21        2954.00           1282         110.00       478.21
  478.24        2954.25           1286         108.00       469.49
  478.27        2954.50           1289          97.00       421.54
  478.30        2954.75           1292         102.00       443.34
  478.33        2955.00           1296         109.00       473.85
  478.36        2955.25           1299         103.00       447.70
  478.39        2955.50           1302         105.00       456.41
  478.42        2955.75           1306         108.00       469.49
  478.45        2956.00           1309         107.00       465.13
  478.48        2956.25           1312         101.00       438.98
  478.51        2956.50           1316         101.00       438.98
  478.54        2956.75           1319         101.00       438.98
  478.57        2957.00           1322          96.00       417.18
  478.60        2957.25           1326         103.00       447.70
  478.62        2957.50           1329          96.00       417.18
  478.66        2957.75           1332         103.00       447.70
  478.69        2958.00           1336          93.00       404.10
  478.71        2958.25           1339          95.00       412.82
  478.74        2958.50           1342          96.00       417.18
  478.78        2958.75           1345         102.00       443.34
  478.80        2959.00           1349          90.00       391.02
  478.83        2959.25           1352          92.00       399.74
  478.86        2959.50           1355          92.00       399.74
  478.89        2959.75           1359         100.00       434.62
  478.92        2960.00           1362          94.00       408.46
  478.95        2960.25           1365         109.00       473.85
  478.98        2960.50           1369          97.00       421.54
  479.01        2960.75           1372         118.00       513.08
  479.04        2961.00           1375         120.00       521.80
  479.07        2961.25           1379         140.00       608.99
  479.10        2961.50           1382         175.00       761.57
  479.13        2961.75           1385         545.00      2374.61
  479.16        2962.00           1389        2633.00     11480.02
  479.19        2962.25           1392        5161.00     22510.19
  479.22        2962.50           1395        8388.00     36599.80
  479.25        2962.75           1399       12602.00     55014.97
  479.28        2963.00           1402       15075.00     65830.50
  479.31        2963.25           1405       18222.00     79602.90
  479.34        2963.50           1409       22741.00     99397.61
  479.37        2963.75           1412       26084.00    114054.70
  479.40        2964.00           1415       29773.00    130242.30
  479.42        2964.25           1419       33700.00    147489.80
  479.46        2964.50           1422       36622.00    160333.80
  479.49        2964.75           1425       39472.00    172869.90
  479.51        2965.00           1429       44006.00    192830.90
  479.55        2965.25           1432       47731.00    209246.40
  479.58        2965.50           1435       50822.00    222879.10
  479.60        2965.75           1439       54315.00    238296.80
  479.63        2966.00           1442       57433.00    252070.30
  479.66        2966.25           1445       60798.00    266946.40
  479.69        2966.50           1449       64795.00    284632.00
  479.72        2966.75           1452       66436.00    291897.90
  479.75        2967.00           1455       67377.00    296065.60
  479.78        2967.25           1459       67495.00    296588.40
  479.81        2967.50           1462       67352.00    295954.90
  479.84        2967.75           1465       67308.00    295760.00
  479.87        2968.00           1469       66198.00    290843.90
  479.90        2968.25           1472       63740.00    279962.20
  479.93        2968.50           1475       61651.00    270719.20
  479.96        2968.75           1479       58577.00    257126.40
  479.99        2969.00           1482       55332.00    242788.20
  480.02        2969.25           1485       52327.00    229520.40
  480.05        2969.50           1489       48020.00    210520.60
  480.08        2969.75           1492       44752.00    196117.30
  480.11        2970.00           1495       41978.00    183900.00
  480.14        2970.25           1499       37716.00    165144.90
  480.17        2970.50           1502       34703.00    151897.60
  480.20        2970.75           1505       31142.00    136253.20
  480.23        2971.00           1509       26739.00    116927.90
  480.26        2971.25           1512       24166.00    105644.00
  480.29        2971.50           1515       21339.00     93254.12
  480.32        2971.75           1519       17545.00     76639.25
  480.35        2972.00           1522       14590.00     63708.89
  480.38        2972.25           1525       10967.00     47867.85
  480.41        2972.50           1529        6789.00     29616.97
  480.44        2972.75           1532        3761.00     16400.90
  480.46        2973.00           1535        1664.00      7253.82
  480.49        2973.25           1539         467.00      2034.55
  480.52        2973.50           1542         203.00       883.63
  480.55        2973.75           1546         153.00       665.66
  480.58        2974.00           1549         143.00       622.07
  480.61        2974.25           1552         130.00       565.40
  480.64        2974.50           1556         122.00       530.52
  480.67        2974.75           1559         125.00       543.60
  480.70        2975.00           1562         100.00       434.62
  480.73        2975.25           1566         108.00       469.49
  480.76        2975.50           1569         104.00       452.05
  480.79        2975.75           1572          93.00       404.10
  480.82        2976.00           1576          95.00       412.82
  480.85        2976.25           1579          96.00       417.18
  480.88        2976.50           1582          95.00       412.82
  480.91        2976.75           1586          93.00       404.10
  480.94        2977.00           1589          92.00       399.74
  480.97        2977.25           1592          97.00       421.54
  481.00        2977.50           1596         103.00       447.70
  481.03        2977.75           1599          97.00       421.54
  481.06        2978.00           1602          96.00       417.18
  481.09        2978.25           1606          95.00       412.82
  481.12        2978.50           1609          95.00       412.82
  481.15        2978.75           1612          98.00       425.90
  481.18        2979.00           1616          96.00       417.18
  481.21        2979.25           1619          94.00       408.46
  481.24        2979.50           1622          90.00       391.02
  481.26        2979.75           1626          94.00       408.46
  481.29        2980.00           1629          93.00       404.10
  481.32        2980.25           1632         102.00       443.34
  481.35        2980.50           1636          79.00       343.07
  481.38        2980.75           1639          87.00       377.95
  481.41        2981.00           1642          97.00       421.54
  481.44        2981.25           1646          96.00       417.18
  481.47        2981.50           1649          91.00       395.38
  481.50        2981.75           1653          97.00       421.54
  481.53        2982.00           1656          94.00       408.46
  481.56        2982.25           1659         100.00       434.62
  481.59        2982.50           1663          88.00       382.31
  481.62        2982.75           1666          93.00       404.10
  481.65        2983.00           1669          95.00       412.82
  481.68        2983.25           1673          95.00       412.82
  481.71        2983.50           1676          94.00       408.46
  481.74        2983.75           1679          84.00       364.87
  481.77        2984.00           1683          83.00       360.51
HS scan finished at 08:02:04
end
************************************************************
  HS Scan of (1) Internal mercury lamp
************************************************************
Integration time is 0.2294 seconds per sample
dh240318Delft 51.9969-4.3863 3.287017pr1000
************************************************************
Dead Time -------------------------  2.7E-08 
Number of Cycles Used -------------  4 
Starting Wavelength (Angstroms) ---  2950 
Final Wavelength (Angstoms) -------  2984 
Wavelength Increment (Angstroms) --  .25 
Filter Wheel #1 Position ---------- (1) Ground quartz diffuser (ND=2.32)
Filter Wheel #2 Position ---------- (1) Neutral Density 0.494



************************************************************
HS scan start time = 09:44:24
Dark Count =  .4 


Time (GMT)  Wavelength (Ang)  Step Number  Raw Counts  Counts/Second

  584.85        2950.00           1229          95.00       412.38
  584.95        2950.25           1232         103.00       447.26
  584.98        2950.50           1236         102.00       442.90
  585.01        2950.75           1239         104.00       451.62
  585.04        2951.00           1242         100.00       434.18
  585.07        2951.25           1246         107.00       464.70
  585.10        2951.50           1249         106.00       460.34
  585.13        2951.75           1252          89.00       386.23
  585.16        2952.00           1256         100.00       434.18
  585.19        2952.25           1259         101.00       438.54
  585.22        2952.50           1262          93.00       403.67
  585.25        2952.75           1266          96.00       416.74
  585.28        2953.00           1269         109.00       473.41
  585.31        2953.25           1272          94.00       408.03
  585.34        2953.50           1276          98.00       425.46
  585.36        2953.75           1279          97.00       421.10
  585.39        2954.00           1282          98.00       425.46
  585.42        2954.25           1286         103.00       447.26
  585.45        2954.50           1289          94.00       408.03
  585.48        2954.75           1292          95.00       412.38
  585.51        2955.00           1296          94.00       408.03
  585.54        2955.25           1299          94.00       408.03
  585.57        2955.50           1302         101.00       438.54
  585.60        2955.75           1306          99.00       429.82
  585.63        2956.00           1309          93.00       403.67
  585.66        2956.25           1312         107.00       464.70
  585.69        2956.50           1316         103.00       447.26
  585.72        2956.75           1319         103.00       447.26
  585.75        2957.00           1322          93.00       403.67
  585.78        2957.25           1326          99.00       429.82
  585.81        2957.50           1329         105.00       455.98
  585.84        2957.75           1332          93.00       403.67
  585.87        2958.00           1336         103.00       447.26
  585.90        2958.25           1339          99.00       429.82
  585.93        2958.50           1342         101.00       438.54
  585.96        2958.75           1345          96.00       416.74
  585.99        2959.00           1349         103.00       447.26
  586.02        2959.25           1352          91.00       394.95
  586.04        2959.50           1355         101.00       438.54
  586.07        2959.75           1359          92.00       399.31
  586.10        2960.00           1362         101.00       438.54
  586.13        2960.25           1365         109.00       473.41
  586.16        2960.50           1369         116.00       503.93
  586.19        2960.75           1372         117.00       508.29
  586.22        2961.00           1375         127.00       551.88
  586.25        2961.25           1379         143.00       621.63
  586.28        2961.50           1382         182.00       791.65
  586.31        2961.75           1385         776.00      3381.30
  586.34        2962.00           1389        2922.00     12740.22
  586.37        2962.25           1392        4896.00     21353.20
  586.40        2962.50           1395        7557.00     32970.05
  586.43        2962.75           1399       11588.00     50581.67
  586.46        2963.00           1402       15074.00     65825.69
  586.49        2963.25           1405       19008.00     83043.88
  586.52        2963.50           1409       23146.00    101172.20
  586.55        2963.75           1412       25878.00    113150.70
  586.58        2964.00           1415       29157.00    127537.80
  586.61        2964.25           1419       33640.00    147225.80
  586.64        2964.50           1422       37453.00    163987.80
  586.67        2964.75           1425       40499.00    177389.00
  586.70        2965.00           1429       44171.00    193557.30
  586.73        2965.25           1432       47783.00    209475.20
  586.76        2965.50           1435       50983.00    223589.00
  586.79        2965.75           1439       55350.00    242867.20
  586.82        2966.00           1442       58120.00    255106.00
  586.85        2966.25           1445       61807.00    271408.90
  586.88        2966.50           1449       65682.00    288558.60
  586.91        2966.75           1452       67299.00    295719.70
  586.94        2967.00           1455       67926.00    298497.20
  586.97        2967.25           1459       68035.00    298980.10
  587.00        2967.50           1462       68050.00    299046.50
  587.03        2967.75           1465       67913.00    298439.60
  587.06        2968.00           1469       66956.00    294200.50
  587.09        2968.25           1472       65243.00    286614.90
  587.11        2968.50           1475       62406.00    274058.80
  587.14        2968.75           1479       57856.00    253939.20
  587.17        2969.00           1482       54921.00    240972.50
  587.20        2969.25           1485       52382.00    229762.70
  587.23        2969.50           1489       48462.00    212469.10
  587.26        2969.75           1492       45015.00    197275.60
  587.29        2970.00           1495       41986.00    183934.70
  587.32        2970.25           1499       37631.00    164770.60
  587.35        2970.50           1502       34799.00    152319.10
  587.38        2970.75           1505       31595.00    138242.10
  587.41        2971.00           1509       27875.00    121911.50
  587.44        2971.25           1512       24606.00    107572.70
  587.47        2971.50           1515       21321.00     93174.83
  587.50        2971.75           1519       17184.00     75058.66
  587.53        2972.00           1522       13969.00     60992.25
  587.56        2972.25           1525       10775.00     47028.29
  587.59        2972.50           1529        7055.00     30777.97
  587.62        2972.75           1532        3923.00     17107.29
  587.65        2973.00           1535        1695.00      7388.57
  587.68        2973.25           1539         490.00      2134.39
  587.71        2973.50           1542         226.00       983.46
  587.74        2973.75           1546         160.00       695.74
  587.77        2974.00           1549         149.00       647.79
  587.80        2974.25           1552         129.00       560.60
  587.83        2974.50           1556         113.00       490.85
  587.86        2974.75           1559         117.00       508.29
  587.90        2975.00           1562         101.00       438.54
  587.92        2975.25           1566          95.00       412.38
  587.95        2975.50           1569          95.00       412.38
  587.98        2975.75           1572          97.00       421.10
  588.01        2976.00           1576         100.00       434.18
  588.05        2976.25           1579          89.00       386.23
  588.08        2976.50           1582          93.00       403.67
  588.11        2976.75           1586          95.00       412.38
  588.14        2977.00           1589          86.00       373.15
  588.17        2977.25           1592          94.00       408.03
  588.19        2977.50           1596          96.00       416.74
  588.22        2977.75           1599         100.00       434.18
  588.26        2978.00           1602          90.00       390.59
  588.29        2978.25           1606          85.00       368.79
  588.32        2978.50           1609          93.00       403.67
  588.35        2978.75           1612          92.00       399.31
  588.38        2979.00           1616         101.00       438.54
  588.41        2979.25           1619          99.00       429.82
  588.44        2979.50           1622          89.00       386.23
  588.47        2979.75           1626          89.00       386.23
  588.50        2980.00           1629          91.00       394.95
  588.53        2980.25           1632          93.00       403.67
  588.56        2980.50           1636          97.00       421.10
  588.59        2980.75           1639          95.00       412.38
  588.62        2981.00           1642          92.00       399.31
  588.65        2981.25           1646          96.00       416.74
  588.68        2981.50           1649          82.00       355.71
  588.71        2981.75           1653          94.00       408.03
  588.74        2982.00           1656          90.00       390.59
  588.77        2982.25           1659          82.00       355.71
  588.80        2982.50           1663          93.00       403.67
  588.83        2982.75           1666          93.00       403.67
  588.86        2983.00           1669          93.00       403.67
  588.89        2983.25           1673          89.00       386.23
  588.92        2983.50           1676          93.00       403.67
  588.95        2983.75           1679          99.00       429.82
  588.97        2984.00           1683          91.00       394.95
HS scan finished at 09:49:17
end
************************************************************
  HS Scan of (1) Internal mercury lamp
************************************************************
Integration time is 0.2294 seconds per sample
dh240318Delft 51.9969-4.3863 3.287017pr1000
************************************************************
Dead Time -------------------------  2.7E-08 
Number of Cycles Used -------------  4 
Starting Wavelength (Angstroms) ---  2950 
Final Wavelength (Angstoms) -------  2984 
Wavelength Increment (Angstroms) --  .25 
Filter Wheel #1 Position ---------- (1) Ground quartz diffuser (ND=2.32)
Filter Wheel #2 Position ---------- (1) Neutral Density 0.494



************************************************************
HS scan start time = 11:31:37
Dark Count =  .3 


Time (GMT)  Wavelength (Ang)  Step Number  Raw Counts  Counts/Second

  692.07        2950.00           1229         104.00       452.05
  692.17        2950.25           1232          96.00       417.18
  692.20        2950.50           1236         103.00       447.70
  692.23        2950.75           1239          98.00       425.90
  692.26        2951.00           1242         103.00       447.70
  692.29        2951.25           1246         104.00       452.05
  692.32        2951.50           1249         102.00       443.34
  692.35        2951.75           1252          94.00       408.46
  692.38        2952.00           1256         102.00       443.34
  692.41        2952.25           1259         106.00       460.77
  692.44        2952.50           1262          99.00       430.26
  692.47        2952.75           1266          95.00       412.82
  692.50        2953.00           1269         108.00       469.49
  692.52        2953.25           1272         100.00       434.62
  692.56        2953.50           1276          93.00       404.10
  692.59        2953.75           1279          94.00       408.46
  692.61        2954.00           1282          96.00       417.18
  692.64        2954.25           1286         107.00       465.13
  692.67        2954.50           1289          98.00       425.90
  692.70        2954.75           1292         108.00       469.49
  692.73        2955.00           1296          99.00       430.26
  692.76        2955.25           1299          99.00       430.26
  692.79        2955.50           1302          99.00       430.26
  692.82        2955.75           1306          99.00       430.26
  692.85        2956.00           1309          96.00       417.18
  692.88        2956.25           1312          96.00       417.18
  692.91        2956.50           1316         106.00       460.77
  692.94        2956.75           1319          99.00       430.26
  692.97        2957.00           1322         104.00       452.05
  693.00        2957.25           1326          96.00       417.18
  693.03        2957.50           1329          97.00       421.54
  693.06        2957.75           1332          94.00       408.46
  693.09        2958.00           1336          94.00       408.46
  693.12        2958.25           1339          97.00       421.54
  693.15        2958.50           1342          98.00       425.90
  693.18        2958.75           1345         106.00       460.77
  693.21        2959.00           1349         100.00       434.62
  693.24        2959.25           1352         100.00       434.62
  693.27        2959.50           1355         101.00       438.98
  693.29        2959.75           1359          93.00       404.10
  693.32        2960.00           1362         100.00       434.62
  693.35        2960.25           1365          97.00       421.54
  693.38        2960.50           1369         112.00       486.93
  693.41        2960.75           1372         106.00       460.77
  693.44        2961.00           1375         125.00       543.60
  693.47        2961.25           1379         141.00       613.35
  693.50        2961.50           1382         171.00       744.13
  693.53        2961.75           1385         528.00      2300.49
  693.56        2962.00           1389        2362.00     10297.98
  693.59        2962.25           1392        4842.00     21117.97
  693.62        2962.50           1395        8215.00     35844.18
  693.65        2962.75           1399       11867.00     51801.70
  693.68        2963.00           1402       14759.00     64448.15
  693.71        2963.25           1405       18264.00     79786.78
  693.74        2963.50           1409       22792.00     99621.13
  693.77        2963.75           1412       26434.00    115589.90
  693.80        2964.00           1415       29963.00    131076.40
  693.83        2964.25           1419       33598.00    147041.60
  693.86        2964.50           1422       36613.00    160294.30
  693.89        2964.75           1425       40356.00    176760.10
  693.92        2965.00           1429       44837.00    196491.70
  693.95        2965.25           1432       47778.00    209453.60
  693.98        2965.50           1435       51403.00    225442.70
  694.01        2965.75           1439       55629.00    244100.00
  694.04        2966.00           1442       59162.00    259712.40
  694.07        2966.25           1445       61847.00    271586.20
  694.09        2966.50           1449       65446.00    287514.00
  694.12        2966.75           1452       67343.00    295915.00
  694.16        2967.00           1455       67963.00    298661.60
  694.19        2967.25           1459       68431.00    300735.00
  694.21        2967.50           1462       67962.00    298657.10
  694.24        2967.75           1465       68373.00    300478.10
  694.27        2968.00           1469       66665.00    292912.00
  694.30        2968.25           1472       64686.00    284149.50
  694.33        2968.50           1475       62466.00    274324.70
  694.36        2968.75           1479       58278.00    255804.70
  694.39        2969.00           1482       55645.00    244170.70
  694.42        2969.25           1485       52274.00    229286.50
  694.45        2969.50           1489       48432.00    212337.30
  694.48        2969.75           1492       45675.00    200184.10
  694.51        2970.00           1495       42463.00    186035.40
  694.54        2970.25           1499       38588.00    168980.60
  694.57        2970.50           1502       35253.00    154315.10
  694.60        2970.75           1505       31670.00    138572.00
  694.63        2971.00           1509       27345.00    119586.50
  694.66        2971.25           1512       23847.00    104245.50
  694.69        2971.50           1515       21119.00     92290.28
  694.72        2971.75           1519       17251.00     75352.36
  694.75        2972.00           1522       14153.00     61797.45
  694.78        2972.25           1525       10710.00     46744.67
  694.81        2972.50           1529        6949.00     30315.56
  694.84        2972.75           1532        4669.00     20362.98
  694.87        2973.00           1535        2199.00      9587.05
  694.90        2973.25           1539         567.00      2470.52
  694.93        2973.50           1542         202.00       879.27
  694.96        2973.75           1546         158.00       687.46
  694.99        2974.00           1549         149.00       648.22
  695.02        2974.25           1552         128.00       556.68
  695.04        2974.50           1556         117.00       508.73
  695.07        2974.75           1559         125.00       543.60
  695.10        2975.00           1562         107.00       465.13
  695.13        2975.25           1566         106.00       460.77
  695.16        2975.50           1569          95.00       412.82
  695.19        2975.75           1572         109.00       473.85
  695.22        2976.00           1576         101.00       438.98
  695.25        2976.25           1579          95.00       412.82
  695.28        2976.50           1582          98.00       425.90
  695.31        2976.75           1586          92.00       399.74
  695.34        2977.00           1589          95.00       412.82
  695.37        2977.25           1592          87.00       377.95
  695.40        2977.50           1596          98.00       425.90
  695.43        2977.75           1599          86.00       373.59
  695.46        2978.00           1602          94.00       408.46
  695.49        2978.25           1606          89.00       386.66
  695.52        2978.50           1609          94.00       408.46
  695.55        2978.75           1612          92.00       399.74
  695.58        2979.00           1616          88.00       382.31
  695.61        2979.25           1619          90.00       391.02
  695.64        2979.50           1622          89.00       386.66
  695.67        2979.75           1626          89.00       386.66
  695.70        2980.00           1629          88.00       382.31
  695.72        2980.25           1632          91.00       395.38
  695.76        2980.50           1636          92.00       399.74
  695.78        2980.75           1639          93.00       404.10
  695.81        2981.00           1642          85.00       369.23
  695.84        2981.25           1646          89.00       386.66
  695.87        2981.50           1649          89.00       386.66
  695.90        2981.75           1653          92.00       399.74
  695.93        2982.00           1656          98.00       425.90
  695.96        2982.25           1659          89.00       386.66
  695.99        2982.50           1663          87.00       377.95
  696.02        2982.75           1666          92.00       399.74
  696.05        2983.00           1669          95.00       412.82
  696.08        2983.25           1673          88.00       382.31
  696.11        2983.50           1676          85.00       369.23
  696.14        2983.75           1679          88.00       382.31
  696.17        2984.00           1683          96.00       417.18
HS scan finished at 11:36:29
end
************************************************************
  HS Scan of (1) Internal mercury lamp
************************************************************
Integration time is 0.2294 seconds per sample
dh240318Delft 51.9969-4.3863 3.287017pr1000
************************************************************
Dead Time -------------------------  2.7E-08 
Number of Cycles Used -------------  4 
Starting Wavelength (Angstroms) ---  2950 
Final Wavelength (Angstoms) -------  2984 
Wavelength Increment (Angstroms) --  .25 
Filter Wheel #1 Position ---------- (1) Ground quartz diffuser (ND=2.32)
Filter Wheel #2 Position ---------- (1) Neutral Density 0.494



************************************************************
HS scan start time = 13:18:51
Dark Count =  .5 


Time (GMT)  Wavelength (Ang)  Step Number  Raw Counts  Counts/Second

  799.29        2950.00           1229          95.00       411.95
  799.40        2950.25           1232         102.00       442.46
  799.42        2950.50           1236          97.00       420.67
  799.45        2950.75           1239          99.00       429.39
  799.48        2951.00           1242         103.00       446.82
  799.51        2951.25           1246          94.00       407.59
  799.54        2951.50           1249         105.00       455.54
  799.57        2951.75           1252          96.00       416.31
  799.60        2952.00           1256          98.00       425.03
  799.63        2952.25           1259         109.00       472.98
  799.66        2952.50           1262         106.00       459.90
  799.69        2952.75           1266          97.00       420.67
  799.72        2953.00           1269          99.00       429.39
  799.75        2953.25           1272          92.00       398.87
  799.78        2953.50           1276         106.00       459.90
  799.81        2953.75           1279          99.00       429.39
  799.84        2954.00           1282         102.00       442.46
  799.87        2954.25           1286         100.00       433.75
  799.90        2954.50           1289          96.00       416.31
  799.93        2954.75           1292         104.00       451.18
  799.96        2955.00           1296         103.00       446.82
  799.99        2955.25           1299         102.00       442.46
  800.02        2955.50           1302         104.00       451.18
  800.05        2955.75           1306          90.00       390.15
  800.08        2956.00           1309          99.00       429.39
  800.11        2956.25           1312          90.00       390.15
  800.13        2956.50           1316         105.00       455.54
  800.16        2956.75           1319         102.00       442.46
  800.19        2957.00           1322          97.00       420.67
  800.22        2957.25           1326          98.00       425.03
  800.25        2957.50           1329          97.00       420.67
  800.28        2957.75           1332          99.00       429.39
  800.31        2958.00           1336          98.00       425.03
  800.34        2958.25           1339          91.00       394.51
  800.37        2958.50           1342          93.00       403.23
  800.40        2958.75           1345         103.00       446.82
  800.43        2959.00           1349          96.00       416.31
  800.46        2959.25           1352          96.00       416.31
  800.49        2959.50           1355          96.00       416.31
  800.52        2959.75           1359         101.00       438.10
  800.55        2960.00           1362         100.00       433.75
  800.58        2960.25           1365          96.00       416.31
  800.61        2960.50           1369         101.00       438.10
  800.64        2960.75           1372         113.00       490.42
  800.67        2961.00           1375         111.00       481.70
  800.70        2961.25           1379         136.00       590.68
  800.73        2961.50           1382         177.00       769.41
  800.76        2961.75           1385         775.00      3376.51
  800.79        2962.00           1389        2653.00     11566.38
  800.82        2962.25           1392        4597.00     20047.90
  800.85        2962.50           1395        7614.00     33218.54
  800.88        2962.75           1399       11815.00     51573.51
  800.91        2963.00           1402       15378.00     67155.23
  800.94        2963.25           1405       18582.00     81178.16
  800.97        2963.50           1409       22361.00     97731.40
  801.00        2963.75           1412       25824.00    112913.50
  801.02        2964.00           1415       29729.00    130048.30
  801.05        2964.25           1419       33619.00    147133.10
  801.09        2964.50           1422       37345.00    163512.40
  801.12        2964.75           1425       40887.00    179096.30
  801.14        2965.00           1429       45351.00    198755.60
  801.17        2965.25           1432       48618.00    213156.60
  801.20        2965.50           1435       51660.00    226575.90
  801.23        2965.75           1439       55876.00    245190.20
  801.26        2966.00           1442       59144.00    259631.90
  801.29        2966.25           1445       61437.00    269771.70
  801.32        2966.50           1449       64847.00    284861.30
  801.35        2966.75           1452       67209.00    295320.60
  801.38        2967.00           1455       68088.00    299214.50
  801.41        2967.25           1459       68239.00    299883.50
  801.44        2967.50           1462       68404.00    300614.50
  801.47        2967.75           1465       68284.00    300082.90
  801.50        2968.00           1469       67135.00    294992.80
  801.53        2968.25           1472       65326.00    286981.90
  801.56        2968.50           1475       62604.00    274934.40
  801.59        2968.75           1479       59031.00    259132.40
  801.62        2969.00           1482       56404.00    247522.80
  801.65        2969.25           1485       53597.00    235125.70
  801.68        2969.50           1489       49921.00    218903.40
  801.71        2969.75           1492       46324.00    203043.40
  801.74        2970.00           1495       42858.00    187773.90
  801.77        2970.25           1499       38208.00    167308.10
  801.80        2970.50           1502       34651.00    151668.20
  801.83        2970.75           1505       31721.00    138795.10
  801.86        2971.00           1509       27692.00    121108.10
  801.89        2971.25           1512       24350.00    106449.80
  801.92        2971.50           1515       21072.00     92083.50
  801.95        2971.75           1519       17644.00     77071.72
  801.98        2972.00           1522       14803.00     64639.74
  802.01        2972.25           1525       11488.00     50144.14
  802.04        2972.50           1529        7283.00     31773.10
  802.07        2972.75           1532        3944.00     17198.48
  802.10        2973.00           1535        1615.00      7039.26
  802.13        2973.25           1539         409.00      1780.82
  802.15        2973.50           1542         194.00       843.52
  802.19        2973.75           1546         154.00       669.15
  802.21        2974.00           1549         145.00       629.91
  802.24        2974.25           1552         140.00       608.12
  802.27        2974.50           1556         124.00       538.37
  802.30        2974.75           1559         109.00       472.98
  802.33        2975.00           1562         110.00       477.34
  802.36        2975.25           1566         107.00       464.26
  802.39        2975.50           1569         103.00       446.82
  802.42        2975.75           1572          92.00       398.87
  802.45        2976.00           1576          97.00       420.67
  802.48        2976.25           1579          94.00       407.59
  802.51        2976.50           1582          98.00       425.03
  802.54        2976.75           1586         101.00       438.10
  802.57        2977.00           1589          97.00       420.67
  802.60        2977.25           1592          95.00       411.95
  802.63        2977.50           1596         103.00       446.82
  802.66        2977.75           1599          98.00       425.03
  802.69        2978.00           1602          89.00       385.79
  802.72        2978.25           1606          85.00       368.36
  802.75        2978.50           1609          95.00       411.95
  802.78        2978.75           1612          89.00       385.79
  802.81        2979.00           1616          94.00       407.59
  802.83        2979.25           1619          94.00       407.59
  802.86        2979.50           1622          95.00       411.95
  802.89        2979.75           1626          91.00       394.51
  802.92        2980.00           1629          93.00       403.23
  802.95        2980.25           1632          83.00       359.64
  802.98        2980.50           1636          90.00       390.15
  803.01        2980.75           1639          98.00       425.03
  803.04        2981.00           1642          91.00       394.51
  803.07        2981.25           1646          85.00       368.36
  803.10        2981.50           1649          96.00       416.31
  803.13        2981.75           1653          88.00       381.43
  803.16        2982.00           1656          97.00       420.67
  803.19        2982.25           1659          86.00       372.72
  803.22        2982.50           1663          90.00       390.15
  803.25        2982.75           1666          85.00       368.36
  803.28        2983.00           1669          95.00       411.95
  803.31        2983.25           1673          94.00       407.59
  803.34        2983.50           1676          82.00       355.28
  803.37        2983.75           1679          86.00       372.72
  803.40        2984.00           1683          84.00       364.00
HS scan finished at 13:23:42
end
************************************************************
  HS Scan of (1) Internal mercury lamp
************************************************************
Integration time is 0.2294 seconds per sample
dh240318Delft 51.9969-4.3863 3.340665pr1000
************************************************************
Dead Time -------------------------  2.7E-08 
Number of Cycles Used -------------  4 
Starting Wavelength (Angstroms) ---  2950 
Final Wavelength (Angstoms) -------  2984 
Wavelength Increment (Angstroms) --  .25 
Filter Wheel #1 Position ---------- (1) Ground quartz diffuser (ND=2.32)
Filter Wheel #2 Position ---------- (1) Neutral Density 0.494



************************************************************
HS scan start time = 15:06:02
Dark Count =  .5 


Time (GMT)  Wavelength (Ang)  Step Number  Raw Counts  Counts/Second

  906.49        2950.00           1229          92.00       398.87
  906.59        2950.25           1232          99.00       429.39
  906.62        2950.50           1236         101.00       438.10
  906.65        2950.75           1239          93.00       403.23
  906.68        2951.00           1242         101.00       438.10
  906.71        2951.25           1246         110.00       477.34
  906.74        2951.50           1249         109.00       472.98
  906.77        2951.75           1252          97.00       420.67
  906.80        2952.00           1256         104.00       451.18
  906.83        2952.25           1259         103.00       446.82
  906.86        2952.50           1262          96.00       416.31
  906.89        2952.75           1266         105.00       455.54
  906.92        2953.00           1269          96.00       416.31
  906.95        2953.25           1272          96.00       416.31
  906.98        2953.50           1276         101.00       438.10
  907.01        2953.75           1279         103.00       446.82
  907.04        2954.00           1282          95.00       411.95
  907.07        2954.25           1286          95.00       411.95
  907.10        2954.50           1289         106.00       459.90
  907.13        2954.75           1292          98.00       425.03
  907.15        2955.00           1296          98.00       425.03
  907.18        2955.25           1299         106.00       459.90
  907.21        2955.50           1302         100.00       433.75
  907.24        2955.75           1306          96.00       416.31
  907.27        2956.00           1309          96.00       416.31
  907.30        2956.25           1312         104.00       451.18
  907.33        2956.50           1316         104.00       451.18
  907.36        2956.75           1319          97.00       420.67
  907.39        2957.00           1322          96.00       416.31
  907.42        2957.25           1326          94.00       407.59
  907.45        2957.50           1329         100.00       433.75
  907.48        2957.75           1332          97.00       420.67
  907.51        2958.00           1336          92.00       398.87
  907.54        2958.25           1339          96.00       416.31
  907.57        2958.50           1342          95.00       411.95
  907.60        2958.75           1345          96.00       416.31
  907.63        2959.00           1349         100.00       433.75
  907.66        2959.25           1352          91.00       394.51
  907.69        2959.50           1355          95.00       411.95
  907.72        2959.75           1359         104.00       451.18
  907.74        2960.00           1362         104.00       451.18
  907.78        2960.25           1365         100.00       433.75
  907.80        2960.50           1369          98.00       425.03
  907.83        2960.75           1372         112.00       486.06
  907.86        2961.00           1375         116.00       503.49
  907.89        2961.25           1379         123.00       534.01
  907.92        2961.50           1382         166.00       721.46
  907.95        2961.75           1385         712.00      3101.83
  907.98        2962.00           1389        2923.00     12744.14
  908.01        2962.25           1392        5052.00     22033.59
  908.04        2962.50           1395        7663.00     33432.52
  908.07        2962.75           1399       11917.00     52019.39
  908.10        2963.00           1402       15270.00     66682.73
  908.13        2963.25           1405       18606.00     81283.25
  908.16        2963.50           1409       23390.00    102241.30
  908.19        2963.75           1412       27008.00    118107.10
  908.22        2964.00           1415       30184.00    132045.80
  908.25        2964.25           1419       34597.00    151430.90
  908.28        2964.50           1422       37839.00    165685.10
  908.31        2964.75           1425       41293.00    180883.40
  908.34        2965.00           1429       45568.00    199711.70
  908.37        2965.25           1432       48269.00    211617.60
  908.40        2965.50           1435       50697.00    222326.70
  908.43        2965.75           1439       55231.00    242341.20
  908.46        2966.00           1442       58380.00    256254.70
  908.49        2966.25           1445       61377.00    269506.30
  908.51        2966.50           1449       65074.00    285866.20
  908.54        2966.75           1452       67179.00    295187.70
  908.58        2967.00           1455       68143.00    299458.10
  908.60        2967.25           1459       68358.00    300410.70
  908.63        2967.50           1462       68046.00    299028.40
  908.66        2967.75           1465       68054.00    299063.80
  908.69        2968.00           1469       67522.00    296707.10
  908.72        2968.25           1472       65662.00    288469.50
  908.75        2968.50           1475       63217.00    277646.80
  908.78        2968.75           1479       59644.00    261842.50
  908.81        2969.00           1482       56191.00    246581.70
  908.84        2969.25           1485       52721.00    231258.60
  908.87        2969.50           1489       48592.00    213041.90
  908.90        2969.75           1492       45793.00    200703.20
  908.93        2970.00           1495       42875.00    187848.80
  908.96        2970.25           1499       37862.00    165786.20
  908.99        2970.50           1502       34816.00    152393.40
  909.02        2970.75           1505       31929.00    139708.70
  909.05        2971.00           1509       27853.00    121814.60
  909.08        2971.25           1512       24871.00    108734.20
  909.11        2971.50           1515       21721.00     94926.96
  909.14        2971.75           1519       16665.00     72786.76
  909.17        2972.00           1522       13452.00     58730.82
  909.20        2972.25           1525       10339.00     45122.51
  909.23        2972.50           1529        6706.00     29253.70
  909.26        2972.75           1532        3904.00     17023.95
  909.29        2973.00           1535        1614.00      7034.90
  909.32        2973.25           1539         358.00      1558.48
  909.35        2973.50           1542         182.00       791.21
  909.38        2973.75           1546         156.00       677.87
  909.41        2974.00           1549         129.00       560.17
  909.43        2974.25           1552         129.00       560.17
  909.46        2974.50           1556         126.00       547.09
  909.49        2974.75           1559         118.00       512.21
  909.52        2975.00           1562         107.00       464.26
  909.55        2975.25           1566         100.00       433.75
  909.58        2975.50           1569         105.00       455.54
  909.61        2975.75           1572          97.00       420.67
  909.64        2976.00           1576          99.00       429.39
  909.67        2976.25           1579          96.00       416.31
  909.70        2976.50           1582          99.00       429.39
  909.73        2976.75           1586          94.00       407.59
  909.76        2977.00           1589          85.00       368.36
  909.79        2977.25           1592          89.00       385.79
  909.82        2977.50           1596          99.00       429.39
  909.85        2977.75           1599          84.00       364.00
  909.88        2978.00           1602          84.00       364.00
  909.91        2978.25           1606          93.00       403.23
  909.94        2978.50           1609          87.00       377.07
  909.97        2978.75           1612          97.00       420.67
  910.00        2979.00           1616          89.00       385.79
  910.02        2979.25           1619          94.00       407.59
  910.05        2979.50           1622          91.00       394.51
  910.08        2979.75           1626          81.00       350.92
  910.11        2980.00           1629          94.00       407.59
  910.14        2980.25           1632          87.00       377.07
  910.17        2980.50           1636          89.00       385.79
  910.20        2980.75           1639          88.00       381.43
  910.23        2981.00           1642          88.00       381.43
  910.26        2981.25           1646         102.00       442.46
  910.29        2981.50           1649          93.00       403.23
  910.32        2981.75           1653          80.00       346.56
  910.35        2982.00           1656          94.00       407.59
  910.38        2982.25           1659          88.00       381.43
  910.41        2982.50           1663          83.00       359.64
  910.44        2982.75           1666          82.00       355.28
  910.47        2983.00           1669          81.00       350.92
  910.50        2983.25           1673         103.00       446.82
  910.53        2983.50           1676          81.00       350.92
  910.56        2983.75           1679          86.00       372.72
  910.59        2984.00           1683          79.00       342.20
HS scan finished at 15:10:54
end
************************************************************
  HS Scan of (1) Internal mercury lamp
************************************************************
Integration time is 0.2294 seconds per sample
dh240318Delft 51.9969-4.3863 3.340665pr1000
************************************************************
Dead Time -------------------------  2.7E-08 
Number of Cycles Used -------------  4 
Starting Wavelength (Angstroms) ---  2950 
Final Wavelength (Angstoms) -------  2984 
Wavelength Increment (Angstroms) --  .25 
Filter Wheel #1 Position ---------- (1) Ground quartz diffuser (ND=2.32)
Filter Wheel #2 Position ---------- (1) Neutral Density 0.494



************************************************************
HS scan start time = 16:53:13
Dark Count =  .4 


Time (GMT)  Wavelength (Ang)  Step Number  Raw Counts  Counts/Second

 1013.68        2950.00           1229         105.00       455.98
 1013.78        2950.25           1232          95.00       412.38
 1013.81        2950.50           1236         101.00       438.54
 1013.84        2950.75           1239         103.00       447.26
 1013.87        2951.00           1242         104.00       451.62
 1013.90        2951.25           1246          99.00       429.82
 1013.93        2951.50           1249         100.00       434.18
 1013.96        2951.75           1252          99.00       429.82
 1013.99        2952.00           1256          98.00       425.46
 1014.01        2952.25           1259          98.00       425.46
 1014.04        2952.50           1262          97.00       421.10
 1014.07        2952.75           1266         107.00       464.70
 1014.10        2953.00           1269         104.00       451.62
 1014.13        2953.25           1272         103.00       447.26
 1014.16        2953.50           1276          99.00       429.82
 1014.19        2953.75           1279         102.00       442.90
 1014.22        2954.00           1282          93.00       403.67
 1014.25        2954.25           1286         104.00       451.62
 1014.28        2954.50           1289          97.00       421.10
 1014.31        2954.75           1292         100.00       434.18
 1014.34        2955.00           1296          94.00       408.03
 1014.37        2955.25           1299          91.00       394.95
 1014.40        2955.50           1302         100.00       434.18
 1014.43        2955.75           1306          89.00       386.23
 1014.46        2956.00           1309          99.00       429.82
 1014.49        2956.25           1312          92.00       399.31
 1014.52        2956.50           1316          93.00       403.67
 1014.55        2956.75           1319         100.00       434.18
 1014.58        2957.00           1322          84.00       364.43
 1014.61        2957.25           1326          94.00       408.03
 1014.63        2957.50           1329          99.00       429.82
 1014.66        2957.75           1332          91.00       394.95
 1014.69        2958.00           1336          97.00       421.10
 1014.72        2958.25           1339         104.00       451.62
 1014.75        2958.50           1342          99.00       429.82
 1014.78        2958.75           1345          97.00       421.10
 1014.81        2959.00           1349          99.00       429.82
 1014.84        2959.25           1352          98.00       425.46
 1014.87        2959.50           1355          97.00       421.10
 1014.90        2959.75           1359          93.00       403.67
 1014.93        2960.00           1362          93.00       403.67
 1014.96        2960.25           1365         103.00       447.26
 1014.99        2960.50           1369         104.00       451.62
 1015.02        2960.75           1372         109.00       473.41
 1015.05        2961.00           1375         115.00       499.57
 1015.08        2961.25           1379         128.00       556.24
 1015.11        2961.50           1382         158.00       687.02
 1015.14        2961.75           1385         559.00      2435.21
 1015.17        2962.00           1389        2685.00     11706.40
 1015.20        2962.25           1392        5012.00     21859.45
 1015.23        2962.50           1395        8341.00     36394.07
 1015.26        2962.75           1399       12554.00     54804.66
 1015.29        2963.00           1402       15949.00     69653.98
 1015.32        2963.25           1405       19351.00     84545.87
 1015.35        2963.50           1409       24160.00    105617.20
 1015.38        2963.75           1412       27656.00    120950.60
 1015.40        2964.00           1415       30830.00    134882.70
 1015.43        2964.25           1419       34255.00    149928.30
 1015.46        2964.50           1422       37534.00    164344.00
 1015.49        2964.75           1425       40715.00    178339.70
 1015.52        2965.00           1429       45357.00    198782.40
 1015.55        2965.25           1432       48704.00    213536.20
 1015.58        2965.50           1435       50969.00    223527.20
 1015.61        2965.75           1439       55275.00    242536.00
 1015.64        2966.00           1442       58399.00    256339.10
 1015.67        2966.25           1445       61568.00    270351.60
 1015.70        2966.50           1449       65730.00    288771.10
 1015.73        2966.75           1452       67455.00    296410.70
 1015.76        2967.00           1455       68171.00    299582.60
 1015.79        2967.25           1459       68609.00    301523.20
 1015.82        2967.50           1462       68290.00    300109.90
 1015.85        2967.75           1465       68630.00    301616.30
 1015.88        2968.00           1469       67249.00    295498.20
 1015.91        2968.25           1472       65253.00    286659.10
 1015.94        2968.50           1475       62356.00    273837.60
 1015.97        2968.75           1479       58697.00    257656.40
 1016.00        2969.00           1482       55386.00    243026.30
 1016.03        2969.25           1485       52547.00    230491.00
 1016.06        2969.50           1489       48535.00    212791.00
 1016.09        2969.75           1492       45891.00    201135.60
 1016.12        2970.00           1495       42980.00    188311.60
 1016.15        2970.25           1499       38562.00    168865.80
 1016.18        2970.50           1502       35155.00    153883.90
 1016.21        2970.75           1505       31522.00    137921.50
 1016.24        2971.00           1509       26991.00    118032.90
 1016.27        2971.25           1512       24288.00    106178.40
 1016.30        2971.50           1515       21142.00     92390.61
 1016.33        2971.75           1519       17044.00     74445.91
 1016.36        2972.00           1522       13700.00     59815.80
 1016.39        2972.25           1525       10417.00     45463.80
 1016.41        2972.50           1529        6849.00     29878.50
 1016.44        2972.75           1532        3983.00     17369.09
 1016.47        2973.00           1535        1988.00      8666.37
 1016.50        2973.25           1539         534.00      2326.21
 1016.53        2973.50           1542         196.00       852.68
 1016.56        2973.75           1546         142.00       617.27
 1016.59        2974.00           1549         134.00       582.40
 1016.62        2974.25           1552         119.00       517.01
 1016.65        2974.50           1556         122.00       530.09
 1016.68        2974.75           1559         103.00       447.26
 1016.71        2975.00           1562          94.00       408.03
 1016.74        2975.25           1566         104.00       451.62
 1016.77        2975.50           1569         110.00       477.77
 1016.80        2975.75           1572          97.00       421.10
 1016.83        2976.00           1576          98.00       425.46
 1016.86        2976.25           1579          91.00       394.95
 1016.89        2976.50           1582         100.00       434.18
 1016.92        2976.75           1586          87.00       377.51
 1016.95        2977.00           1589          94.00       408.03
 1016.98        2977.25           1592          91.00       394.95
 1017.01        2977.50           1596          91.00       394.95
 1017.03        2977.75           1599          88.00       381.87
 1017.07        2978.00           1602          93.00       403.67
 1017.09        2978.25           1606          98.00       425.46
 1017.12        2978.50           1609          90.00       390.59
 1017.15        2978.75           1612          86.00       373.15
 1017.18        2979.00           1616          97.00       421.10
 1017.21        2979.25           1619         101.00       438.54
 1017.24        2979.50           1622          97.00       421.10
 1017.27        2979.75           1626          83.00       360.07
 1017.30        2980.00           1629          85.00       368.79
 1017.33        2980.25           1632          96.00       416.74
 1017.36        2980.50           1636          95.00       412.38
 1017.39        2980.75           1639          85.00       368.79
 1017.42        2981.00           1642          92.00       399.31
 1017.45        2981.25           1646          85.00       368.79
 1017.48        2981.50           1649          93.00       403.67
 1017.51        2981.75           1653          85.00       368.79
 1017.54        2982.00           1656          83.00       360.07
 1017.57        2982.25           1659          82.00       355.71
 1017.60        2982.50           1663          92.00       399.31
 1017.63        2982.75           1666          87.00       377.51
 1017.66        2983.00           1669          87.00       377.51
 1017.69        2983.25           1673          90.00       390.59
 1017.71        2983.50           1676          84.00       364.43
 1017.74        2983.75           1679          90.00       390.59
 1017.77        2984.00           1683          88.00       381.87
HS scan finished at 16:58:05
end
