************************************************************
  HS Scan of (1) Internal mercury lamp
************************************************************
Integration time is 0.2294 seconds per sample
dh290317DelftKZ 51.997-4.386 2.535944pr1000
************************************************************
Dead Time -------------------------  3E-08 
Number of Cycles Used -------------  4 
Starting Wavelength (Angstroms) ---  2950 
Final Wavelength (Angstoms) -------  2984 
Wavelength Increment (Angstroms) --  .25 
Filter Wheel #1 Position ---------- (1) Ground quartz diffuser (ND=2.32)
Filter Wheel #2 Position ---------- (1) Neutral Density 0.494



************************************************************
HS scan start time = 03:56:40
Dark Count =  0 


Time (GMT)  Wavelength (Ang)  Step Number  Raw Counts  Counts/Second

  237.12        2950.00           1229         129.00       562.35
  237.22        2950.25           1232         130.00       566.71
  237.25        2950.50           1236         138.00       601.58
  237.28        2950.75           1239         127.00       553.63
  237.30        2951.00           1242         128.00       557.99
  237.33        2951.25           1246         126.00       549.27
  237.36        2951.50           1249         133.00       579.78
  237.39        2951.75           1252         123.00       536.19
  237.42        2952.00           1255         134.00       584.14
  237.44        2952.25           1259         140.00       610.30
  237.47        2952.50           1262         126.00       549.27
  237.50        2952.75           1265         126.00       549.27
  237.53        2953.00           1269         124.00       540.55
  237.55        2953.25           1272         127.00       553.63
  237.58        2953.50           1275         129.00       562.35
  237.61        2953.75           1279         126.00       549.27
  237.64        2954.00           1282         133.00       579.78
  237.67        2954.25           1285         123.00       536.19
  237.69        2954.50           1289         120.00       523.11
  237.72        2954.75           1292         129.00       562.35
  237.75        2955.00           1295         124.00       540.55
  237.78        2955.25           1299         125.00       544.91
  237.80        2955.50           1302         130.00       566.71
  237.83        2955.75           1305         129.00       562.35
  237.86        2956.00           1309         119.00       518.75
  237.89        2956.25           1312         126.00       549.27
  237.92        2956.50           1315         126.00       549.27
  237.94        2956.75           1319         120.00       523.11
  237.97        2957.00           1322         130.00       566.71
  238.00        2957.25           1325         128.00       557.99
  238.03        2957.50           1329         126.00       549.27
  238.05        2957.75           1332         124.00       540.55
  238.08        2958.00           1335         119.00       518.75
  238.11        2958.25           1339         123.00       536.19
  238.14        2958.50           1342         126.00       549.27
  238.17        2958.75           1345         120.00       523.11
  238.19        2959.00           1349         122.00       531.83
  238.22        2959.25           1352         112.00       488.24
  238.25        2959.50           1355         125.00       544.91
  238.28        2959.75           1359         132.00       575.42
  238.30        2960.00           1362         126.00       549.27
  238.33        2960.25           1365         119.00       518.75
  238.36        2960.50           1369         129.00       562.35
  238.39        2960.75           1372         141.00       614.66
  238.41        2961.00           1375         137.00       597.22
  238.44        2961.25           1379         151.00       658.25
  238.47        2961.50           1382         334.00      1456.04
  238.50        2961.75           1385        1077.00      4695.52
  238.53        2962.00           1389        2734.00     11922.31
  238.55        2962.25           1392        4692.00     20465.92
  238.58        2962.50           1395        6996.00     30524.89
  238.61        2962.75           1399       10105.00     44108.02
  238.64        2963.00           1402       12940.00     56503.73
  238.66        2963.25           1405       15355.00     67070.31
  238.69        2963.50           1409       18244.00     79719.65
  238.72        2963.75           1412       20776.00     90813.78
  238.75        2964.00           1415       23681.00    103551.40
  238.77        2964.25           1419       26988.00    118063.50
  238.80        2964.50           1422       29778.00    130316.70
  238.83        2964.75           1425       32732.00    143300.00
  238.86        2965.00           1429       36089.00    158066.90
  238.89        2965.25           1432       38665.00    169407.20
  238.92        2965.50           1435       41286.00    180953.50
  238.95        2965.75           1439       44528.00    195246.70
  238.97        2966.00           1442       46830.00    205403.10
  239.00        2966.25           1445       48883.00    214466.10
  239.03        2966.50           1449       51087.00    224201.30
  239.06        2966.75           1452       52445.00    230202.50
  239.09        2967.00           1455       52895.00    232191.60
  239.11        2967.25           1459       52894.00    232187.10
  239.14        2967.50           1462       52832.00    231913.10
  239.17        2967.75           1465       52731.00    231466.60
  239.20        2968.00           1469       51684.00    226839.30
  239.23        2968.25           1472       49946.00    219160.70
  239.26        2968.50           1475       47846.00    209887.60
  239.29        2968.75           1479       44703.00    196018.60
  239.31        2969.00           1482       42654.00    186983.20
  239.34        2969.25           1485       40432.00    177190.50
  239.37        2969.50           1489       37207.00    162987.70
  239.40        2969.75           1492       34529.00    151203.10
  239.43        2970.00           1495       32267.00    141255.60
  239.46        2970.25           1499       28823.00    126121.50
  239.49        2970.50           1502       26390.00    115438.30
  239.51        2970.75           1505       24209.00    105867.50
  239.54        2971.00           1509       21056.00     92041.07
  239.57        2971.25           1512       18158.00     79342.96
  239.60        2971.50           1515       15686.00     68519.09
  239.63        2971.75           1519       13005.00     56788.03
  239.65        2972.00           1522       10587.00     46214.86
  239.68        2972.25           1525        8043.00     35097.97
  239.71        2972.50           1529        4677.00     20400.45
  239.74        2972.75           1532        2224.00      9697.68
  239.76        2973.00           1536         612.00      2668.04
  239.79        2973.25           1539         257.00      1120.35
  239.82        2973.50           1542         176.00       767.24
  239.85        2973.75           1546         163.00       710.56
  239.88        2974.00           1549         153.00       666.97
  239.90        2974.25           1552         142.00       619.02
  239.93        2974.50           1556         119.00       518.75
  239.96        2974.75           1559         124.00       540.55
  239.99        2975.00           1562         125.00       544.91
  240.01        2975.25           1566         123.00       536.19
  240.04        2975.50           1569         117.00       510.03
  240.07        2975.75           1572         121.00       527.47
  240.10        2976.00           1576         113.00       492.60
  240.12        2976.25           1579         108.00       470.80
  240.15        2976.50           1582         116.00       505.67
  240.18        2976.75           1586         116.00       505.67
  240.21        2977.00           1589         103.00       449.00
  240.23        2977.25           1592         107.00       466.44
  240.26        2977.50           1596         115.00       501.32
  240.29        2977.75           1599         113.00       492.60
  240.32        2978.00           1602         115.00       501.32
  240.35        2978.25           1606         109.00       475.16
  240.37        2978.50           1609         109.00       475.16
  240.40        2978.75           1612         104.00       453.36
  240.43        2979.00           1616         103.00       449.00
  240.46        2979.25           1619         110.00       479.52
  240.48        2979.50           1623         112.00       488.24
  240.51        2979.75           1626         105.00       457.72
  240.54        2980.00           1629         120.00       523.11
  240.57        2980.25           1633         106.00       462.08
  240.59        2980.50           1636         102.00       444.64
  240.62        2980.75           1639         111.00       483.88
  240.65        2981.00           1643         107.00       466.44
  240.68        2981.25           1646         114.00       496.96
  240.71        2981.50           1649         113.00       492.60
  240.73        2981.75           1653          98.00       427.21
  240.76        2982.00           1656         100.00       435.93
  240.79        2982.25           1659         111.00       483.88
  240.82        2982.50           1663         117.00       510.03
  240.84        2982.75           1666         110.00       479.52
  240.87        2983.00           1669         112.00       488.24
  240.90        2983.25           1673          92.00       401.05
  240.93        2983.50           1676         103.00       449.00
  240.95        2983.75           1679         105.00       457.72
  240.98        2984.00           1683         101.00       440.28
HS scan finished at 04:01:17
end
