************************************************************
  HS Scan of (1) Internal mercury lamp
************************************************************
Integration time is 0.2294 seconds per sample
dh230318Delft 51.9969-4.3863 3.072425pr1000
************************************************************
Dead Time -------------------------  2.7E-08 
Number of Cycles Used -------------  4 
Starting Wavelength (Angstroms) ---  2950 
Final Wavelength (Angstoms) -------  2984 
Wavelength Increment (Angstroms) --  .25 
Filter Wheel #1 Position ---------- (1) Ground quartz diffuser (ND=2.32)
Filter Wheel #2 Position ---------- (1) Neutral Density 0.494



************************************************************
HS scan start time = 08:59:57
Dark Count =  .2 


Time (GMT)  Wavelength (Ang)  Step Number  Raw Counts  Counts/Second

  540.41        2950.00           1229         111.00       483.01
  540.51        2950.25           1232         109.00       474.29
  540.54        2950.50           1236         110.00       478.65
  540.57        2950.75           1239         116.00       504.80
  540.60        2951.00           1242         107.00       465.57
  540.63        2951.25           1246         111.00       483.01
  540.66        2951.50           1249         116.00       504.80
  540.69        2951.75           1252         101.00       439.41
  540.71        2952.00           1255         111.00       483.01
  540.74        2952.25           1259         114.00       496.08
  540.77        2952.50           1262         113.00       491.72
  540.80        2952.75           1265          95.00       413.26
  540.83        2953.00           1269          99.00       430.69
  540.86        2953.25           1272         107.00       465.57
  540.89        2953.50           1275         109.00       474.29
  540.92        2953.75           1279         104.00       452.49
  540.95        2954.00           1282         107.00       465.57
  540.98        2954.25           1285         105.00       456.85
  541.01        2954.50           1289         103.00       448.13
  541.04        2954.75           1292         103.00       448.13
  541.07        2955.00           1295         108.00       469.93
  541.10        2955.25           1299          93.00       404.54
  541.13        2955.50           1302         117.00       509.16
  541.16        2955.75           1305         107.00       465.57
  541.19        2956.00           1309          98.00       426.33
  541.22        2956.25           1312         108.00       469.93
  541.25        2956.50           1315         113.00       491.72
  541.28        2956.75           1319         107.00       465.57
  541.31        2957.00           1322          92.00       400.18
  541.34        2957.25           1325         102.00       443.77
  541.37        2957.50           1329         101.00       439.41
  541.40        2957.75           1332         102.00       443.77
  541.42        2958.00           1335         108.00       469.93
  541.45        2958.25           1339         101.00       439.41
  541.48        2958.50           1342         106.00       461.21
  541.51        2958.75           1345          99.00       430.69
  541.54        2959.00           1349         111.00       483.01
  541.57        2959.25           1352         109.00       474.29
  541.60        2959.50           1355         109.00       474.29
  541.63        2959.75           1359          97.00       421.98
  541.66        2960.00           1362         105.00       456.85
  541.69        2960.25           1365         100.00       435.05
  541.72        2960.50           1369         108.00       469.93
  541.75        2960.75           1372         127.00       552.75
  541.78        2961.00           1375         133.00       578.91
  541.81        2961.25           1379         138.00       600.71
  541.84        2961.50           1382         191.00       831.75
  541.87        2961.75           1385         892.00      3887.94
  541.90        2962.00           1389        3155.00     13757.51
  541.93        2962.25           1392        5255.00     22920.89
  541.95        2962.50           1395        7777.00     33931.68
  541.98        2962.75           1399       12164.00     53100.49
  542.01        2963.00           1402       15730.00     68696.62
  542.04        2963.25           1405       18895.00     82549.97
  542.07        2963.50           1409       23124.00    101076.70
  542.10        2963.75           1412       25981.00    113603.40
  542.13        2964.00           1415       29201.00    127731.80
  542.16        2964.25           1419       34084.00    149177.70
  542.19        2964.50           1422       37209.00    162915.60
  542.22        2964.75           1425       40572.00    177711.20
  542.25        2965.00           1429       45246.00    198294.20
  542.28        2965.25           1432       48223.00    211416.10
  542.31        2965.50           1435       51203.00    224560.60
  542.34        2965.75           1439       55315.00    242713.50
  542.37        2966.00           1442       58706.00    257697.00
  542.40        2966.25           1445       61827.00    271498.20
  542.43        2966.50           1449       64576.00    283663.00
  542.46        2966.75           1452       66244.00    291048.00
  542.49        2967.00           1455       66981.00    294312.00
  542.52        2967.25           1459       67026.00    294511.30
  542.55        2967.50           1462       67442.00    296354.00
  542.58        2967.75           1465       67142.00    295025.10
  542.61        2968.00           1469       65681.00    288555.00
  542.64        2968.25           1472       63924.00    280777.00
  542.67        2968.50           1475       61380.00    269520.90
  542.70        2968.75           1479       57314.00    251544.90
  542.73        2969.00           1482       54538.00    239282.00
  542.75        2969.25           1485       52041.00    228258.60
  542.78        2969.50           1489       47996.00    210415.20
  542.81        2969.75           1492       45101.00    197655.40
  542.84        2970.00           1495       41876.00    183451.30
  542.87        2970.25           1499       37572.00    164512.10
  542.90        2970.50           1502       33993.00    148777.80
  542.93        2970.75           1505       30572.00    133750.70
  542.96        2971.00           1509       26808.00    117231.00
  542.99        2971.25           1512       23542.00    102908.90
  543.02        2971.50           1515       20124.00     87932.16
  543.05        2971.75           1519       16137.00     70477.50
  543.08        2972.00           1522       13583.00     59305.00
  543.11        2972.25           1525       10758.00     46954.87
  543.14        2972.50           1529        6669.00     29093.46
  543.17        2972.75           1532        3682.00     16056.65
  543.20        2973.00           1536         956.00      4166.99
  543.23        2973.25           1539         368.00      1603.38
  543.26        2973.50           1542         193.00       840.47
  543.29        2973.75           1546         159.00       692.25
  543.32        2974.00           1549         143.00       622.50
  543.35        2974.25           1552         140.00       609.43
  543.38        2974.50           1556         129.00       561.47
  543.40        2974.75           1559         121.00       526.60
  543.44        2975.00           1562         113.00       491.72
  543.46        2975.25           1566         101.00       439.41
  543.49        2975.50           1569          97.00       421.98
  543.52        2975.75           1572          98.00       426.33
  543.55        2976.00           1576          97.00       421.98
  543.58        2976.25           1579          97.00       421.98
  543.61        2976.50           1582          97.00       421.98
  543.64        2976.75           1586          92.00       400.18
  543.67        2977.00           1589          94.00       408.90
  543.70        2977.25           1592         105.00       456.85
  543.73        2977.50           1596         103.00       448.13
  543.76        2977.75           1599          99.00       430.69
  543.79        2978.00           1602         105.00       456.85
  543.82        2978.25           1606          99.00       430.69
  543.85        2978.50           1609          97.00       421.98
  543.88        2978.75           1612         107.00       465.57
  543.90        2979.00           1616         100.00       435.05
  543.93        2979.25           1619         100.00       435.05
  543.96        2979.50           1623          97.00       421.98
  543.99        2979.75           1626          94.00       408.90
  544.02        2980.00           1629          97.00       421.98
  544.05        2980.25           1633          94.00       408.90
  544.08        2980.50           1636          98.00       426.33
  544.11        2980.75           1639          97.00       421.98
  544.14        2981.00           1643          92.00       400.18
  544.17        2981.25           1646         103.00       448.13
  544.20        2981.50           1649          95.00       413.26
  544.23        2981.75           1653          95.00       413.26
  544.26        2982.00           1656          89.00       387.10
  544.29        2982.25           1659         108.00       469.93
  544.32        2982.50           1663          83.00       360.95
  544.35        2982.75           1666          94.00       408.90
  544.38        2983.00           1669          86.00       374.02
  544.41        2983.25           1673          93.00       404.54
  544.44        2983.50           1676          98.00       426.33
  544.46        2983.75           1679          87.00       378.38
  544.49        2984.00           1683          88.00       382.74
HS scan finished at 09:04:48
end
************************************************************
  HS Scan of (1) Internal mercury lamp
************************************************************
Integration time is 0.2294 seconds per sample
dh230318Delft 51.9969-4.3863 3.233369pr1000
************************************************************
Dead Time -------------------------  2.7E-08 
Number of Cycles Used -------------  4 
Starting Wavelength (Angstroms) ---  2950 
Final Wavelength (Angstoms) -------  2984 
Wavelength Increment (Angstroms) --  .25 
Filter Wheel #1 Position ---------- (1) Ground quartz diffuser (ND=2.32)
Filter Wheel #2 Position ---------- (1) Neutral Density 0.494



************************************************************
HS scan start time = 10:47:06
Dark Count =  .3 


Time (GMT)  Wavelength (Ang)  Step Number  Raw Counts  Counts/Second

  647.55        2950.00           1229         107.00       465.13
  647.65        2950.25           1232         108.00       469.49
  647.68        2950.50           1236         101.00       438.98
  647.71        2950.75           1239         114.00       495.65
  647.74        2951.00           1242         100.00       434.62
  647.77        2951.25           1246         108.00       469.49
  647.80        2951.50           1249         107.00       465.13
  647.83        2951.75           1252         101.00       438.98
  647.86        2952.00           1255         110.00       478.21
  647.89        2952.25           1259         101.00       438.98
  647.92        2952.50           1262          97.00       421.54
  647.95        2952.75           1265         107.00       465.13
  647.98        2953.00           1269         107.00       465.13
  648.00        2953.25           1272          95.00       412.82
  648.03        2953.50           1275          99.00       430.26
  648.06        2953.75           1279         100.00       434.62
  648.09        2954.00           1282         101.00       438.98
  648.12        2954.25           1285         104.00       452.05
  648.15        2954.50           1289         100.00       434.62
  648.18        2954.75           1292         105.00       456.41
  648.21        2955.00           1295          95.00       412.82
  648.24        2955.25           1299         105.00       456.41
  648.27        2955.50           1302          90.00       391.02
  648.30        2955.75           1305         100.00       434.62
  648.33        2956.00           1309          94.00       408.46
  648.36        2956.25           1312          97.00       421.54
  648.39        2956.50           1315          96.00       417.18
  648.42        2956.75           1319          91.00       395.38
  648.45        2957.00           1322          90.00       391.02
  648.48        2957.25           1325          94.00       408.46
  648.51        2957.50           1329          97.00       421.54
  648.54        2957.75           1332         103.00       447.70
  648.57        2958.00           1335          96.00       417.18
  648.60        2958.25           1339          90.00       391.02
  648.63        2958.50           1342         114.00       495.65
  648.66        2958.75           1345          98.00       425.90
  648.69        2959.00           1349          99.00       430.26
  648.71        2959.25           1352          96.00       417.18
  648.74        2959.50           1355          91.00       395.38
  648.77        2959.75           1359         106.00       460.77
  648.80        2960.00           1362          87.00       377.95
  648.83        2960.25           1365         103.00       447.70
  648.86        2960.50           1369         100.00       434.62
  648.89        2960.75           1372         112.00       486.93
  648.92        2961.00           1375         124.00       539.24
  648.95        2961.25           1379         135.00       587.19
  648.98        2961.50           1382         226.00       983.90
  649.01        2961.75           1385         934.00      4070.63
  649.04        2962.00           1389        3349.00     14603.40
  649.07        2962.25           1392        5910.00     25779.49
  649.10        2962.50           1395        8802.00     38408.17
  649.13        2962.75           1399       12484.00     54499.06
  649.16        2963.00           1402       15911.00     69488.15
  649.19        2963.25           1405       19371.00     84633.89
  649.22        2963.50           1409       23927.00    104596.20
  649.25        2963.75           1412       27677.00    121043.20
  649.28        2964.00           1415       31243.00    136696.70
  649.31        2964.25           1419       35484.00    155330.60
  649.34        2964.50           1422       38550.00    168813.50
  649.37        2964.75           1425       41660.00    182499.90
  649.40        2965.00           1429       46203.00    202511.00
  649.43        2965.25           1432       49371.00    216478.30
  649.46        2965.50           1435       51978.00    227980.10
  649.49        2965.75           1439       55569.00    243835.00
  649.52        2966.00           1442       58629.00    257356.20
  649.55        2966.25           1445       62028.00    272387.00
  649.58        2966.50           1449       65790.00    289037.20
  649.61        2966.75           1452       67344.00    295919.50
  649.64        2967.00           1455       67866.00    298231.80
  649.67        2967.25           1459       67778.00    297842.00
  649.70        2967.50           1462       67835.00    298094.50
  649.73        2967.75           1465       67931.00    298519.80
  649.76        2968.00           1469       66769.00    293372.70
  649.79        2968.25           1472       64981.00    285455.40
  649.82        2968.50           1475       62472.00    274351.30
  649.85        2968.75           1479       58717.00    257745.20
  649.88        2969.00           1482       55870.00    245164.60
  649.91        2969.25           1485       52499.00    230279.60
  649.94        2969.50           1489       47661.00    208937.80
  649.97        2969.75           1492       44335.00    194280.20
  650.00        2970.00           1495       41464.00    181637.10
  650.03        2970.25           1499       37522.00    164291.70
  650.06        2970.50           1502       33773.00    147810.60
  650.09        2970.75           1505       30491.00    133394.60
  650.12        2971.00           1509       26883.00    117559.60
  650.15        2971.25           1512       23748.00    103811.50
  650.18        2971.50           1515       20646.00     90218.19
  650.20        2971.75           1519       16390.00     71584.18
  650.23        2972.00           1522       12558.00     54822.59
  650.26        2972.25           1525        9369.00     40885.13
  650.29        2972.50           1529        5578.00     24330.28
  650.32        2972.75           1532        2878.00     12548.72
  650.35        2973.00           1536         934.00      4070.63
  650.38        2973.25           1539         315.00      1371.89
  650.41        2973.50           1542         174.00       757.21
  650.44        2973.75           1546         157.00       683.10
  650.47        2974.00           1549         151.00       656.94
  650.50        2974.25           1552         121.00       526.16
  650.53        2974.50           1556         115.00       500.01
  650.56        2974.75           1559         111.00       482.57
  650.59        2975.00           1562          97.00       421.54
  650.62        2975.25           1566          98.00       425.90
  650.65        2975.50           1569          97.00       421.54
  650.68        2975.75           1572          92.00       399.74
  650.71        2976.00           1576          99.00       430.26
  650.74        2976.25           1579          97.00       421.54
  650.77        2976.50           1582          95.00       412.82
  650.80        2976.75           1586          98.00       425.90
  650.82        2977.00           1589          94.00       408.46
  650.85        2977.25           1592          93.00       404.10
  650.88        2977.50           1596          97.00       421.54
  650.91        2977.75           1599          93.00       404.10
  650.94        2978.00           1602          94.00       408.46
  650.97        2978.25           1606          90.00       391.02
  651.00        2978.50           1609          95.00       412.82
  651.03        2978.75           1612          86.00       373.59
  651.06        2979.00           1616          95.00       412.82
  651.09        2979.25           1619          99.00       430.26
  651.12        2979.50           1623         104.00       452.05
  651.15        2979.75           1626          93.00       404.10
  651.18        2980.00           1629          88.00       382.31
  651.21        2980.25           1633          86.00       373.59
  651.24        2980.50           1636          95.00       412.82
  651.27        2980.75           1639          91.00       395.38
  651.30        2981.00           1643          97.00       421.54
  651.33        2981.25           1646          93.00       404.10
  651.36        2981.50           1649          94.00       408.46
  651.39        2981.75           1653          95.00       412.82
  651.41        2982.00           1656          90.00       391.02
  651.44        2982.25           1659          96.00       417.18
  651.47        2982.50           1663          85.00       369.23
  651.50        2982.75           1666          93.00       404.10
  651.53        2983.00           1669          90.00       391.02
  651.56        2983.25           1673          84.00       364.87
  651.59        2983.50           1676          92.00       399.74
  651.62        2983.75           1679          85.00       369.23
  651.65        2984.00           1683          97.00       421.54
HS scan finished at 10:51:57
end
************************************************************
  HS Scan of (1) Internal mercury lamp
************************************************************
Integration time is 0.2294 seconds per sample
dh230318Delft 51.9969-4.3863 3.340665pr1000
************************************************************
Dead Time -------------------------  2.7E-08 
Number of Cycles Used -------------  4 
Starting Wavelength (Angstroms) ---  2950 
Final Wavelength (Angstoms) -------  2984 
Wavelength Increment (Angstroms) --  .25 
Filter Wheel #1 Position ---------- (1) Ground quartz diffuser (ND=2.32)
Filter Wheel #2 Position ---------- (1) Neutral Density 0.494



************************************************************
HS scan start time = 15:24:20
Dark Count =  .6 


Time (GMT)  Wavelength (Ang)  Step Number  Raw Counts  Counts/Second

  924.79        2950.00           1229          99.00       428.95
  924.89        2950.25           1232          99.00       428.95
  924.92        2950.50           1236         106.00       459.47
  924.95        2950.75           1239         102.00       442.03
  924.98        2951.00           1242         110.00       476.90
  925.01        2951.25           1246          90.00       389.72
  925.04        2951.50           1249          97.00       420.23
  925.07        2951.75           1252         106.00       459.47
  925.10        2952.00           1256          97.00       420.23
  925.13        2952.25           1259          96.00       415.87
  925.16        2952.50           1262         103.00       446.39
  925.19        2952.75           1266         111.00       481.26
  925.22        2953.00           1269         102.00       442.03
  925.25        2953.25           1272          99.00       428.95
  925.28        2953.50           1276          93.00       402.79
  925.31        2953.75           1279         101.00       437.67
  925.33        2954.00           1282          91.00       394.08
  925.36        2954.25           1286          98.00       424.59
  925.39        2954.50           1289          95.00       411.51
  925.42        2954.75           1292          93.00       402.79
  925.45        2955.00           1296          99.00       428.95
  925.48        2955.25           1299         103.00       446.39
  925.51        2955.50           1302         100.00       433.31
  925.54        2955.75           1306          92.00       398.43
  925.57        2956.00           1309          95.00       411.51
  925.60        2956.25           1312          95.00       411.51
  925.63        2956.50           1316          90.00       389.72
  925.66        2956.75           1319          92.00       398.43
  925.69        2957.00           1322         107.00       463.82
  925.72        2957.25           1326         101.00       437.67
  925.75        2957.50           1329          97.00       420.23
  925.78        2957.75           1332          91.00       394.08
  925.81        2958.00           1336          94.00       407.15
  925.84        2958.25           1339          92.00       398.43
  925.87        2958.50           1342         101.00       437.67
  925.90        2958.75           1345         106.00       459.47
  925.93        2959.00           1349         100.00       433.31
  925.96        2959.25           1352          93.00       402.79
  925.98        2959.50           1355          92.00       398.43
  926.01        2959.75           1359          90.00       389.72
  926.04        2960.00           1362          87.00       376.64
  926.07        2960.25           1365         102.00       442.03
  926.10        2960.50           1369         107.00       463.82
  926.13        2960.75           1372         119.00       516.14
  926.16        2961.00           1375         104.00       450.75
  926.19        2961.25           1379         137.00       594.60
  926.22        2961.50           1382         207.00       899.76
  926.25        2961.75           1385         872.00      3798.99
  926.28        2962.00           1389        2750.00     11989.06
  926.31        2962.25           1392        4909.00     21409.06
  926.34        2962.50           1395        7914.00     34528.25
  926.37        2962.75           1399       12108.00     52853.93
  926.40        2963.00           1402       15848.00     69211.16
  926.43        2963.25           1405       18989.00     82959.81
  926.46        2963.50           1409       22815.00     99720.62
  926.49        2963.75           1412       26277.00    114899.90
  926.52        2964.00           1415       29829.00    130486.80
  926.55        2964.25           1419       34184.00    149615.40
  926.58        2964.50           1422       37760.00    165337.10
  926.61        2964.75           1425       40340.00    176688.30
  926.64        2965.00           1429       44367.00    194419.80
  926.67        2965.25           1432       48206.00    211339.40
  926.69        2965.50           1435       51311.00    225035.40
  926.72        2965.75           1439       55019.00    241404.50
  926.75        2966.00           1442       58907.00    258583.70
  926.78        2966.25           1445       61796.00    271359.30
  926.81        2966.50           1449       65320.00    286954.90
  926.84        2966.75           1452       66843.00    293699.00
  926.87        2967.00           1455       67449.00    296383.30
  926.90        2967.25           1459       67631.00    297189.50
  926.93        2967.50           1462       67321.00    295816.20
  926.96        2967.75           1465       67363.00    296002.30
  926.99        2968.00           1469       66225.00    290962.10
  927.02        2968.25           1472       64572.00    283643.50
  927.05        2968.50           1475       61344.00    269359.90
  927.08        2968.75           1479       57033.00    250301.40
  927.11        2969.00           1482       54364.00    238511.90
  927.14        2969.25           1485       51229.00    224673.50
  927.17        2969.50           1489       47481.00    208142.90
  927.20        2969.75           1492       44297.00    194111.40
  927.23        2970.00           1495       41108.00    180068.60
  927.26        2970.25           1499       37137.00    162597.20
  927.29        2970.50           1502       34325.00    150235.00
  927.32        2970.75           1505       31162.00    136339.70
  927.35        2971.00           1509       26965.00    117918.00
  927.38        2971.25           1512       23725.00    103709.40
  927.41        2971.50           1515       20727.00     90571.71
  927.43        2971.75           1519       16294.00     71162.75
  927.46        2972.00           1522       13524.00     59045.24
  927.49        2972.25           1525       10683.00     46625.36
  927.52        2972.50           1529        6649.00     29004.40
  927.55        2972.75           1532        3557.00     15509.55
  927.58        2973.00           1535        1539.00      6707.41
  927.61        2973.25           1539         527.00      2294.82
  927.64        2973.50           1542         206.00       895.40
  927.67        2973.75           1546         160.00       694.87
  927.70        2974.00           1549         134.00       581.53
  927.73        2974.25           1552         127.00       551.01
  927.76        2974.50           1556         114.00       494.34
  927.79        2974.75           1559         123.00       533.57
  927.82        2975.00           1562          97.00       420.23
  927.85        2975.25           1566          95.00       411.51
  927.88        2975.50           1569          97.00       420.23
  927.91        2975.75           1572          90.00       389.72
  927.94        2976.00           1576          92.00       398.43
  927.97        2976.25           1579          90.00       389.72
  928.00        2976.50           1582          92.00       398.43
  928.03        2976.75           1586          92.00       398.43
  928.06        2977.00           1589          94.00       407.15
  928.09        2977.25           1592          90.00       389.72
  928.11        2977.50           1596         105.00       455.11
  928.14        2977.75           1599          91.00       394.08
  928.17        2978.00           1602          86.00       372.28
  928.20        2978.25           1606          94.00       407.15
  928.23        2978.50           1609          88.00       381.00
  928.26        2978.75           1612          94.00       407.15
  928.29        2979.00           1616         100.00       433.31
  928.32        2979.25           1619          93.00       402.79
  928.35        2979.50           1622          91.00       394.08
  928.38        2979.75           1626          81.00       350.48
  928.41        2980.00           1629          91.00       394.08
  928.44        2980.25           1632          87.00       376.64
  928.47        2980.50           1636          82.00       354.84
  928.50        2980.75           1639          81.00       350.48
  928.53        2981.00           1642          90.00       389.72
  928.56        2981.25           1646          95.00       411.51
  928.59        2981.50           1649          82.00       354.84
  928.62        2981.75           1653          97.00       420.23
  928.65        2982.00           1656          95.00       411.51
  928.67        2982.25           1659          91.00       394.08
  928.70        2982.50           1663          88.00       381.00
  928.73        2982.75           1666          87.00       376.64
  928.76        2983.00           1669          81.00       350.48
  928.79        2983.25           1673          83.00       359.20
  928.82        2983.50           1676          87.00       376.64
  928.85        2983.75           1679          83.00       359.20
  928.88        2984.00           1683          87.00       376.64
HS scan finished at 15:29:11
end
************************************************************
  HS Scan of (1) Internal mercury lamp
************************************************************
Integration time is 0.2294 seconds per sample
dh230318Delft 51.9969-4.3863 3.340665pr1000
************************************************************
Dead Time -------------------------  2.7E-08 
Number of Cycles Used -------------  4 
Starting Wavelength (Angstroms) ---  2950 
Final Wavelength (Angstoms) -------  2984 
Wavelength Increment (Angstroms) --  .25 
Filter Wheel #1 Position ---------- (1) Ground quartz diffuser (ND=2.32)
Filter Wheel #2 Position ---------- (1) Neutral Density 0.494



************************************************************
HS scan start time = 17:11:26
Dark Count =  .2 


Time (GMT)  Wavelength (Ang)  Step Number  Raw Counts  Counts/Second

 1031.89        2950.00           1229         100.00       435.05
 1031.99        2950.25           1232         100.00       435.05
 1032.02        2950.50           1236         102.00       443.77
 1032.05        2950.75           1239         108.00       469.93
 1032.08        2951.00           1242          96.00       417.62
 1032.11        2951.25           1246         105.00       456.85
 1032.14        2951.50           1249          84.00       365.30
 1032.17        2951.75           1252          99.00       430.69
 1032.20        2952.00           1256          98.00       426.33
 1032.23        2952.25           1259         100.00       435.05
 1032.26        2952.50           1262         101.00       439.41
 1032.29        2952.75           1266          91.00       395.82
 1032.32        2953.00           1269          99.00       430.69
 1032.35        2953.25           1272         104.00       452.49
 1032.38        2953.50           1276          98.00       426.33
 1032.41        2953.75           1279         104.00       452.49
 1032.44        2954.00           1282          97.00       421.98
 1032.47        2954.25           1286          91.00       395.82
 1032.50        2954.50           1289         102.00       443.77
 1032.52        2954.75           1292          92.00       400.18
 1032.55        2955.00           1296         106.00       461.21
 1032.58        2955.25           1299          95.00       413.26
 1032.61        2955.50           1302          96.00       417.62
 1032.64        2955.75           1306         108.00       469.93
 1032.67        2956.00           1309          92.00       400.18
 1032.70        2956.25           1312          93.00       404.54
 1032.73        2956.50           1316         103.00       448.13
 1032.76        2956.75           1319          93.00       404.54
 1032.79        2957.00           1322          92.00       400.18
 1032.82        2957.25           1326         105.00       456.85
 1032.85        2957.50           1329         100.00       435.05
 1032.88        2957.75           1332          94.00       408.90
 1032.91        2958.00           1336          97.00       421.98
 1032.94        2958.25           1339          95.00       413.26
 1032.97        2958.50           1342          99.00       430.69
 1033.00        2958.75           1345          99.00       430.69
 1033.03        2959.00           1349         103.00       448.13
 1033.06        2959.25           1352          98.00       426.33
 1033.09        2959.50           1355         107.00       465.57
 1033.12        2959.75           1359         105.00       456.85
 1033.14        2960.00           1362         102.00       443.77
 1033.18        2960.25           1365         100.00       435.05
 1033.20        2960.50           1369         104.00       452.49
 1033.23        2960.75           1372         107.00       465.57
 1033.26        2961.00           1375         130.00       565.83
 1033.29        2961.25           1379         139.00       605.07
 1033.32        2961.50           1382         174.00       757.64
 1033.35        2961.75           1385         601.00      2619.19
 1033.38        2962.00           1389        2958.00     12898.13
 1033.41        2962.25           1392        5435.00     23706.54
 1033.44        2962.50           1395        8054.00     35141.44
 1033.47        2962.75           1399       11697.00     51059.01
 1033.50        2963.00           1402       14891.00     65026.01
 1033.53        2963.25           1405       18547.00     81026.25
 1033.56        2963.50           1409       23053.00    100765.50
 1033.59        2963.75           1412       26338.00    115169.30
 1033.62        2964.00           1415       29302.00    128175.20
 1033.65        2964.25           1419       33704.00    147507.90
 1033.68        2964.50           1422       37147.00    162642.90
 1033.71        2964.75           1425       39925.00    174863.80
 1033.74        2965.00           1429       44765.00    196175.00
 1033.77        2965.25           1432       48190.00    211270.60
 1033.80        2965.50           1435       51094.00    224079.60
 1033.83        2965.75           1439       55372.00    242965.30
 1033.86        2966.00           1442       58641.00    257409.70
 1033.89        2966.25           1445       61495.00    270029.60
 1033.92        2966.50           1449       65187.00    286367.90
 1033.95        2966.75           1452       66601.00    292629.00
 1033.98        2967.00           1455       67244.00    295477.00
 1034.01        2967.25           1459       67381.00    296083.80
 1034.04        2967.50           1462       67432.00    296309.70
 1034.07        2967.75           1465       67411.00    296216.70
 1034.10        2968.00           1469       65945.00    289724.00
 1034.13        2968.25           1472       64331.00    282578.50
 1034.15        2968.50           1475       61876.00    271715.00
 1034.18        2968.75           1479       57418.00    252004.40
 1034.21        2969.00           1482       54539.00    239286.40
 1034.24        2969.25           1485       51750.00    226974.40
 1034.27        2969.50           1489       48287.00    211698.30
 1034.30        2969.75           1492       45201.00    198095.90
 1034.33        2970.00           1495       42444.00    185952.20
 1034.36        2970.25           1499       38044.00    166588.10
 1034.39        2970.50           1502       34836.00    152482.60
 1034.42        2970.75           1505       31526.00    137940.00
 1034.45        2971.00           1509       26823.00    117296.80
 1034.48        2971.25           1512       24073.00    105236.70
 1034.51        2971.50           1515       21223.00     92746.35
 1034.54        2971.75           1519       16636.00     72661.16
 1034.57        2972.00           1522       13378.00     58408.52
 1034.60        2972.25           1525       10643.00     46452.30
 1034.63        2972.50           1529        7321.00     31940.35
 1034.66        2972.75           1532        4203.00     18329.91
 1034.69        2973.00           1535        1842.00      8030.51
 1034.72        2973.25           1539         397.00      1729.81
 1034.75        2973.50           1542         193.00       840.47
 1034.78        2973.75           1546         158.00       687.89
 1034.81        2974.00           1549         146.00       635.58
 1034.84        2974.25           1552         124.00       539.68
 1034.87        2974.50           1556         121.00       526.60
 1034.90        2974.75           1559         110.00       478.65
 1034.93        2975.00           1562         115.00       500.44
 1034.96        2975.25           1566         102.00       443.77
 1034.99        2975.50           1569          95.00       413.26
 1035.02        2975.75           1572          97.00       421.98
 1035.04        2976.00           1576          97.00       421.98
 1035.08        2976.25           1579          99.00       430.69
 1035.10        2976.50           1582          91.00       395.82
 1035.13        2976.75           1586          98.00       426.33
 1035.16        2977.00           1589         103.00       448.13
 1035.19        2977.25           1592          91.00       395.82
 1035.22        2977.50           1596          99.00       430.69
 1035.25        2977.75           1599         101.00       439.41
 1035.28        2978.00           1602          99.00       430.69
 1035.31        2978.25           1606          91.00       395.82
 1035.34        2978.50           1609          86.00       374.02
 1035.37        2978.75           1612          94.00       408.90
 1035.40        2979.00           1616          94.00       408.90
 1035.43        2979.25           1619          92.00       400.18
 1035.46        2979.50           1622          88.00       382.74
 1035.49        2979.75           1626          85.00       369.66
 1035.52        2980.00           1629          82.00       356.59
 1035.55        2980.25           1632          95.00       413.26
 1035.58        2980.50           1636          90.00       391.46
 1035.61        2980.75           1639          88.00       382.74
 1035.64        2981.00           1642          85.00       369.66
 1035.67        2981.25           1646          93.00       404.54
 1035.70        2981.50           1649          96.00       417.62
 1035.73        2981.75           1653          86.00       374.02
 1035.76        2982.00           1656          86.00       374.02
 1035.79        2982.25           1659          88.00       382.74
 1035.81        2982.50           1663          93.00       404.54
 1035.84        2982.75           1666          89.00       387.10
 1035.87        2983.00           1669          97.00       421.98
 1035.90        2983.25           1673          84.00       365.30
 1035.93        2983.50           1676          81.00       352.23
 1035.96        2983.75           1679          76.00       330.43
 1035.99        2984.00           1683          89.00       387.10
HS scan finished at 17:16:18
end
