************************************************************
  HS Scan of (1) Internal mercury lamp
************************************************************
Integration time is 0.2294 seconds per sample
dh280318Delft 51.9969-4.3863 3.340665pr1000
************************************************************
Dead Time -------------------------  2.7E-08 
Number of Cycles Used -------------  4 
Starting Wavelength (Angstroms) ---  2950 
Final Wavelength (Angstoms) -------  2984 
Wavelength Increment (Angstroms) --  .25 
Filter Wheel #1 Position ---------- (1) Ground quartz diffuser (ND=2.32)
Filter Wheel #2 Position ---------- (1) Neutral Density 0.494



************************************************************
HS scan start time = 06:00:45
Dark Count =  .3 


Time (GMT)  Wavelength (Ang)  Step Number  Raw Counts  Counts/Second

  361.21        2950.00           1229          96.00       417.18
  361.31        2950.25           1232         103.00       447.70
  361.34        2950.50           1236         100.00       434.62
  361.37        2950.75           1239          87.00       377.95
  361.40        2951.00           1242          95.00       412.82
  361.43        2951.25           1246          94.00       408.46
  361.46        2951.50           1249         100.00       434.62
  361.49        2951.75           1252          97.00       421.54
  361.52        2952.00           1256          97.00       421.54
  361.54        2952.25           1259         108.00       469.49
  361.57        2952.50           1262         100.00       434.62
  361.60        2952.75           1266          90.00       391.02
  361.63        2953.00           1269          92.00       399.74
  361.66        2953.25           1272         112.00       486.93
  361.69        2953.50           1276          98.00       425.90
  361.72        2953.75           1279         102.00       443.34
  361.75        2954.00           1282         106.00       460.77
  361.78        2954.25           1286          97.00       421.54
  361.81        2954.50           1289         106.00       460.77
  361.84        2954.75           1292          93.00       404.10
  361.87        2955.00           1296         104.00       452.05
  361.90        2955.25           1299          97.00       421.54
  361.93        2955.50           1302          94.00       408.46
  361.96        2955.75           1306          92.00       399.74
  361.99        2956.00           1309          94.00       408.46
  362.02        2956.25           1312          99.00       430.26
  362.05        2956.50           1316         107.00       465.13
  362.08        2956.75           1319         100.00       434.62
  362.11        2957.00           1322          92.00       399.74
  362.14        2957.25           1326         100.00       434.62
  362.17        2957.50           1329          92.00       399.74
  362.20        2957.75           1332          92.00       399.74
  362.23        2958.00           1336          93.00       404.10
  362.26        2958.25           1339         100.00       434.62
  362.29        2958.50           1342          97.00       421.54
  362.32        2958.75           1345          98.00       425.90
  362.34        2959.00           1349          97.00       421.54
  362.37        2959.25           1352          99.00       430.26
  362.40        2959.50           1355          88.00       382.31
  362.43        2959.75           1359         102.00       443.34
  362.46        2960.00           1362          91.00       395.38
  362.49        2960.25           1365         104.00       452.05
  362.52        2960.50           1369         105.00       456.41
  362.55        2960.75           1372         110.00       478.21
  362.58        2961.00           1375         120.00       521.80
  362.61        2961.25           1379         125.00       543.60
  362.64        2961.50           1382         175.00       761.57
  362.67        2961.75           1385         552.00      2405.13
  362.70        2962.00           1389        2530.00     11030.75
  362.73        2962.25           1392        4879.00     21279.44
  362.76        2962.50           1395        7804.00     34049.16
  362.79        2962.75           1399       11454.00     49996.39
  362.82        2963.00           1402       14254.00     62239.21
  362.85        2963.25           1405       17850.00     77974.36
  362.88        2963.50           1409       22546.00     98543.01
  362.91        2963.75           1412       25582.00    111853.00
  362.94        2964.00           1415       29114.00    127349.50
  362.97        2964.25           1419       33723.00    147590.90
  363.00        2964.50           1422       36946.00    161758.60
  363.03        2964.75           1425       40113.00    175690.60
  363.06        2965.00           1429       44447.00    194773.60
  363.09        2965.25           1432       47665.00    208955.40
  363.12        2965.50           1435       50154.00    219932.00
  363.15        2965.75           1439       54041.00    237087.00
  363.18        2966.00           1442       57043.00    250346.90
  363.20        2966.25           1445       59929.00    263103.50
  363.23        2966.50           1449       64093.00    281524.60
  363.26        2966.75           1452       65962.00    289798.90
  363.30        2967.00           1455       66812.00    293563.10
  363.32        2967.25           1459       67078.00    294741.30
  363.35        2967.50           1462       67159.00    295100.00
  363.38        2967.75           1465       67133.00    294984.90
  363.41        2968.00           1469       66128.00    290533.90
  363.44        2968.25           1472       64499.00    283321.60
  363.47        2968.50           1475       62726.00    275475.10
  363.50        2968.75           1479       58976.00    258890.10
  363.53        2969.00           1482       56255.00    246865.40
  363.56        2969.25           1485       53108.00    232967.80
  363.59        2969.50           1489       48641.00    213258.90
  363.62        2969.75           1492       45055.00    197452.20
  363.65        2970.00           1495       42105.00    184459.10
  363.68        2970.25           1499       37907.00    165985.00
  363.71        2970.50           1502       34801.00    152328.40
  363.74        2970.75           1505       31132.00    136209.20
  363.77        2971.00           1509       27027.00    118191.30
  363.80        2971.25           1512       24608.00    107581.90
  363.83        2971.50           1515       21597.00     94384.52
  363.86        2971.75           1519       17569.00     76744.30
  363.89        2972.00           1522       14384.00     62807.82
  363.92        2972.25           1525       10556.00     46071.66
  363.95        2972.50           1529        6384.00     27848.75
  363.98        2972.75           1532        3769.00     16435.80
  364.01        2973.00           1535        1745.00      7607.05
  364.04        2973.25           1539         466.00      2030.19
  364.07        2973.50           1542         206.00       896.71
  364.10        2973.75           1546         144.00       626.43
  364.13        2974.00           1549         129.00       561.04
  364.16        2974.25           1552         128.00       556.68
  364.19        2974.50           1556         124.00       539.24
  364.22        2974.75           1559         118.00       513.08
  364.25        2975.00           1562          96.00       417.18
  364.28        2975.25           1566         101.00       438.98
  364.31        2975.50           1569          95.00       412.82
  364.34        2975.75           1572          93.00       404.10
  364.36        2976.00           1576          90.00       391.02
  364.39        2976.25           1579          86.00       373.59
  364.42        2976.50           1582          90.00       391.02
  364.45        2976.75           1586         100.00       434.62
  364.48        2977.00           1589          93.00       404.10
  364.51        2977.25           1592          91.00       395.38
  364.54        2977.50           1596          91.00       395.38
  364.57        2977.75           1599         104.00       452.05
  364.60        2978.00           1602          91.00       395.38
  364.63        2978.25           1606         101.00       438.98
  364.66        2978.50           1609          95.00       412.82
  364.69        2978.75           1612          90.00       391.02
  364.72        2979.00           1616          97.00       421.54
  364.75        2979.25           1619          97.00       421.54
  364.78        2979.50           1622          90.00       391.02
  364.81        2979.75           1626          89.00       386.66
  364.84        2980.00           1629          83.00       360.51
  364.87        2980.25           1632          90.00       391.02
  364.90        2980.50           1636          92.00       399.74
  364.93        2980.75           1639          87.00       377.95
  364.96        2981.00           1642          95.00       412.82
  364.99        2981.25           1646          91.00       395.38
  365.02        2981.50           1649          82.00       356.15
  365.04        2981.75           1653          79.00       343.07
  365.07        2982.00           1656          80.00       347.43
  365.10        2982.25           1659          97.00       421.54
  365.13        2982.50           1663          84.00       364.87
  365.16        2982.75           1666          91.00       395.38
  365.19        2983.00           1669          85.00       369.23
  365.22        2983.25           1673          88.00       382.31
  365.25        2983.50           1676          93.00       404.10
  365.28        2983.75           1679          90.00       391.02
  365.31        2984.00           1683          88.00       382.31
HS scan finished at 06:05:37
end
************************************************************
  HS Scan of (1) Internal mercury lamp
************************************************************
Integration time is 0.2294 seconds per sample
dh280318Delft 51.9969-4.3863 3.287017pr1000
************************************************************
Dead Time -------------------------  2.7E-08 
Number of Cycles Used -------------  4 
Starting Wavelength (Angstroms) ---  2950 
Final Wavelength (Angstoms) -------  2984 
Wavelength Increment (Angstroms) --  .25 
Filter Wheel #1 Position ---------- (1) Ground quartz diffuser (ND=2.32)
Filter Wheel #2 Position ---------- (1) Neutral Density 0.494



************************************************************
HS scan start time = 07:47:57
Dark Count =  .3 


Time (GMT)  Wavelength (Ang)  Step Number  Raw Counts  Counts/Second

  468.40        2950.00           1229          95.00       412.82
  468.50        2950.25           1232          98.00       425.90
  468.53        2950.50           1236         103.00       447.70
  468.56        2950.75           1239          98.00       425.90
  468.59        2951.00           1242          97.00       421.54
  468.62        2951.25           1246          96.00       417.18
  468.65        2951.50           1249         111.00       482.57
  468.68        2951.75           1252          97.00       421.54
  468.71        2952.00           1256         104.00       452.05
  468.74        2952.25           1259         102.00       443.34
  468.77        2952.50           1262         105.00       456.41
  468.80        2952.75           1266         110.00       478.21
  468.83        2953.00           1269         100.00       434.62
  468.86        2953.25           1272         101.00       438.98
  468.89        2953.50           1276         105.00       456.41
  468.92        2953.75           1279         101.00       438.98
  468.95        2954.00           1282          94.00       408.46
  468.98        2954.25           1286          99.00       430.26
  469.01        2954.50           1289          96.00       417.18
  469.04        2954.75           1292          99.00       430.26
  469.07        2955.00           1296         106.00       460.77
  469.10        2955.25           1299          92.00       399.74
  469.13        2955.50           1302         104.00       452.05
  469.16        2955.75           1306          87.00       377.95
  469.19        2956.00           1309         101.00       438.98
  469.22        2956.25           1312         108.00       469.49
  469.25        2956.50           1316          96.00       417.18
  469.28        2956.75           1319         102.00       443.34
  469.31        2957.00           1322          99.00       430.26
  469.34        2957.25           1326          96.00       417.18
  469.37        2957.50           1329          96.00       417.18
  469.40        2957.75           1332         114.00       495.65
  469.43        2958.00           1336          96.00       417.18
  469.46        2958.25           1339          94.00       408.46
  469.49        2958.50           1342         103.00       447.70
  469.52        2958.75           1345          92.00       399.74
  469.55        2959.00           1349          98.00       425.90
  469.57        2959.25           1352         105.00       456.41
  469.60        2959.50           1355         106.00       460.77
  469.63        2959.75           1359          91.00       395.38
  469.66        2960.00           1362          99.00       430.26
  469.69        2960.25           1365         100.00       434.62
  469.72        2960.50           1369          99.00       430.26
  469.75        2960.75           1372         111.00       482.57
  469.78        2961.00           1375         116.00       504.37
  469.81        2961.25           1379         136.00       591.55
  469.84        2961.50           1382         174.00       757.21
  469.87        2961.75           1385         521.00      2269.97
  469.90        2962.00           1389        2194.00      9565.24
  469.93        2962.25           1392        4636.00     20218.97
  469.96        2962.50           1395        7496.00     32704.11
  469.99        2962.75           1399       11558.00     50450.99
  470.02        2963.00           1402       15240.00     66552.35
  470.05        2963.25           1405       18584.00     81187.81
  470.08        2963.50           1409       23212.00    101462.00
  470.11        2963.75           1412       26404.00    115458.30
  470.14        2964.00           1415       29704.00    129939.40
  470.17        2964.25           1419       34040.00    148983.90
  470.20        2964.50           1422       36875.00    161446.30
  470.23        2964.75           1425       39206.00    171699.60
  470.26        2965.00           1429       43681.00    191399.40
  470.29        2965.25           1432       46774.00    205027.70
  470.32        2965.50           1435       49928.00    218935.10
  470.35        2965.75           1439       54298.00    238221.70
  470.38        2966.00           1442       57113.00    250656.20
  470.41        2966.25           1445       59909.00    263015.10
  470.44        2966.50           1449       63839.00    280400.40
  470.47        2966.75           1452       66251.00    291078.60
  470.50        2967.00           1455       67099.00    294834.30
  470.53        2967.25           1459       67166.00    295131.00
  470.56        2967.50           1462       67275.00    295613.80
  470.59        2967.75           1465       67249.00    295498.70
  470.62        2968.00           1469       66852.00    293740.20
  470.65        2968.25           1472       64923.00    285198.60
  470.68        2968.50           1475       62359.00    273851.30
  470.71        2968.75           1479       58351.00    256127.40
  470.74        2969.00           1482       55422.00    243185.70
  470.77        2969.25           1485       52309.00    229441.00
  470.80        2969.50           1489       48079.00    210780.70
  470.82        2969.75           1492       44929.00    196897.10
  470.85        2970.00           1495       42361.00    185586.30
  470.88        2970.25           1499       38540.00    168769.50
  470.91        2970.50           1502       35343.00    154710.70
  470.94        2970.75           1505       31922.00    139678.80
  470.97        2971.00           1509       27342.00    119573.30
  471.00        2971.25           1512       23966.00    104767.20
  471.03        2971.50           1515       21027.00     91887.24
  471.06        2971.75           1519       17176.00     75024.10
  471.09        2972.00           1522       14389.00     62829.69
  471.12        2972.25           1525       11259.00     49144.07
  471.15        2972.50           1529        6974.00     30424.72
  471.18        2972.75           1532        4050.00     17661.86
  471.21        2973.00           1535        1887.00      8226.33
  471.24        2973.25           1539         583.00      2540.28
  471.27        2973.50           1542         229.00       996.98
  471.30        2973.75           1546         173.00       752.85
  471.33        2974.00           1549         146.00       635.15
  471.36        2974.25           1552         139.00       604.63
  471.39        2974.50           1556         115.00       500.01
  471.42        2974.75           1559         120.00       521.80
  471.45        2975.00           1562         111.00       482.57
  471.48        2975.25           1566          92.00       399.74
  471.51        2975.50           1569          95.00       412.82
  471.54        2975.75           1572          93.00       404.10
  471.57        2976.00           1576          92.00       399.74
  471.60        2976.25           1579          96.00       417.18
  471.63        2976.50           1582          85.00       369.23
  471.66        2976.75           1586          98.00       425.90
  471.68        2977.00           1589          84.00       364.87
  471.71        2977.25           1592         107.00       465.13
  471.74        2977.50           1596          97.00       421.54
  471.77        2977.75           1599          92.00       399.74
  471.80        2978.00           1602          90.00       391.02
  471.83        2978.25           1606          96.00       417.18
  471.86        2978.50           1609          88.00       382.31
  471.89        2978.75           1612          99.00       430.26
  471.92        2979.00           1616          89.00       386.66
  471.95        2979.25           1619          93.00       404.10
  471.98        2979.50           1622          87.00       377.95
  472.01        2979.75           1626          93.00       404.10
  472.04        2980.00           1629          93.00       404.10
  472.07        2980.25           1632         100.00       434.62
  472.10        2980.50           1636          91.00       395.38
  472.13        2980.75           1639          83.00       360.51
  472.16        2981.00           1642          97.00       421.54
  472.19        2981.25           1646          91.00       395.38
  472.22        2981.50           1649          88.00       382.31
  472.25        2981.75           1653          96.00       417.18
  472.28        2982.00           1656          94.00       408.46
  472.31        2982.25           1659          85.00       369.23
  472.34        2982.50           1663          90.00       391.02
  472.37        2982.75           1666          95.00       412.82
  472.39        2983.00           1669          87.00       377.95
  472.42        2983.25           1673          87.00       377.95
  472.45        2983.50           1676          86.00       373.59
  472.48        2983.75           1679          95.00       412.82
  472.51        2984.00           1683          82.00       356.15
HS scan finished at 07:52:49
end
************************************************************
  HS Scan of (1) Internal mercury lamp
************************************************************
Integration time is 0.2294 seconds per sample
dh280318Delft 51.9969-4.3863 3.287017pr1000
************************************************************
Dead Time -------------------------  2.7E-08 
Number of Cycles Used -------------  4 
Starting Wavelength (Angstroms) ---  2950 
Final Wavelength (Angstoms) -------  2984 
Wavelength Increment (Angstroms) --  .25 
Filter Wheel #1 Position ---------- (1) Ground quartz diffuser (ND=2.32)
Filter Wheel #2 Position ---------- (1) Neutral Density 0.494



************************************************************
HS scan start time = 09:35:08
Dark Count =  .3 


Time (GMT)  Wavelength (Ang)  Step Number  Raw Counts  Counts/Second

  575.59        2950.00           1229         107.00       465.13
  575.69        2950.25           1232          99.00       430.26
  575.72        2950.50           1236          88.00       382.31
  575.75        2950.75           1239          91.00       395.38
  575.78        2951.00           1242         105.00       456.41
  575.81        2951.25           1246         100.00       434.62
  575.84        2951.50           1249          94.00       408.46
  575.87        2951.75           1252         104.00       452.05
  575.90        2952.00           1256         102.00       443.34
  575.93        2952.25           1259          98.00       425.90
  575.96        2952.50           1262         106.00       460.77
  575.99        2952.75           1266         102.00       443.34
  576.02        2953.00           1269         106.00       460.77
  576.04        2953.25           1272         105.00       456.41
  576.07        2953.50           1276          92.00       399.74
  576.10        2953.75           1279          94.00       408.46
  576.13        2954.00           1282         101.00       438.98
  576.16        2954.25           1286          98.00       425.90
  576.19        2954.50           1289          97.00       421.54
  576.22        2954.75           1292          91.00       395.38
  576.25        2955.00           1296          94.00       408.46
  576.28        2955.25           1299         104.00       452.05
  576.31        2955.50           1302         101.00       438.98
  576.34        2955.75           1306          92.00       399.74
  576.37        2956.00           1309         109.00       473.85
  576.40        2956.25           1312         107.00       465.13
  576.43        2956.50           1316          97.00       421.54
  576.46        2956.75           1319         106.00       460.77
  576.49        2957.00           1322          90.00       391.02
  576.52        2957.25           1326          99.00       430.26
  576.55        2957.50           1329          96.00       417.18
  576.58        2957.75           1332          90.00       391.02
  576.61        2958.00           1336          90.00       391.02
  576.64        2958.25           1339          97.00       421.54
  576.67        2958.50           1342          94.00       408.46
  576.70        2958.75           1345          98.00       425.90
  576.73        2959.00           1349          97.00       421.54
  576.76        2959.25           1352          90.00       391.02
  576.78        2959.50           1355          93.00       404.10
  576.81        2959.75           1359         102.00       443.34
  576.85        2960.00           1362         103.00       447.70
  576.87        2960.25           1365         100.00       434.62
  576.90        2960.50           1369         106.00       460.77
  576.93        2960.75           1372         107.00       465.13
  576.96        2961.00           1375         115.00       500.01
  576.99        2961.25           1379         128.00       556.68
  577.02        2961.50           1382         148.00       643.86
  577.05        2961.75           1385         487.00      2121.74
  577.08        2962.00           1389        2582.00     11257.56
  577.11        2962.25           1392        4854.00     21170.34
  577.14        2962.50           1395        7899.00     34464.06
  577.17        2962.75           1399       12014.00     52444.31
  577.20        2963.00           1402       15369.00     67116.73
  577.23        2963.25           1405       19026.00     83123.13
  577.26        2963.50           1409       22947.00    100300.50
  577.29        2963.75           1412       25870.00    113116.10
  577.32        2964.00           1415       29199.00    127722.60
  577.35        2964.25           1419       33308.00    145767.40
  577.38        2964.50           1422       36578.00    160140.40
  577.41        2964.75           1425       39900.00    174753.30
  577.44        2965.00           1429       43686.00    191421.40
  577.47        2965.25           1432       47078.00    206367.70
  577.50        2965.50           1435       49924.00    218917.50
  577.53        2965.75           1439       54495.00    239091.70
  577.56        2966.00           1442       57713.00    253307.60
  577.59        2966.25           1445       59926.00    263090.20
  577.62        2966.50           1449       63631.00    279479.80
  577.65        2966.75           1452       66065.00    290255.00
  577.68        2967.00           1455       66604.00    292641.90
  577.71        2967.25           1459       66974.00    294280.60
  577.74        2967.50           1462       67192.00    295246.20
  577.77        2967.75           1465       66958.00    294209.70
  577.80        2968.00           1469       65948.00    289736.90
  577.83        2968.25           1472       64132.00    281697.20
  577.86        2968.50           1475       61413.00    269666.50
  577.89        2968.75           1479       57530.00    252498.90
  577.92        2969.00           1482       54534.00    239263.90
  577.95        2969.25           1485       52179.00    228867.20
  577.98        2969.50           1489       48736.00    213677.80
  578.00        2969.75           1492       45315.00    198597.80
  578.03        2970.00           1495       41787.00    183059.10
  578.06        2970.25           1499       37448.00    163966.20
  578.09        2970.50           1502       34508.00    151040.60
  578.12        2970.75           1505       31214.00    136569.40
  578.15        2971.00           1509       27142.00    118695.80
  578.18        2971.25           1512       24147.00    105560.70
  578.21        2971.50           1515       20678.00     90358.36
  578.24        2971.75           1519       16797.00     73365.32
  578.27        2972.00           1522       14218.00     62081.75
  578.30        2972.25           1525       11242.00     49069.77
  578.33        2972.50           1529        7699.00     33590.61
  578.36        2972.75           1532        4386.00     19128.01
  578.39        2973.00           1535        1837.00      8008.27
  578.42        2973.25           1539         437.00      1903.76
  578.45        2973.50           1542         192.00       835.68
  578.48        2973.75           1546         167.00       726.69
  578.51        2974.00           1549         137.00       595.91
  578.54        2974.25           1552         125.00       543.60
  578.57        2974.50           1556         115.00       500.01
  578.60        2974.75           1559         115.00       500.01
  578.63        2975.00           1562          98.00       425.90
  578.66        2975.25           1566          98.00       425.90
  578.69        2975.50           1569          90.00       391.02
  578.72        2975.75           1572         100.00       434.62
  578.75        2976.00           1576          98.00       425.90
  578.78        2976.25           1579          90.00       391.02
  578.80        2976.50           1582          94.00       408.46
  578.83        2976.75           1586         102.00       443.34
  578.86        2977.00           1589          89.00       386.66
  578.89        2977.25           1592          87.00       377.95
  578.92        2977.50           1596         103.00       447.70
  578.95        2977.75           1599          88.00       382.31
  578.98        2978.00           1602          84.00       364.87
  579.01        2978.25           1606          94.00       408.46
  579.04        2978.50           1609          82.00       356.15
  579.07        2978.75           1612          89.00       386.66
  579.10        2979.00           1616          87.00       377.95
  579.13        2979.25           1619          85.00       369.23
  579.16        2979.50           1622          95.00       412.82
  579.19        2979.75           1626         101.00       438.98
  579.22        2980.00           1629          90.00       391.02
  579.25        2980.25           1632          91.00       395.38
  579.28        2980.50           1636          88.00       382.31
  579.31        2980.75           1639          94.00       408.46
  579.34        2981.00           1642          94.00       408.46
  579.37        2981.25           1646          85.00       369.23
  579.40        2981.50           1649          91.00       395.38
  579.43        2981.75           1653          88.00       382.31
  579.46        2982.00           1656          86.00       373.59
  579.48        2982.25           1659          95.00       412.82
  579.51        2982.50           1663          90.00       391.02
  579.54        2982.75           1666          84.00       364.87
  579.57        2983.00           1669          92.00       399.74
  579.60        2983.25           1673          81.00       351.79
  579.63        2983.50           1676          81.00       351.79
  579.66        2983.75           1679          89.00       386.66
  579.69        2984.00           1683          84.00       364.87
HS scan finished at 09:40:00
end
************************************************************
  HS Scan of (1) Internal mercury lamp
************************************************************
Integration time is 0.2294 seconds per sample
dh280318Delft 51.9969-4.3863 3.287017pr1000
************************************************************
Dead Time -------------------------  2.7E-08 
Number of Cycles Used -------------  4 
Starting Wavelength (Angstroms) ---  2950 
Final Wavelength (Angstoms) -------  2984 
Wavelength Increment (Angstroms) --  .25 
Filter Wheel #1 Position ---------- (1) Ground quartz diffuser (ND=2.32)
Filter Wheel #2 Position ---------- (1) Neutral Density 0.494



************************************************************
HS scan start time = 11:22:19
Dark Count =  .1 


Time (GMT)  Wavelength (Ang)  Step Number  Raw Counts  Counts/Second

  682.77        2950.00           1229         101.00       439.85
  682.87        2950.25           1232         104.00       452.93
  682.90        2950.50           1236         103.00       448.57
  682.93        2950.75           1239          99.00       431.13
  682.96        2951.00           1242         107.00       466.00
  682.99        2951.25           1246         101.00       439.85
  683.02        2951.50           1249         103.00       448.57
  683.05        2951.75           1252          98.00       426.77
  683.08        2952.00           1256         101.00       439.85
  683.11        2952.25           1259          96.00       418.05
  683.14        2952.50           1262         104.00       452.93
  683.17        2952.75           1266         101.00       439.85
  683.20        2953.00           1269          95.00       413.69
  683.23        2953.25           1272          99.00       431.13
  683.26        2953.50           1276         101.00       439.85
  683.29        2953.75           1279          98.00       426.77
  683.32        2954.00           1282          95.00       413.69
  683.35        2954.25           1286          92.00       400.61
  683.38        2954.50           1289          96.00       418.05
  683.41        2954.75           1292          93.00       404.97
  683.44        2955.00           1296         110.00       479.08
  683.47        2955.25           1299         104.00       452.93
  683.50        2955.50           1302          97.00       422.41
  683.53        2955.75           1306         101.00       439.85
  683.55        2956.00           1309          94.00       409.33
  683.58        2956.25           1312          96.00       418.05
  683.61        2956.50           1316          95.00       413.69
  683.64        2956.75           1319         102.00       444.21
  683.67        2957.00           1322         102.00       444.21
  683.70        2957.25           1326          93.00       404.97
  683.73        2957.50           1329          95.00       413.69
  683.76        2957.75           1332         101.00       439.85
  683.79        2958.00           1336         104.00       452.93
  683.82        2958.25           1339          95.00       413.69
  683.85        2958.50           1342          99.00       431.13
  683.88        2958.75           1345          93.00       404.97
  683.91        2959.00           1349          93.00       404.97
  683.94        2959.25           1352          97.00       422.41
  683.97        2959.50           1355          97.00       422.41
  684.00        2959.75           1359         104.00       452.93
  684.03        2960.00           1362          87.00       378.82
  684.06        2960.25           1365          98.00       426.77
  684.09        2960.50           1369         101.00       439.85
  684.12        2960.75           1372         109.00       474.72
  684.15        2961.00           1375         117.00       509.60
  684.18        2961.25           1379         128.00       557.55
  684.21        2961.50           1382         165.00       718.85
  684.24        2961.75           1385         561.00      2445.24
  684.27        2962.00           1389        2651.00     11559.41
  684.30        2962.25           1392        5105.00     22266.65
  684.33        2962.50           1395        7985.00     34840.52
  684.36        2962.75           1399       11416.00     49831.17
  684.38        2963.00           1402       14483.00     63241.73
  684.42        2963.25           1405       17848.00     77966.49
  684.45        2963.50           1409       22636.00     98938.32
  684.47        2963.75           1412       26225.00    114674.00
  684.50        2964.00           1415       29265.00    128013.20
  684.53        2964.25           1419       33165.00    145140.00
  684.56        2964.50           1422       36404.00    159376.10
  684.59        2964.75           1425       39156.00    171480.40
  684.62        2965.00           1429       44054.00    193043.20
  684.65        2965.25           1432       47489.00    208180.40
  684.68        2965.50           1435       49781.00    218287.50
  684.71        2965.75           1439       53764.00    235864.80
  684.74        2966.00           1442       57183.00    250966.40
  684.77        2966.25           1445       60346.00    264948.30
  684.80        2966.50           1449       63821.00    280321.60
  684.83        2966.75           1452       66256.00    291101.60
  684.86        2967.00           1455       67141.00    295021.20
  684.89        2967.25           1459       67235.00    295437.50
  684.92        2967.50           1462       67107.00    294870.60
  684.95        2967.75           1465       67003.00    294409.90
  684.98        2968.00           1469       65442.00    287497.20
  685.01        2968.25           1472       64122.00    281653.80
  685.04        2968.50           1475       61968.00    272122.40
  685.07        2968.75           1479       58310.00    255947.00
  685.10        2969.00           1482       54611.00    239604.80
  685.13        2969.25           1485       51675.00    226643.80
  685.16        2969.50           1489       47618.00    208749.10
  685.19        2969.75           1492       44597.00    195435.30
  685.22        2970.00           1495       41542.00    181981.30
  685.25        2970.25           1499       37540.00    164371.70
  685.28        2970.50           1502       34473.00    150887.70
  685.31        2970.75           1505       30901.00    135195.80
  685.34        2971.00           1509       27303.00    119403.10
  685.37        2971.25           1512       24548.00    107319.70
  685.40        2971.50           1515       21437.00     93684.38
  685.43        2971.75           1519       17514.00     76504.43
  685.46        2972.00           1522       14026.00     61242.87
  685.49        2972.25           1525       10996.00     47995.47
  685.52        2972.50           1529        6936.00     30259.67
  685.55        2972.75           1532        4045.00     17640.92
  685.58        2973.00           1535        1853.00      8078.92
  685.61        2973.25           1539         442.00      1926.43
  685.64        2973.50           1542         186.00       810.39
  685.67        2973.75           1546         144.00       627.30
  685.70        2974.00           1549         146.00       636.02
  685.73        2974.25           1552         127.00       553.19
  685.75        2974.50           1556         115.00       500.88
  685.78        2974.75           1559         104.00       452.93
  685.81        2975.00           1562         114.00       496.52
  685.84        2975.25           1566         101.00       439.85
  685.87        2975.50           1569          96.00       418.05
  685.90        2975.75           1572          94.00       409.33
  685.93        2976.00           1576         100.00       435.49
  685.96        2976.25           1579          98.00       426.77
  685.99        2976.50           1582          82.00       357.02
  686.02        2976.75           1586          88.00       383.18
  686.05        2977.00           1589          95.00       413.69
  686.08        2977.25           1592          98.00       426.77
  686.11        2977.50           1596          95.00       413.69
  686.14        2977.75           1599          89.00       387.54
  686.17        2978.00           1602          89.00       387.54
  686.20        2978.25           1606          85.00       370.10
  686.23        2978.50           1609          94.00       409.33
  686.26        2978.75           1612          88.00       383.18
  686.29        2979.00           1616          93.00       404.97
  686.32        2979.25           1619          88.00       383.18
  686.35        2979.50           1622          94.00       409.33
  686.38        2979.75           1626          90.00       391.90
  686.41        2980.00           1629          93.00       404.97
  686.44        2980.25           1632          91.00       396.26
  686.46        2980.50           1636          79.00       343.94
  686.49        2980.75           1639          83.00       361.38
  686.52        2981.00           1642          80.00       348.30
  686.55        2981.25           1646          86.00       374.46
  686.58        2981.50           1649          87.00       378.82
  686.61        2981.75           1653          84.00       365.74
  686.64        2982.00           1656          81.00       352.66
  686.67        2982.25           1659          91.00       396.26
  686.70        2982.50           1663          85.00       370.10
  686.73        2982.75           1666          89.00       387.54
  686.76        2983.00           1669          84.00       365.74
  686.79        2983.25           1673          83.00       361.38
  686.82        2983.50           1676          82.00       357.02
  686.85        2983.75           1679          90.00       391.90
  686.88        2984.00           1683          88.00       383.18
HS scan finished at 11:27:11
end
************************************************************
  HS Scan of (1) Internal mercury lamp
************************************************************
Integration time is 0.2294 seconds per sample
dh280318Delft 51.9969-4.3863 3.340665pr1000
************************************************************
Dead Time -------------------------  2.7E-08 
Number of Cycles Used -------------  4 
Starting Wavelength (Angstroms) ---  2950 
Final Wavelength (Angstoms) -------  2984 
Wavelength Increment (Angstroms) --  .25 
Filter Wheel #1 Position ---------- (1) Ground quartz diffuser (ND=2.32)
Filter Wheel #2 Position ---------- (1) Neutral Density 0.494



************************************************************
HS scan start time = 13:09:31
Dark Count =  .2 


Time (GMT)  Wavelength (Ang)  Step Number  Raw Counts  Counts/Second

  789.97        2950.00           1229         101.00       439.41
  790.07        2950.25           1232         103.00       448.13
  790.10        2950.50           1236         101.00       439.41
  790.13        2950.75           1239          89.00       387.10
  790.16        2951.00           1242         100.00       435.05
  790.19        2951.25           1246         110.00       478.65
  790.22        2951.50           1249          96.00       417.62
  790.25        2951.75           1252         103.00       448.13
  790.28        2952.00           1256          95.00       413.26
  790.31        2952.25           1259          86.00       374.02
  790.33        2952.50           1262          97.00       421.98
  790.37        2952.75           1266         102.00       443.77
  790.39        2953.00           1269          97.00       421.98
  790.42        2953.25           1272          97.00       421.98
  790.45        2953.50           1276          93.00       404.54
  790.48        2953.75           1279          96.00       417.62
  790.51        2954.00           1282          94.00       408.90
  790.54        2954.25           1286          90.00       391.46
  790.57        2954.50           1289         100.00       435.05
  790.60        2954.75           1292         100.00       435.05
  790.63        2955.00           1296         109.00       474.29
  790.66        2955.25           1299         101.00       439.41
  790.69        2955.50           1302         100.00       435.05
  790.72        2955.75           1306          98.00       426.33
  790.75        2956.00           1309         102.00       443.77
  790.78        2956.25           1312          96.00       417.62
  790.81        2956.50           1316          97.00       421.98
  790.84        2956.75           1319          95.00       413.26
  790.87        2957.00           1322         109.00       474.29
  790.90        2957.25           1326         108.00       469.93
  790.93        2957.50           1329         102.00       443.77
  790.96        2957.75           1332         100.00       435.05
  790.99        2958.00           1336         100.00       435.05
  791.02        2958.25           1339          93.00       404.54
  791.05        2958.50           1342          93.00       404.54
  791.08        2958.75           1345          90.00       391.46
  791.11        2959.00           1349          99.00       430.69
  791.14        2959.25           1352          94.00       408.90
  791.17        2959.50           1355         103.00       448.13
  791.20        2959.75           1359          97.00       421.98
  791.23        2960.00           1362         103.00       448.13
  791.25        2960.25           1365          95.00       413.26
  791.28        2960.50           1369         112.00       487.36
  791.31        2960.75           1372         110.00       478.65
  791.34        2961.00           1375         122.00       530.96
  791.37        2961.25           1379         137.00       596.35
  791.40        2961.50           1382         176.00       766.36
  791.43        2961.75           1385         687.00      2994.14
  791.46        2962.00           1389        2347.00     10232.99
  791.49        2962.25           1392        4298.00     18744.45
  791.52        2962.50           1395        7269.00     31713.28
  791.55        2962.75           1399       11720.00     51159.55
  791.58        2963.00           1402       14952.00     65292.86
  791.61        2963.25           1405       18017.00     78705.88
  791.64        2963.50           1409       21989.00     96102.58
  791.67        2963.75           1412       25518.00    111572.70
  791.70        2964.00           1415       29141.00    127468.50
  791.73        2964.25           1419       33504.00    146629.10
  791.76        2964.50           1422       36718.00    160756.40
  791.79        2964.75           1425       39164.00    171515.20
  791.82        2965.00           1429       43864.00    192205.90
  791.85        2965.25           1432       47144.00    206659.10
  791.88        2965.50           1435       50198.00    220126.60
  791.91        2965.75           1439       54820.00    240527.40
  791.94        2966.00           1442       58211.00    255509.00
  791.97        2966.25           1445       60946.00    267601.30
  792.00        2966.50           1449       64678.00    284114.50
  792.03        2966.75           1452       66572.00    292500.60
  792.06        2967.00           1455       67105.00    294861.20
  792.09        2967.25           1459       67172.00    295158.00
  792.12        2967.50           1462       67109.00    294879.00
  792.15        2967.75           1465       67147.00    295047.30
  792.18        2968.00           1469       66315.00    291362.50
  792.21        2968.25           1472       64426.00    282999.00
  792.24        2968.50           1475       61345.00    269366.10
  792.27        2968.75           1479       57785.00    253626.30
  792.30        2969.00           1482       54657.00    239807.50
  792.33        2969.25           1485       51708.00    226789.00
  792.36        2969.50           1489       47712.00    209163.10
  792.39        2969.75           1492       44602.00    195456.90
  792.42        2970.00           1495       41263.00    180752.70
  792.45        2970.25           1499       37828.00    165638.00
  792.48        2970.50           1502       34809.00    152364.00
  792.50        2970.75           1505       31775.00    139033.60
  792.53        2971.00           1509       27352.00    119617.60
  792.56        2971.25           1512       24236.00    105951.30
  792.59        2971.50           1515       21138.00     92373.96
  792.62        2971.75           1519       16993.00     74223.58
  792.65        2972.00           1522       14274.00     62327.12
  792.68        2972.25           1525       11103.00     48462.68
  792.71        2972.50           1529        7084.00     30905.47
  792.74        2972.75           1532        4131.00     18015.74
  792.77        2973.00           1535        2035.00      8872.22
  792.80        2973.25           1539         670.00      2920.02
  792.83        2973.50           1542         241.00      1049.72
  792.86        2973.75           1546         153.00       666.10
  792.89        2974.00           1549         133.00       578.91
  792.92        2974.25           1552         123.00       535.32
  792.95        2974.50           1556         124.00       539.68
  792.98        2974.75           1559         117.00       509.16
  793.01        2975.00           1562          97.00       421.98
  793.04        2975.25           1566         111.00       483.01
  793.07        2975.50           1569          87.00       378.38
  793.10        2975.75           1572          93.00       404.54
  793.13        2976.00           1576          91.00       395.82
  793.16        2976.25           1579          91.00       395.82
  793.19        2976.50           1582          93.00       404.54
  793.22        2976.75           1586          98.00       426.33
  793.25        2977.00           1589          84.00       365.30
  793.28        2977.25           1592          93.00       404.54
  793.31        2977.50           1596          86.00       374.02
  793.34        2977.75           1599          95.00       413.26
  793.37        2978.00           1602          95.00       413.26
  793.40        2978.25           1606          89.00       387.10
  793.42        2978.50           1609          92.00       400.18
  793.45        2978.75           1612          89.00       387.10
  793.48        2979.00           1616          82.00       356.59
  793.51        2979.25           1619          93.00       404.54
  793.54        2979.50           1622          93.00       404.54
  793.57        2979.75           1626          93.00       404.54
  793.60        2980.00           1629          80.00       347.87
  793.63        2980.25           1632          90.00       391.46
  793.66        2980.50           1636          92.00       400.18
  793.69        2980.75           1639          85.00       369.66
  793.72        2981.00           1642          84.00       365.30
  793.75        2981.25           1646          85.00       369.66
  793.78        2981.50           1649          90.00       391.46
  793.81        2981.75           1653          96.00       417.62
  793.84        2982.00           1656          84.00       365.30
  793.87        2982.25           1659          88.00       382.74
  793.90        2982.50           1663          84.00       365.30
  793.93        2982.75           1666          89.00       387.10
  793.96        2983.00           1669          92.00       400.18
  793.99        2983.25           1673          91.00       395.82
  794.02        2983.50           1676          81.00       352.23
  794.05        2983.75           1679          80.00       347.87
  794.08        2984.00           1683          91.00       395.82
HS scan finished at 13:14:23
end
************************************************************
  HS Scan of (1) Internal mercury lamp
************************************************************
Integration time is 0.2294 seconds per sample
dh280318Delft 51.9969-4.3863 3.287017pr1000
************************************************************
Dead Time -------------------------  2.7E-08 
Number of Cycles Used -------------  4 
Starting Wavelength (Angstroms) ---  2950 
Final Wavelength (Angstoms) -------  2984 
Wavelength Increment (Angstroms) --  .25 
Filter Wheel #1 Position ---------- (1) Ground quartz diffuser (ND=2.32)
Filter Wheel #2 Position ---------- (1) Neutral Density 0.494



************************************************************
HS scan start time = 14:56:43
Dark Count =  .3 


Time (GMT)  Wavelength (Ang)  Step Number  Raw Counts  Counts/Second

  897.16        2950.00           1229          96.00       417.18
  897.27        2950.25           1232         103.00       447.70
  897.29        2950.50           1236          93.00       404.10
  897.32        2950.75           1239          92.00       399.74
  897.35        2951.00           1242         104.00       452.05
  897.38        2951.25           1246         102.00       443.34
  897.41        2951.50           1249          87.00       377.95
  897.44        2951.75           1252          96.00       417.18
  897.47        2952.00           1256          98.00       425.90
  897.50        2952.25           1259          99.00       430.26
  897.53        2952.50           1262          92.00       399.74
  897.56        2952.75           1266         100.00       434.62
  897.59        2953.00           1269         105.00       456.41
  897.62        2953.25           1272          97.00       421.54
  897.65        2953.50           1276          97.00       421.54
  897.68        2953.75           1279          95.00       412.82
  897.71        2954.00           1282          92.00       399.74
  897.74        2954.25           1286          97.00       421.54
  897.77        2954.50           1289         102.00       443.34
  897.80        2954.75           1292          98.00       425.90
  897.83        2955.00           1296          98.00       425.90
  897.86        2955.25           1299          99.00       430.26
  897.89        2955.50           1302         101.00       438.98
  897.92        2955.75           1306         103.00       447.70
  897.95        2956.00           1309          97.00       421.54
  897.98        2956.25           1312          97.00       421.54
  898.01        2956.50           1316          92.00       399.74
  898.04        2956.75           1319          96.00       417.18
  898.07        2957.00           1322         100.00       434.62
  898.10        2957.25           1326         104.00       452.05
  898.13        2957.50           1329          89.00       386.66
  898.15        2957.75           1332          92.00       399.74
  898.18        2958.00           1336          88.00       382.31
  898.21        2958.25           1339         100.00       434.62
  898.24        2958.50           1342          97.00       421.54
  898.27        2958.75           1345         104.00       452.05
  898.30        2959.00           1349          93.00       404.10
  898.33        2959.25           1352          93.00       404.10
  898.36        2959.50           1355          95.00       412.82
  898.39        2959.75           1359          91.00       395.38
  898.42        2960.00           1362          94.00       408.46
  898.45        2960.25           1365          95.00       412.82
  898.48        2960.50           1369         103.00       447.70
  898.51        2960.75           1372         105.00       456.41
  898.54        2961.00           1375         130.00       565.40
  898.57        2961.25           1379         143.00       622.07
  898.60        2961.50           1382         194.00       844.40
  898.63        2961.75           1385         796.00      3468.94
  898.66        2962.00           1389        3350.00     14607.77
  898.69        2962.25           1392        5709.00     24902.10
  898.72        2962.50           1395        8153.00     35573.39
  898.75        2962.75           1399       12235.00     53410.45
  898.78        2963.00           1402       15664.00     68407.41
  898.81        2963.25           1405       19163.00     83723.05
  898.84        2963.50           1409       23651.00    103386.30
  898.87        2963.75           1412       26619.00    116401.50
  898.90        2964.00           1415       29682.00    129842.80
  898.93        2964.25           1419       34206.00    149713.40
  898.96        2964.50           1422       37293.00    163284.60
  898.99        2964.75           1425       40258.00    176328.80
  899.02        2965.00           1429       45018.00    197289.20
  899.05        2965.25           1432       48590.00    213034.00
  899.08        2965.50           1435       51534.00    226020.70
  899.11        2965.75           1439       55762.00    244687.50
  899.14        2966.00           1442       58598.00    257219.20
  899.16        2966.25           1445       61756.00    271183.60
  899.19        2966.50           1449       65059.00    285800.70
  899.22        2966.75           1452       66476.00    292075.00
  899.25        2967.00           1455       67123.00    294940.50
  899.28        2967.25           1459       67022.00    294493.20
  899.31        2967.50           1462       67002.00    294404.60
  899.34        2967.75           1465       66862.00    293784.60
  899.37        2968.00           1469       65720.00    288727.30
  899.40        2968.25           1472       63547.00    279108.10
  899.43        2968.50           1475       60802.00    266964.00
  899.46        2968.75           1479       57161.00    250868.30
  899.49        2969.00           1482       53660.00    235404.70
  899.52        2969.25           1485       51189.00    224498.40
  899.55        2969.50           1489       47748.00    209321.40
  899.58        2969.75           1492       44741.00    196068.80
  899.61        2970.00           1495       41477.00    181694.30
  899.64        2970.25           1499       37446.00    163957.40
  899.67        2970.50           1502       33866.00    148219.30
  899.70        2970.75           1505       30240.00    132292.50
  899.73        2971.00           1509       26462.00    115712.70
  899.76        2971.25           1512       23458.00    102540.30
  899.79        2971.50           1515       20410.00     89184.42
  899.82        2971.75           1519       15849.00     69216.86
  899.85        2972.00           1522       12991.00     56715.82
  899.88        2972.25           1525       10618.00     46342.61
  899.91        2972.50           1529        6562.00     28625.87
  899.94        2972.75           1532        3725.00     16243.83
  899.97        2973.00           1535        1478.00      6442.71
  900.00        2973.25           1539         321.00      1398.05
  900.03        2973.50           1542         172.00       748.49
  900.06        2973.75           1546         148.00       643.86
  900.09        2974.00           1549         150.00       652.58
  900.12        2974.25           1552         119.00       517.44
  900.15        2974.50           1556         121.00       526.16
  900.18        2974.75           1559         112.00       486.93
  900.21        2975.00           1562         112.00       486.93
  900.23        2975.25           1566          88.00       382.31
  900.26        2975.50           1569         100.00       434.62
  900.29        2975.75           1572         102.00       443.34
  900.32        2976.00           1576          89.00       386.66
  900.35        2976.25           1579         101.00       438.98
  900.38        2976.50           1582          91.00       395.38
  900.41        2976.75           1586          89.00       386.66
  900.44        2977.00           1589          96.00       417.18
  900.47        2977.25           1592          89.00       386.66
  900.50        2977.50           1596          90.00       391.02
  900.53        2977.75           1599          87.00       377.95
  900.56        2978.00           1602          95.00       412.82
  900.59        2978.25           1606          93.00       404.10
  900.62        2978.50           1609         103.00       447.70
  900.65        2978.75           1612          94.00       408.46
  900.68        2979.00           1616          95.00       412.82
  900.71        2979.25           1619         101.00       438.98
  900.74        2979.50           1622          91.00       395.38
  900.77        2979.75           1626          85.00       369.23
  900.80        2980.00           1629          89.00       386.66
  900.83        2980.25           1632          83.00       360.51
  900.86        2980.50           1636          90.00       391.02
  900.89        2980.75           1639          92.00       399.74
  900.92        2981.00           1642          86.00       373.59
  900.95        2981.25           1646          80.00       347.43
  900.98        2981.50           1649          91.00       395.38
  901.01        2981.75           1653          95.00       412.82
  901.03        2982.00           1656          93.00       404.10
  901.06        2982.25           1659          88.00       382.31
  901.09        2982.50           1663          94.00       408.46
  901.12        2982.75           1666          79.00       343.07
  901.15        2983.00           1669          81.00       351.79
  901.18        2983.25           1673          85.00       369.23
  901.21        2983.50           1676          90.00       391.02
  901.24        2983.75           1679          85.00       369.23
  901.27        2984.00           1683          94.00       408.46
HS scan finished at 15:01:35
end
************************************************************
  HS Scan of (1) Internal mercury lamp
************************************************************
Integration time is 0.2294 seconds per sample
dh280318Delft 51.9969-4.3863 3.287017pr1000
************************************************************
Dead Time -------------------------  2.7E-08 
Number of Cycles Used -------------  4 
Starting Wavelength (Angstroms) ---  2950 
Final Wavelength (Angstoms) -------  2984 
Wavelength Increment (Angstroms) --  .25 
Filter Wheel #1 Position ---------- (1) Ground quartz diffuser (ND=2.32)
Filter Wheel #2 Position ---------- (1) Neutral Density 0.494



************************************************************
HS scan start time = 16:43:54
Dark Count =  .1 


Time (GMT)  Wavelength (Ang)  Step Number  Raw Counts  Counts/Second

 1004.35        2950.00           1229         100.00       435.49
 1004.45        2950.25           1232         106.00       461.64
 1004.48        2950.50           1236          93.00       404.97
 1004.51        2950.75           1239         101.00       439.85
 1004.54        2951.00           1242         106.00       461.64
 1004.57        2951.25           1246          98.00       426.77
 1004.60        2951.50           1249          95.00       413.69
 1004.63        2951.75           1252          95.00       413.69
 1004.66        2952.00           1256          98.00       426.77
 1004.69        2952.25           1259          91.00       396.26
 1004.72        2952.50           1262          95.00       413.69
 1004.75        2952.75           1266          96.00       418.05
 1004.78        2953.00           1269          85.00       370.10
 1004.81        2953.25           1272         102.00       444.21
 1004.84        2953.50           1276         104.00       452.93
 1004.87        2953.75           1279         107.00       466.00
 1004.90        2954.00           1282          94.00       409.33
 1004.93        2954.25           1286          94.00       409.33
 1004.96        2954.50           1289         108.00       470.36
 1004.99        2954.75           1292         108.00       470.36
 1005.02        2955.00           1296          92.00       400.61
 1005.05        2955.25           1299          90.00       391.90
 1005.08        2955.50           1302          95.00       413.69
 1005.10        2955.75           1306         104.00       452.93
 1005.13        2956.00           1309         100.00       435.49
 1005.16        2956.25           1312          95.00       413.69
 1005.19        2956.50           1316         104.00       452.93
 1005.22        2956.75           1319         102.00       444.21
 1005.25        2957.00           1322          89.00       387.54
 1005.28        2957.25           1326          94.00       409.33
 1005.31        2957.50           1329         102.00       444.21
 1005.34        2957.75           1332          93.00       404.97
 1005.37        2958.00           1336          96.00       418.05
 1005.40        2958.25           1339          93.00       404.97
 1005.43        2958.50           1342          89.00       387.54
 1005.46        2958.75           1345          94.00       409.33
 1005.49        2959.00           1349          96.00       418.05
 1005.52        2959.25           1352          94.00       409.33
 1005.55        2959.50           1355          84.00       365.74
 1005.58        2959.75           1359          98.00       426.77
 1005.61        2960.00           1362          96.00       418.05
 1005.64        2960.25           1365          97.00       422.41
 1005.67        2960.50           1369         107.00       466.00
 1005.70        2960.75           1372         110.00       479.08
 1005.73        2961.00           1375         127.00       553.19
 1005.76        2961.25           1379         128.00       557.55
 1005.79        2961.50           1382         186.00       810.39
 1005.82        2961.75           1385         784.00      3417.49
 1005.85        2962.00           1389        3021.00     13173.39
 1005.88        2962.25           1392        5623.00     24527.57
 1005.91        2962.50           1395        8212.00     35831.95
 1005.94        2962.75           1399       12212.00     53310.78
 1005.97        2963.00           1402       15183.00     66303.86
 1006.00        2963.25           1405       18639.00     81429.49
 1006.02        2963.50           1409       23438.00    102453.50
 1006.06        2963.75           1412       26564.00    116161.10
 1006.08        2964.00           1415       30146.00    131880.70
 1006.11        2964.25           1419       34344.00    150320.70
 1006.14        2964.50           1422       37663.00    164912.70
 1006.17        2964.75           1425       41047.00    179802.30
 1006.20        2965.00           1429       45018.00    197290.10
 1006.23        2965.25           1432       48141.00    211055.00
 1006.26        2965.50           1435       51173.00    224428.60
 1006.29        2965.75           1439       54735.00    240152.40
 1006.32        2966.00           1442       58000.00    254576.90
 1006.35        2966.25           1445       60570.00    265938.90
 1006.38        2966.50           1449       64832.00    284796.70
 1006.41        2966.75           1452       66468.00    292040.40
 1006.44        2967.00           1455       66872.00    293829.70
 1006.47        2967.25           1459       66980.00    294308.10
 1006.50        2967.50           1462       66972.00    294272.60
 1006.53        2967.75           1465       67078.00    294742.10
 1006.56        2968.00           1469       65867.00    289379.00
 1006.59        2968.25           1472       64261.00    282269.00
 1006.62        2968.50           1475       62145.00    272905.40
 1006.65        2968.75           1479       57905.00    254157.10
 1006.68        2969.00           1482       55555.00    243774.00
 1006.71        2969.25           1485       52069.00    228382.60
 1006.74        2969.50           1489       47505.00    208250.90
 1006.77        2969.75           1492       44208.00    193721.60
 1006.80        2970.00           1495       41092.00    180000.40
 1006.83        2970.25           1499       37308.00    163351.40
 1006.86        2970.50           1502       33671.00    147363.30
 1006.89        2970.75           1505       30183.00    132043.20
 1006.92        2971.00           1509       26357.00    115253.00
 1006.95        2971.25           1512       23693.00    103571.30
 1006.98        2971.50           1515       20750.00     90674.64
 1007.01        2971.75           1519       16587.00     72447.16
 1007.04        2972.00           1522       13015.00     56821.64
 1007.07        2972.25           1525        9662.00     42166.12
 1007.09        2972.50           1529        5560.00     24252.58
 1007.12        2972.75           1532        3121.00     13609.62
 1007.15        2973.00           1535        1420.00      6190.66
 1007.18        2973.25           1539         368.00      1603.82
 1007.21        2973.50           1542         186.00       810.39
 1007.24        2973.75           1546         138.00       601.14
 1007.27        2974.00           1549         126.00       548.83
 1007.30        2974.25           1552         121.00       527.03
 1007.33        2974.50           1556         119.00       518.32
 1007.36        2974.75           1559         110.00       479.08
 1007.39        2975.00           1562         108.00       470.36
 1007.42        2975.25           1566         104.00       452.93
 1007.45        2975.50           1569          84.00       365.74
 1007.48        2975.75           1572          94.00       409.33
 1007.51        2976.00           1576          92.00       400.61
 1007.54        2976.25           1579          99.00       431.13
 1007.57        2976.50           1582          94.00       409.33
 1007.60        2976.75           1586          92.00       400.61
 1007.63        2977.00           1589          95.00       413.69
 1007.66        2977.25           1592          94.00       409.33
 1007.69        2977.50           1596          91.00       396.26
 1007.72        2977.75           1599          89.00       387.54
 1007.75        2978.00           1602          95.00       413.69
 1007.78        2978.25           1606         100.00       435.49
 1007.81        2978.50           1609          88.00       383.18
 1007.84        2978.75           1612          86.00       374.46
 1007.87        2979.00           1616          91.00       396.26
 1007.90        2979.25           1619          98.00       426.77
 1007.93        2979.50           1622          93.00       404.97
 1007.96        2979.75           1626          91.00       396.26
 1007.99        2980.00           1629          91.00       396.26
 1008.02        2980.25           1632          85.00       370.10
 1008.05        2980.50           1636          98.00       426.77
 1008.08        2980.75           1639          94.00       409.33
 1008.11        2981.00           1642          84.00       365.74
 1008.14        2981.25           1646          82.00       357.02
 1008.17        2981.50           1649          94.00       409.33
 1008.20        2981.75           1653          95.00       413.69
 1008.23        2982.00           1656          88.00       383.18
 1008.26        2982.25           1659          79.00       343.94
 1008.29        2982.50           1663          79.00       343.94
 1008.32        2982.75           1666          78.00       339.58
 1008.35        2983.00           1669          74.00       322.15
 1008.38        2983.25           1673          81.00       352.66
 1008.41        2983.50           1676          83.00       361.38
 1008.44        2983.75           1679          81.00       352.66
 1008.47        2984.00           1683          92.00       400.61
HS scan finished at 16:48:46
end
