************************************************************
  HS Scan of (1) Internal mercury lamp
************************************************************
Integration time is 0.2294 seconds per sample
dh260318Delft 51.9969-4.3863 3.287017pr1000
************************************************************
Dead Time -------------------------  2.7E-08 
Number of Cycles Used -------------  4 
Starting Wavelength (Angstroms) ---  2950 
Final Wavelength (Angstoms) -------  2984 
Wavelength Increment (Angstroms) --  .25 
Filter Wheel #1 Position ---------- (1) Ground quartz diffuser (ND=2.32)
Filter Wheel #2 Position ---------- (1) Neutral Density 0.494



************************************************************
HS scan start time = 06:05:23
Dark Count =  .3 


Time (GMT)  Wavelength (Ang)  Step Number  Raw Counts  Counts/Second

  365.84        2950.00           1229         106.00       460.77
  365.95        2950.25           1232          96.00       417.18
  365.97        2950.50           1236         100.00       434.62
  366.00        2950.75           1239         103.00       447.70
  366.03        2951.00           1242          90.00       391.02
  366.06        2951.25           1246         108.00       469.49
  366.09        2951.50           1249         105.00       456.41
  366.12        2951.75           1252          99.00       430.26
  366.15        2952.00           1256         105.00       456.41
  366.18        2952.25           1259         103.00       447.70
  366.21        2952.50           1262          98.00       425.90
  366.24        2952.75           1266          96.00       417.18
  366.27        2953.00           1269         104.00       452.05
  366.30        2953.25           1272         101.00       438.98
  366.33        2953.50           1276          97.00       421.54
  366.36        2953.75           1279         104.00       452.05
  366.39        2954.00           1282         107.00       465.13
  366.42        2954.25           1286          99.00       430.26
  366.45        2954.50           1289         103.00       447.70
  366.48        2954.75           1292          94.00       408.46
  366.51        2955.00           1296         103.00       447.70
  366.54        2955.25           1299         104.00       452.05
  366.57        2955.50           1302          97.00       421.54
  366.60        2955.75           1306         102.00       443.34
  366.63        2956.00           1309         103.00       447.70
  366.66        2956.25           1312         111.00       482.57
  366.68        2956.50           1316          98.00       425.90
  366.71        2956.75           1319         109.00       473.85
  366.74        2957.00           1322          91.00       395.38
  366.77        2957.25           1326          99.00       430.26
  366.80        2957.50           1329         105.00       456.41
  366.83        2957.75           1332          95.00       412.82
  366.86        2958.00           1336          94.00       408.46
  366.89        2958.25           1339          93.00       404.10
  366.92        2958.50           1342          95.00       412.82
  366.95        2958.75           1345          87.00       377.95
  366.98        2959.00           1349          97.00       421.54
  367.01        2959.25           1352         100.00       434.62
  367.04        2959.50           1355         102.00       443.34
  367.07        2959.75           1359          97.00       421.54
  367.10        2960.00           1362          99.00       430.26
  367.13        2960.25           1365          99.00       430.26
  367.16        2960.50           1369         102.00       443.34
  367.19        2960.75           1372         113.00       491.29
  367.22        2961.00           1375         129.00       561.04
  367.25        2961.25           1379         130.00       565.40
  367.27        2961.50           1382         179.00       779.01
  367.30        2961.75           1385         531.00      2313.57
  367.33        2962.00           1389        2781.00     12125.59
  367.36        2962.25           1392        5238.00     22846.26
  367.39        2962.50           1395        8300.00     36215.43
  367.42        2962.75           1399       12295.00     53672.76
  367.45        2963.00           1402       15753.00     68796.81
  367.48        2963.25           1405       19313.00     84379.90
  367.51        2963.50           1409       23690.00    103557.20
  367.54        2963.75           1412       26358.00    115256.50
  367.57        2964.00           1415       29404.00    128622.50
  367.60        2964.25           1419       33660.00    147314.10
  367.63        2964.50           1422       36846.00    161318.80
  367.66        2964.75           1425       40315.00    176579.60
  367.69        2965.00           1429       44039.00    192976.30
  367.72        2965.25           1432       47113.00    206522.00
  367.75        2965.50           1435       50371.00    220889.30
  367.78        2965.75           1439       54690.00    239952.80
  367.81        2966.00           1442       58248.00    255672.10
  367.84        2966.25           1445       60719.00    266597.00
  367.87        2966.50           1449       64006.00    281139.50
  367.90        2966.75           1452       66089.00    290361.20
  367.93        2967.00           1455       66965.00    294240.80
  367.96        2967.25           1459       67568.00    296911.70
  367.99        2967.50           1462       67165.00    295126.60
  368.02        2967.75           1465       67214.00    295343.70
  368.05        2968.00           1469       66223.00    290954.60
  368.08        2968.25           1472       64255.00    282241.60
  368.10        2968.50           1475       61397.00    269595.70
  368.14        2968.75           1479       57704.00    253267.90
  368.17        2969.00           1482       54721.00    240089.70
  368.19        2969.25           1485       52120.00    228606.80
  368.23        2969.50           1489       48431.00    212332.90
  368.25        2969.75           1492       45406.00    198998.80
  368.28        2970.00           1495       42126.00    184551.60
  368.31        2970.25           1499       37324.00    163420.90
  368.34        2970.50           1502       34265.00    149972.70
  368.37        2970.75           1505       31119.00    136152.20
  368.40        2971.00           1509       27065.00    118358.00
  368.43        2971.25           1512       24147.00    105560.70
  368.46        2971.50           1515       20954.00     91567.42
  368.49        2971.75           1519       16634.00     72651.96
  368.52        2972.00           1522       13752.00     60043.64
  368.55        2972.25           1525       10849.00     47352.14
  368.58        2972.50           1529        7431.00     32420.26
  368.61        2972.75           1532        4561.00     19891.68
  368.64        2973.00           1535        1852.00      8073.69
  368.67        2973.25           1539         449.00      1956.08
  368.70        2973.50           1542         195.00       848.76
  368.73        2973.75           1546         147.00       639.51
  368.76        2974.00           1549         136.00       591.55
  368.79        2974.25           1552         131.00       569.76
  368.82        2974.50           1556         122.00       530.52
  368.85        2974.75           1559         114.00       495.65
  368.88        2975.00           1562         103.00       447.70
  368.91        2975.25           1566         104.00       452.05
  368.94        2975.50           1569         106.00       460.77
  368.97        2975.75           1572          93.00       404.10
  369.00        2976.00           1576          85.00       369.23
  369.03        2976.25           1579          91.00       395.38
  369.06        2976.50           1582          95.00       412.82
  369.08        2976.75           1586          95.00       412.82
  369.11        2977.00           1589         101.00       438.98
  369.14        2977.25           1592          90.00       391.02
  369.17        2977.50           1596          95.00       412.82
  369.20        2977.75           1599         101.00       438.98
  369.23        2978.00           1602          97.00       421.54
  369.26        2978.25           1606          84.00       364.87
  369.29        2978.50           1609          95.00       412.82
  369.32        2978.75           1612         106.00       460.77
  369.35        2979.00           1616         102.00       443.34
  369.38        2979.25           1619          88.00       382.31
  369.41        2979.50           1622          97.00       421.54
  369.44        2979.75           1626         102.00       443.34
  369.47        2980.00           1629          93.00       404.10
  369.50        2980.25           1632         101.00       438.98
  369.53        2980.50           1636          92.00       399.74
  369.56        2980.75           1639          85.00       369.23
  369.59        2981.00           1642          94.00       408.46
  369.62        2981.25           1646          98.00       425.90
  369.65        2981.50           1649          91.00       395.38
  369.67        2981.75           1653          89.00       386.66
  369.70        2982.00           1656          94.00       408.46
  369.73        2982.25           1659          90.00       391.02
  369.76        2982.50           1663          97.00       421.54
  369.79        2982.75           1666          83.00       360.51
  369.82        2983.00           1669          94.00       408.46
  369.85        2983.25           1673          93.00       404.10
  369.88        2983.50           1676          83.00       360.51
  369.91        2983.75           1679          88.00       382.31
  369.94        2984.00           1683          92.00       399.74
HS scan finished at 06:10:15
end
************************************************************
  HS Scan of (1) Internal mercury lamp
************************************************************
Integration time is 0.2294 seconds per sample
dh260318Delft 51.9969-4.3863 3.287017pr1000
************************************************************
Dead Time -------------------------  2.7E-08 
Number of Cycles Used -------------  4 
Starting Wavelength (Angstroms) ---  2950 
Final Wavelength (Angstoms) -------  2984 
Wavelength Increment (Angstroms) --  .25 
Filter Wheel #1 Position ---------- (1) Ground quartz diffuser (ND=2.32)
Filter Wheel #2 Position ---------- (1) Neutral Density 0.494



************************************************************
HS scan start time = 07:52:35
Dark Count =  .2 


Time (GMT)  Wavelength (Ang)  Step Number  Raw Counts  Counts/Second

  473.04        2950.00           1229         104.00       452.49
  473.14        2950.25           1232          95.00       413.26
  473.17        2950.50           1236          97.00       421.98
  473.20        2950.75           1239         103.00       448.13
  473.23        2951.00           1242         105.00       456.85
  473.26        2951.25           1246         105.00       456.85
  473.29        2951.50           1249         103.00       448.13
  473.32        2951.75           1252         107.00       465.57
  473.35        2952.00           1256         113.00       491.72
  473.38        2952.25           1259          96.00       417.62
  473.41        2952.50           1262         104.00       452.49
  473.44        2952.75           1266          93.00       404.54
  473.47        2953.00           1269          97.00       421.98
  473.50        2953.25           1272          92.00       400.18
  473.53        2953.50           1276          91.00       395.82
  473.56        2953.75           1279         103.00       448.13
  473.59        2954.00           1282         100.00       435.05
  473.62        2954.25           1286         110.00       478.65
  473.65        2954.50           1289         100.00       435.05
  473.68        2954.75           1292         102.00       443.77
  473.71        2955.00           1296         100.00       435.05
  473.74        2955.25           1299          97.00       421.98
  473.77        2955.50           1302          89.00       387.10
  473.80        2955.75           1306          98.00       426.33
  473.83        2956.00           1309         103.00       448.13
  473.86        2956.25           1312         100.00       435.05
  473.88        2956.50           1316         106.00       461.21
  473.91        2956.75           1319         108.00       469.93
  473.94        2957.00           1322          95.00       413.26
  473.97        2957.25           1326          97.00       421.98
  474.00        2957.50           1329          99.00       430.69
  474.03        2957.75           1332          90.00       391.46
  474.06        2958.00           1336          99.00       430.69
  474.09        2958.25           1339          98.00       426.33
  474.12        2958.50           1342         107.00       465.57
  474.15        2958.75           1345          98.00       426.33
  474.18        2959.00           1349         103.00       448.13
  474.21        2959.25           1352         105.00       456.85
  474.24        2959.50           1355          98.00       426.33
  474.27        2959.75           1359         105.00       456.85
  474.30        2960.00           1362          91.00       395.82
  474.33        2960.25           1365         103.00       448.13
  474.36        2960.50           1369         107.00       465.57
  474.39        2960.75           1372         107.00       465.57
  474.42        2961.00           1375         105.00       456.85
  474.45        2961.25           1379         120.00       522.24
  474.48        2961.50           1382         172.00       748.93
  474.51        2961.75           1385         622.00      2710.75
  474.53        2962.00           1389        2765.00     12056.24
  474.56        2962.25           1392        5414.00     23614.88
  474.59        2962.50           1395        8506.00     37115.64
  474.62        2962.75           1399       12420.00     54219.68
  474.65        2963.00           1402       15163.00     66215.93
  474.68        2963.25           1405       18291.00     79905.43
  474.71        2963.50           1409       22810.00     99700.46
  474.74        2963.75           1412       26374.00    115327.20
  474.77        2964.00           1415       29827.00    130479.80
  474.80        2964.25           1419       33603.00    147064.10
  474.83        2964.50           1422       36768.00    160976.30
  474.86        2964.75           1425       39729.00    174001.30
  474.89        2965.00           1429       44232.00    193826.90
  474.92        2965.25           1432       47742.00    209295.40
  474.95        2965.50           1435       50562.00    221732.40
  474.98        2965.75           1439       54373.00    238553.40
  475.01        2966.00           1442       57778.00    253595.40
  475.04        2966.25           1445       60945.00    267596.90
  475.07        2966.50           1449       64645.00    283968.40
  475.10        2966.75           1452       66492.00    292146.30
  475.13        2967.00           1455       67282.00    295645.30
  475.16        2967.25           1459       67455.00    296411.60
  475.19        2967.50           1462       67458.00    296424.90
  475.22        2967.75           1465       67459.00    296429.30
  475.25        2968.00           1469       65873.00    289405.20
  475.28        2968.25           1472       63620.00    279431.60
  475.31        2968.50           1475       61264.00    269007.80
  475.34        2968.75           1479       58349.00    256119.00
  475.37        2969.00           1482       55050.00    241543.10
  475.40        2969.25           1485       52130.00    228651.40
  475.43        2969.50           1489       47825.00    209661.30
  475.46        2969.75           1492       44192.00    193650.70
  475.49        2970.00           1495       41646.00    182438.80
  475.52        2970.25           1499       37390.00    163711.60
  475.54        2970.50           1502       34611.00    151493.70
  475.58        2970.75           1505       30921.00    135283.10
  475.60        2971.00           1509       26551.00    116103.60
  475.64        2971.25           1512       24231.00    105929.40
  475.67        2971.50           1515       21230.00     92777.02
  475.70        2971.75           1519       17302.00     75576.04
  475.73        2972.00           1522       14291.00     62401.47
  475.76        2972.25           1525       10712.00     46753.84
  475.78        2972.50           1529        6577.00     28691.79
  475.81        2972.75           1532        3525.00     15371.68
  475.84        2973.00           1535        1556.00      6783.28
  475.87        2973.25           1539         420.00      1830.08
  475.90        2973.50           1542         198.00       862.27
  475.93        2973.75           1546         153.00       666.10
  475.96        2974.00           1549         137.00       596.35
  475.99        2974.25           1552         123.00       535.32
  476.02        2974.50           1556         112.00       487.36
  476.05        2974.75           1559         108.00       469.93
  476.08        2975.00           1562         109.00       474.29
  476.11        2975.25           1566         100.00       435.05
  476.14        2975.50           1569          99.00       430.69
  476.17        2975.75           1572          97.00       421.98
  476.20        2976.00           1576          97.00       421.98
  476.23        2976.25           1579          91.00       395.82
  476.26        2976.50           1582          94.00       408.90
  476.29        2976.75           1586          90.00       391.46
  476.32        2977.00           1589         105.00       456.85
  476.35        2977.25           1592          94.00       408.90
  476.37        2977.50           1596          89.00       387.10
  476.40        2977.75           1599          85.00       369.66
  476.43        2978.00           1602         107.00       465.57
  476.46        2978.25           1606          95.00       413.26
  476.49        2978.50           1609          90.00       391.46
  476.52        2978.75           1612          94.00       408.90
  476.55        2979.00           1616          91.00       395.82
  476.58        2979.25           1619          95.00       413.26
  476.61        2979.50           1622          81.00       352.23
  476.64        2979.75           1626          88.00       382.74
  476.67        2980.00           1629          94.00       408.90
  476.70        2980.25           1632          94.00       408.90
  476.73        2980.50           1636          83.00       360.95
  476.76        2980.75           1639          95.00       413.26
  476.79        2981.00           1642          97.00       421.98
  476.82        2981.25           1646          92.00       400.18
  476.85        2981.50           1649          90.00       391.46
  476.88        2981.75           1653          83.00       360.95
  476.91        2982.00           1656          89.00       387.10
  476.94        2982.25           1659          89.00       387.10
  476.96        2982.50           1663          89.00       387.10
  476.99        2982.75           1666          85.00       369.66
  477.02        2983.00           1669          83.00       360.95
  477.05        2983.25           1673          88.00       382.74
  477.08        2983.50           1676          87.00       378.38
  477.11        2983.75           1679          75.00       326.07
  477.14        2984.00           1683          90.00       391.46
HS scan finished at 07:57:27
end
************************************************************
  HS Scan of (1) Internal mercury lamp
************************************************************
Integration time is 0.2294 seconds per sample
dh260318Delft 51.9969-4.3863 3.287017pr1000
************************************************************
Dead Time -------------------------  2.7E-08 
Number of Cycles Used -------------  4 
Starting Wavelength (Angstroms) ---  2950 
Final Wavelength (Angstoms) -------  2984 
Wavelength Increment (Angstroms) --  .25 
Filter Wheel #1 Position ---------- (1) Ground quartz diffuser (ND=2.32)
Filter Wheel #2 Position ---------- (1) Neutral Density 0.494



************************************************************
HS scan start time = 09:39:47
Dark Count =  .3 


Time (GMT)  Wavelength (Ang)  Step Number  Raw Counts  Counts/Second

  580.24        2950.00           1229          93.00       404.10
  580.34        2950.25           1232          90.00       391.02
  580.37        2950.50           1236         101.00       438.98
  580.40        2950.75           1239         104.00       452.05
  580.43        2951.00           1242         101.00       438.98
  580.46        2951.25           1246         102.00       443.34
  580.49        2951.50           1249         103.00       447.70
  580.52        2951.75           1252          96.00       417.18
  580.55        2952.00           1256          99.00       430.26
  580.58        2952.25           1259         102.00       443.34
  580.61        2952.50           1262         104.00       452.05
  580.63        2952.75           1266          93.00       404.10
  580.66        2953.00           1269          90.00       391.02
  580.69        2953.25           1272          95.00       412.82
  580.72        2953.50           1276          91.00       395.38
  580.75        2953.75           1279         102.00       443.34
  580.78        2954.00           1282          98.00       425.90
  580.81        2954.25           1286          93.00       404.10
  580.84        2954.50           1289          95.00       412.82
  580.87        2954.75           1292          95.00       412.82
  580.90        2955.00           1296         107.00       465.13
  580.93        2955.25           1299         102.00       443.34
  580.96        2955.50           1302          99.00       430.26
  580.99        2955.75           1306         105.00       456.41
  581.02        2956.00           1309         109.00       473.85
  581.05        2956.25           1312          98.00       425.90
  581.08        2956.50           1316          92.00       399.74
  581.11        2956.75           1319         100.00       434.62
  581.14        2957.00           1322         102.00       443.34
  581.17        2957.25           1326          99.00       430.26
  581.20        2957.50           1329          96.00       417.18
  581.23        2957.75           1332         103.00       447.70
  581.26        2958.00           1336         106.00       460.77
  581.29        2958.25           1339          95.00       412.82
  581.32        2958.50           1342         100.00       434.62
  581.34        2958.75           1345          95.00       412.82
  581.37        2959.00           1349          93.00       404.10
  581.40        2959.25           1352          87.00       377.95
  581.43        2959.50           1355         102.00       443.34
  581.46        2959.75           1359         100.00       434.62
  581.49        2960.00           1362          94.00       408.46
  581.52        2960.25           1365         103.00       447.70
  581.55        2960.50           1369         107.00       465.13
  581.58        2960.75           1372         111.00       482.57
  581.61        2961.00           1375         118.00       513.08
  581.64        2961.25           1379         139.00       604.63
  581.67        2961.50           1382         204.00       887.99
  581.70        2961.75           1385         839.00      3656.42
  581.73        2962.00           1389        2839.00     12378.59
  581.76        2962.25           1392        4840.00     21109.24
  581.79        2962.50           1395        7791.00     33992.39
  581.82        2962.75           1399       11713.00     51128.51
  581.85        2963.00           1402       15595.00     68105.51
  581.88        2963.25           1405       19005.00     83031.19
  581.91        2963.50           1409       22704.00     99235.46
  581.94        2963.75           1412       26160.00    114388.10
  581.97        2964.00           1415       29680.00    129834.00
  582.00        2964.25           1419       34255.00    149928.70
  582.03        2964.50           1422       37296.00    163297.70
  582.06        2964.75           1425       40187.00    176016.30
  582.09        2965.00           1429       44155.00    193487.30
  582.12        2965.25           1432       48069.00    210736.70
  582.15        2965.50           1435       51079.00    224013.00
  582.18        2965.75           1439       55053.00    241555.90
  582.21        2966.00           1442       58593.00    257197.10
  582.23        2966.25           1445       61774.00    271263.30
  582.26        2966.50           1449       65410.00    287354.70
  582.29        2966.75           1452       66775.00    293399.20
  582.32        2967.00           1455       67435.00    296322.60
  582.35        2967.25           1459       67768.00    297797.70
  582.38        2967.50           1462       67597.00    297040.20
  582.41        2967.75           1465       67534.00    296761.10
  582.44        2968.00           1469       66453.00    291973.20
  582.47        2968.25           1472       64571.00    283640.40
  582.50        2968.50           1475       61415.00    269675.30
  582.53        2968.75           1479       57365.00    251769.80
  582.56        2969.00           1482       54436.00    238831.10
  582.59        2969.25           1485       51467.00    225725.10
  582.62        2969.50           1489       47441.00    207967.90
  582.65        2969.75           1492       44515.00    195073.10
  582.68        2970.00           1495       41087.00    179977.50
  582.71        2970.25           1499       37217.00    162950.30
  582.74        2970.50           1502       34523.00    151106.50
  582.77        2970.75           1505       31378.00    137289.60
  582.80        2971.00           1509       27295.00    119367.10
  582.83        2971.25           1512       23813.00    104096.40
  582.86        2971.50           1515       20724.00     90559.87
  582.89        2971.75           1519       16553.00     72297.49
  582.92        2972.00           1522       13479.00     58849.76
  582.95        2972.25           1525       10718.00     46779.63
  582.98        2972.50           1529        6830.00     29795.98
  583.01        2972.75           1532        3735.00     16287.46
  583.04        2973.00           1535        1604.00      6992.17
  583.07        2973.25           1539         527.00      2296.13
  583.10        2973.50           1542         213.00       927.22
  583.13        2973.75           1546         156.00       678.74
  583.15        2974.00           1549         128.00       556.68
  583.18        2974.25           1552         122.00       530.52
  583.21        2974.50           1556         114.00       495.65
  583.24        2974.75           1559         106.00       460.77
  583.27        2975.00           1562         107.00       465.13
  583.30        2975.25           1566         104.00       452.05
  583.33        2975.50           1569         105.00       456.41
  583.36        2975.75           1572          96.00       417.18
  583.39        2976.00           1576          88.00       382.31
  583.42        2976.25           1579          99.00       430.26
  583.45        2976.50           1582         100.00       434.62
  583.48        2976.75           1586          95.00       412.82
  583.51        2977.00           1589         101.00       438.98
  583.54        2977.25           1592          90.00       391.02
  583.57        2977.50           1596          85.00       369.23
  583.60        2977.75           1599          95.00       412.82
  583.63        2978.00           1602          91.00       395.38
  583.66        2978.25           1606          92.00       399.74
  583.69        2978.50           1609          90.00       391.02
  583.72        2978.75           1612          92.00       399.74
  583.75        2979.00           1616          90.00       391.02
  583.78        2979.25           1619          90.00       391.02
  583.80        2979.50           1622          89.00       386.66
  583.83        2979.75           1626          84.00       364.87
  583.86        2980.00           1629          85.00       369.23
  583.89        2980.25           1632          86.00       373.59
  583.92        2980.50           1636          83.00       360.51
  583.95        2980.75           1639          90.00       391.02
  583.98        2981.00           1642          89.00       386.66
  584.01        2981.25           1646          93.00       404.10
  584.04        2981.50           1649          92.00       399.74
  584.07        2981.75           1653          85.00       369.23
  584.10        2982.00           1656          85.00       369.23
  584.13        2982.25           1659          95.00       412.82
  584.16        2982.50           1663          96.00       417.18
  584.19        2982.75           1666          91.00       395.38
  584.22        2983.00           1669          89.00       386.66
  584.25        2983.25           1673          81.00       351.79
  584.28        2983.50           1676          82.00       356.15
  584.31        2983.75           1679          91.00       395.38
  584.33        2984.00           1683          83.00       360.51
HS scan finished at 09:44:39
end
