************************************************************
  HS Scan of (1) Internal mercury lamp
************************************************************
Integration time is 0.2294 seconds per sample
dh250318Delft 51.9969-4.3863 3.287017pr1000
************************************************************
Dead Time -------------------------  2.7E-08 
Number of Cycles Used -------------  4 
Starting Wavelength (Angstroms) ---  2950 
Final Wavelength (Angstoms) -------  2984 
Wavelength Increment (Angstroms) --  .25 
Filter Wheel #1 Position ---------- (1) Ground quartz diffuser (ND=2.32)
Filter Wheel #2 Position ---------- (1) Neutral Density 0.494



************************************************************
HS scan start time = 06:07:42
Dark Count =  .3 


Time (GMT)  Wavelength (Ang)  Step Number  Raw Counts  Counts/Second

  368.15        2950.00           1229         104.00       452.05
  368.25        2950.25           1232         101.00       438.98
  368.28        2950.50           1236         106.00       460.77
  368.31        2950.75           1239         102.00       443.34
  368.34        2951.00           1242          97.00       421.54
  368.37        2951.25           1246         107.00       465.13
  368.40        2951.50           1249         100.00       434.62
  368.43        2951.75           1252         101.00       438.98
  368.46        2952.00           1256          99.00       430.26
  368.49        2952.25           1259          97.00       421.54
  368.52        2952.50           1262          99.00       430.26
  368.55        2952.75           1266         107.00       465.13
  368.57        2953.00           1269         102.00       443.34
  368.60        2953.25           1272         101.00       438.98
  368.63        2953.50           1276          98.00       425.90
  368.66        2953.75           1279         106.00       460.77
  368.69        2954.00           1282         106.00       460.77
  368.72        2954.25           1286          92.00       399.74
  368.75        2954.50           1289         105.00       456.41
  368.78        2954.75           1292         102.00       443.34
  368.81        2955.00           1296          96.00       417.18
  368.84        2955.25           1299         103.00       447.70
  368.87        2955.50           1302         106.00       460.77
  368.90        2955.75           1306          99.00       430.26
  368.93        2956.00           1309         111.00       482.57
  368.96        2956.25           1312          96.00       417.18
  368.99        2956.50           1316         106.00       460.77
  369.02        2956.75           1319          97.00       421.54
  369.05        2957.00           1322         100.00       434.62
  369.08        2957.25           1326         109.00       473.85
  369.11        2957.50           1329         100.00       434.62
  369.14        2957.75           1332         103.00       447.70
  369.17        2958.00           1336         102.00       443.34
  369.20        2958.25           1339          99.00       430.26
  369.23        2958.50           1342          92.00       399.74
  369.26        2958.75           1345         112.00       486.93
  369.29        2959.00           1349         101.00       438.98
  369.32        2959.25           1352         100.00       434.62
  369.35        2959.50           1355          92.00       399.74
  369.37        2959.75           1359          95.00       412.82
  369.40        2960.00           1362         100.00       434.62
  369.43        2960.25           1365         104.00       452.05
  369.46        2960.50           1369         110.00       478.21
  369.49        2960.75           1372         112.00       486.93
  369.52        2961.00           1375         116.00       504.37
  369.55        2961.25           1379         129.00       561.04
  369.58        2961.50           1382         176.00       765.93
  369.61        2961.75           1385         549.00      2392.05
  369.64        2962.00           1389        2669.00     11637.05
  369.67        2962.25           1392        5285.00     23051.40
  369.70        2962.50           1395        7979.00     34813.45
  369.73        2962.75           1399       11366.00     49611.75
  369.76        2963.00           1402       14661.00     64019.46
  369.79        2963.25           1405       18204.00     79524.10
  369.82        2963.50           1409       23084.00    100900.90
  369.85        2963.75           1412       26571.00    116190.90
  369.88        2964.00           1415       29373.00    128486.40
  369.91        2964.25           1419       33175.00    145183.10
  369.94        2964.50           1422       36838.00    161283.60
  369.97        2964.75           1425       40104.00    175651.00
  370.00        2965.00           1429       44439.00    194738.30
  370.03        2965.25           1432       48212.00    211367.20
  370.06        2965.50           1435       51159.00    224366.00
  370.09        2965.75           1439       55605.00    243994.00
  370.12        2966.00           1442       58922.00    258651.40
  370.15        2966.25           1445       61859.00    271639.30
  370.17        2966.50           1449       65412.00    287363.50
  370.20        2966.75           1452       67111.00    294887.40
  370.23        2967.00           1455       67723.00    297598.40
  370.26        2967.25           1459       67969.00    298688.10
  370.29        2967.50           1462       67875.00    298271.70
  370.32        2967.75           1465       67755.00    297740.10
  370.35        2968.00           1469       66285.00    291229.20
  370.38        2968.25           1472       64805.00    284676.20
  370.41        2968.50           1475       62312.00    273643.40
  370.44        2968.75           1479       58417.00    256419.10
  370.47        2969.00           1482       55278.00    242549.70
  370.50        2969.25           1485       51848.00    227406.40
  370.53        2969.50           1489       48581.00    212994.30
  370.56        2969.75           1492       45929.00    201303.50
  370.59        2970.00           1495       42799.00    187515.00
  370.62        2970.25           1499       38604.00    169051.00
  370.65        2970.50           1502       35086.00    153581.10
  370.68        2970.75           1505       31907.00    139612.90
  370.71        2971.00           1509       27087.00    118454.50
  370.74        2971.25           1512       24188.00    105740.40
  370.77        2971.50           1515       21540.00     94134.77
  370.80        2971.75           1519       17335.00     75720.03
  370.83        2972.00           1522       13872.00     60568.46
  370.86        2972.25           1525       10696.00     46683.48
  370.89        2972.50           1529        7516.00     32791.45
  370.92        2972.75           1532        4632.00     20201.51
  370.95        2973.00           1535        2159.00      9412.59
  370.98        2973.25           1539         508.00      2213.30
  371.01        2973.50           1542         198.00       861.83
  371.04        2973.75           1546         159.00       691.82
  371.07        2974.00           1549         147.00       639.51
  371.10        2974.25           1552         138.00       600.27
  371.13        2974.50           1556         123.00       534.88
  371.15        2974.75           1559         111.00       482.57
  371.18        2975.00           1562         103.00       447.70
  371.21        2975.25           1566         108.00       469.49
  371.24        2975.50           1569         101.00       438.98
  371.27        2975.75           1572          94.00       408.46
  371.30        2976.00           1576          90.00       391.02
  371.33        2976.25           1579          98.00       425.90
  371.36        2976.50           1582          98.00       425.90
  371.39        2976.75           1586          95.00       412.82
  371.42        2977.00           1589          91.00       395.38
  371.45        2977.25           1592          92.00       399.74
  371.48        2977.50           1596          92.00       399.74
  371.51        2977.75           1599          95.00       412.82
  371.54        2978.00           1602          92.00       399.74
  371.57        2978.25           1606          97.00       421.54
  371.60        2978.50           1609          95.00       412.82
  371.63        2978.75           1612          96.00       417.18
  371.66        2979.00           1616          97.00       421.54
  371.69        2979.25           1619         108.00       469.49
  371.72        2979.50           1622          97.00       421.54
  371.75        2979.75           1626          86.00       373.59
  371.78        2980.00           1629          90.00       391.02
  371.80        2980.25           1632          92.00       399.74
  371.84        2980.50           1636          96.00       417.18
  371.87        2980.75           1639          91.00       395.38
  371.90        2981.00           1642          94.00       408.46
  371.92        2981.25           1646          86.00       373.59
  371.95        2981.50           1649          89.00       386.66
  371.98        2981.75           1653          98.00       425.90
  372.01        2982.00           1656          85.00       369.23
  372.04        2982.25           1659          85.00       369.23
  372.07        2982.50           1663          90.00       391.02
  372.10        2982.75           1666          88.00       382.31
  372.13        2983.00           1669          74.00       321.28
  372.16        2983.25           1673          90.00       391.02
  372.19        2983.50           1676          90.00       391.02
  372.22        2983.75           1679          88.00       382.31
  372.25        2984.00           1683          89.00       386.66
HS scan finished at 06:12:33
end
************************************************************
  HS Scan of (1) Internal mercury lamp
************************************************************
Integration time is 0.2294 seconds per sample
dh250318Delft 51.9969-4.3863 3.233369pr1000
************************************************************
Dead Time -------------------------  2.7E-08 
Number of Cycles Used -------------  4 
Starting Wavelength (Angstroms) ---  2950 
Final Wavelength (Angstoms) -------  2984 
Wavelength Increment (Angstroms) --  .25 
Filter Wheel #1 Position ---------- (1) Ground quartz diffuser (ND=2.32)
Filter Wheel #2 Position ---------- (1) Neutral Density 0.494



************************************************************
HS scan start time = 07:54:55
Dark Count =  .3 


Time (GMT)  Wavelength (Ang)  Step Number  Raw Counts  Counts/Second

  475.37        2950.00           1229          98.00       425.90
  475.47        2950.25           1232          99.00       430.26
  475.50        2950.50           1236         100.00       434.62
  475.52        2950.75           1239         105.00       456.41
  475.56        2951.00           1242          98.00       425.90
  475.58        2951.25           1246         101.00       438.98
  475.61        2951.50           1249         111.00       482.57
  475.64        2951.75           1252         110.00       478.21
  475.67        2952.00           1256         102.00       443.34
  475.70        2952.25           1259         109.00       473.85
  475.73        2952.50           1262          96.00       417.18
  475.76        2952.75           1266         107.00       465.13
  475.79        2953.00           1269         102.00       443.34
  475.82        2953.25           1272          98.00       425.90
  475.85        2953.50           1276         101.00       438.98
  475.88        2953.75           1279          97.00       421.54
  475.91        2954.00           1282         108.00       469.49
  475.94        2954.25           1286          97.00       421.54
  475.97        2954.50           1289          97.00       421.54
  476.00        2954.75           1292         101.00       438.98
  476.03        2955.00           1296         103.00       447.70
  476.06        2955.25           1299          99.00       430.26
  476.09        2955.50           1302          97.00       421.54
  476.12        2955.75           1306         109.00       473.85
  476.15        2956.00           1309         106.00       460.77
  476.18        2956.25           1312          94.00       408.46
  476.21        2956.50           1316         100.00       434.62
  476.24        2956.75           1319         103.00       447.70
  476.26        2957.00           1322         104.00       452.05
  476.29        2957.25           1326         113.00       491.29
  476.32        2957.50           1329         102.00       443.34
  476.35        2957.75           1332          97.00       421.54
  476.38        2958.00           1336         104.00       452.05
  476.41        2958.25           1339          94.00       408.46
  476.44        2958.50           1342         105.00       456.41
  476.47        2958.75           1345          96.00       417.18
  476.50        2959.00           1349         101.00       438.98
  476.53        2959.25           1352         109.00       473.85
  476.56        2959.50           1355          99.00       430.26
  476.59        2959.75           1359         104.00       452.05
  476.62        2960.00           1362          98.00       425.90
  476.65        2960.25           1365         103.00       447.70
  476.68        2960.50           1369         107.00       465.13
  476.71        2960.75           1372         107.00       465.13
  476.74        2961.00           1375         124.00       539.24
  476.77        2961.25           1379         145.00       630.79
  476.80        2961.50           1382         220.00       957.74
  476.83        2961.75           1385         843.00      3673.86
  476.86        2962.00           1389        3065.00     13364.45
  476.89        2962.25           1392        5609.00     24465.59
  476.92        2962.50           1395        8681.00     37879.61
  476.95        2962.75           1399       12930.00     56449.10
  476.98        2963.00           1402       15884.00     69370.01
  477.01        2963.25           1405       18710.00     81739.48
  477.04        2963.50           1409       23523.00    102825.20
  477.07        2963.75           1412       26992.00    118037.80
  477.09        2964.00           1415       30190.00    132073.00
  477.12        2964.25           1419       34932.00    152904.10
  477.15        2964.50           1422       38056.00    166640.40
  477.18        2964.75           1425       41400.00    181355.30
  477.21        2965.00           1429       45956.00    201422.40
  477.25        2965.25           1432       48903.00    214414.30
  477.27        2965.50           1435       52349.00    229617.50
  477.30        2965.75           1439       55543.00    243720.20
  477.33        2966.00           1442       58397.00    256330.70
  477.36        2966.25           1445       61805.00    271400.50
  477.39        2966.50           1449       65389.00    287261.70
  477.42        2966.75           1452       67023.00    294497.60
  477.45        2967.00           1455       67666.00    297345.90
  477.48        2967.25           1459       67540.00    296787.70
  477.51        2967.50           1462       67797.00    297926.20
  477.54        2967.75           1465       67712.00    297549.60
  477.57        2968.00           1469       66235.00    291007.80
  477.60        2968.25           1472       64239.00    282170.80
  477.63        2968.50           1475       62116.00    272776.30
  477.66        2968.75           1479       58479.00    256693.20
  477.69        2969.00           1482       55742.00    244599.20
  477.72        2969.25           1485       52225.00    229070.20
  477.75        2969.50           1489       48103.00    210886.50
  477.78        2969.75           1492       44836.00    196487.30
  477.81        2970.00           1495       41011.00    179643.00
  477.84        2970.25           1499       37345.00    163513.20
  477.87        2970.50           1502       34208.00    149722.20
  477.90        2970.75           1505       30634.00    134022.50
  477.93        2971.00           1509       26150.00    114344.20
  477.96        2971.25           1512       23314.00    101909.10
  477.99        2971.50           1515       20749.00     90669.38
  478.02        2971.75           1519       16640.00     72678.22
  478.05        2972.00           1522       13432.00     58644.23
  478.08        2972.25           1525       10132.00     44218.85
  478.11        2972.50           1529        5587.00     24369.56
  478.14        2972.75           1532        3072.00     13394.99
  478.17        2973.00           1535        1344.00      5858.38
  478.19        2973.25           1539         347.00      1511.40
  478.22        2973.50           1542         197.00       857.47
  478.26        2973.75           1546         149.00       648.22
  478.28        2974.00           1549         149.00       648.22
  478.31        2974.25           1552         125.00       543.60
  478.34        2974.50           1556         121.00       526.16
  478.37        2974.75           1559         125.00       543.60
  478.40        2975.00           1562         113.00       491.29
  478.43        2975.25           1566         106.00       460.77
  478.46        2975.50           1569          97.00       421.54
  478.49        2975.75           1572          98.00       425.90
  478.52        2976.00           1576          99.00       430.26
  478.55        2976.25           1579          99.00       430.26
  478.58        2976.50           1582          96.00       417.18
  478.61        2976.75           1586          98.00       425.90
  478.64        2977.00           1589          94.00       408.46
  478.67        2977.25           1592          91.00       395.38
  478.70        2977.50           1596          86.00       373.59
  478.73        2977.75           1599          98.00       425.90
  478.76        2978.00           1602          92.00       399.74
  478.79        2978.25           1606          95.00       412.82
  478.82        2978.50           1609          95.00       412.82
  478.85        2978.75           1612          91.00       395.38
  478.88        2979.00           1616          88.00       382.31
  478.91        2979.25           1619          88.00       382.31
  478.93        2979.50           1622          94.00       408.46
  478.96        2979.75           1626          94.00       408.46
  478.99        2980.00           1629          94.00       408.46
  479.02        2980.25           1632          92.00       399.74
  479.05        2980.50           1636          94.00       408.46
  479.08        2980.75           1639          92.00       399.74
  479.11        2981.00           1642          98.00       425.90
  479.14        2981.25           1646          87.00       377.95
  479.17        2981.50           1649          98.00       425.90
  479.20        2981.75           1653          92.00       399.74
  479.23        2982.00           1656          82.00       356.15
  479.26        2982.25           1659          94.00       408.46
  479.29        2982.50           1663         100.00       434.62
  479.32        2982.75           1666          80.00       347.43
  479.35        2983.00           1669          98.00       425.90
  479.38        2983.25           1673          88.00       382.31
  479.41        2983.50           1676          79.00       343.07
  479.44        2983.75           1679          87.00       377.95
  479.47        2984.00           1683          89.00       386.66
HS scan finished at 07:59:47
end
************************************************************
  HS Scan of (1) Internal mercury lamp
************************************************************
Integration time is 0.2294 seconds per sample
dh250318Delft 51.9969-4.3863 3.233369pr1000
************************************************************
Dead Time -------------------------  2.7E-08 
Number of Cycles Used -------------  4 
Starting Wavelength (Angstroms) ---  2950 
Final Wavelength (Angstoms) -------  2984 
Wavelength Increment (Angstroms) --  .25 
Filter Wheel #1 Position ---------- (1) Ground quartz diffuser (ND=2.32)
Filter Wheel #2 Position ---------- (1) Neutral Density 0.494



************************************************************
HS scan start time = 09:42:06
Dark Count =  .4 


Time (GMT)  Wavelength (Ang)  Step Number  Raw Counts  Counts/Second

  582.56        2950.00           1229         106.00       460.34
  582.66        2950.25           1232         104.00       451.62
  582.69        2950.50           1236         101.00       438.54
  582.72        2950.75           1239         105.00       455.98
  582.75        2951.00           1242          98.00       425.46
  582.78        2951.25           1246         103.00       447.26
  582.81        2951.50           1249          97.00       421.10
  582.84        2951.75           1252          97.00       421.10
  582.87        2952.00           1256         101.00       438.54
  582.89        2952.25           1259         100.00       434.18
  582.92        2952.50           1262         107.00       464.70
  582.95        2952.75           1266         102.00       442.90
  582.98        2953.00           1269         107.00       464.70
  583.01        2953.25           1272         103.00       447.26
  583.04        2953.50           1276          97.00       421.10
  583.07        2953.75           1279          99.00       429.82
  583.10        2954.00           1282         105.00       455.98
  583.13        2954.25           1286         101.00       438.54
  583.16        2954.50           1289          98.00       425.46
  583.19        2954.75           1292          91.00       394.95
  583.22        2955.00           1296         111.00       482.13
  583.25        2955.25           1299          97.00       421.10
  583.28        2955.50           1302         109.00       473.41
  583.31        2955.75           1306         101.00       438.54
  583.34        2956.00           1309          97.00       421.10
  583.37        2956.25           1312         100.00       434.18
  583.40        2956.50           1316         104.00       451.62
  583.43        2956.75           1319          99.00       429.82
  583.46        2957.00           1322          97.00       421.10
  583.49        2957.25           1326         110.00       477.77
  583.52        2957.50           1329         101.00       438.54
  583.55        2957.75           1332         102.00       442.90
  583.58        2958.00           1336         104.00       451.62
  583.60        2958.25           1339         100.00       434.18
  583.64        2958.50           1342         109.00       473.41
  583.67        2958.75           1345         100.00       434.18
  583.69        2959.00           1349         113.00       490.85
  583.72        2959.25           1352         104.00       451.62
  583.75        2959.50           1355         112.00       486.49
  583.78        2959.75           1359         110.00       477.77
  583.81        2960.00           1362         101.00       438.54
  583.84        2960.25           1365         101.00       438.54
  583.87        2960.50           1369         113.00       490.85
  583.90        2960.75           1372         123.00       534.45
  583.93        2961.00           1375         124.00       538.80
  583.96        2961.25           1379         144.00       625.99
  583.99        2961.50           1382         237.00      1031.42
  584.02        2961.75           1385         854.00      3721.39
  584.05        2962.00           1389        2943.00     12831.82
  584.08        2962.25           1392        5682.00     24783.80
  584.11        2962.50           1395        8706.00     37988.38
  584.14        2962.75           1399       12976.00     56649.80
  584.17        2963.00           1402       16761.00     73207.33
  584.20        2963.25           1405       19774.00     86398.34
  584.23        2963.50           1409       24290.00    106187.20
  584.26        2963.75           1412       27700.00    121143.60
  584.29        2964.00           1415       30985.00    135563.30
  584.32        2964.25           1419       35363.00    154798.20
  584.35        2964.50           1422       38403.00    168166.40
  584.38        2964.75           1425       40728.00    178396.90
  584.41        2965.00           1429       45200.00    198090.70
  584.44        2965.25           1432       48165.00    211159.50
  584.47        2965.50           1435       51284.00    224917.10
  584.50        2965.75           1439       55485.00    243463.50
  584.53        2966.00           1442       58157.00    255269.50
  584.56        2966.25           1445       61499.00    270046.40
  584.58        2966.50           1449       65026.00    285654.20
  584.61        2966.75           1452       66869.00    293815.10
  584.64        2967.00           1455       67425.00    296277.80
  584.67        2967.25           1459       67260.00    295547.00
  584.70        2967.50           1462       67235.00    295436.20
  584.73        2967.75           1465       67145.00    295037.60
  584.76        2968.00           1469       66129.00    290537.90
  584.79        2968.25           1472       64161.00    281825.10
  584.82        2968.50           1475       61603.00    270506.50
  584.85        2968.75           1479       56762.00    249104.90
  584.88        2969.00           1482       54111.00    237395.60
  584.91        2969.25           1485       51258.00    224802.40
  584.94        2969.50           1489       46886.00    205520.90
  584.97        2969.75           1492       43863.00    192200.60
  585.00        2970.00           1495       40795.00    178691.80
  585.03        2970.25           1499       37397.00    163741.50
  585.06        2970.50           1502       34189.00    149638.20
  585.09        2970.75           1505       30873.00    135071.50
  585.12        2971.00           1509       26251.00    114786.80
  585.15        2971.25           1512       23131.00    101106.50
  585.18        2971.50           1515       20007.00     87418.82
  585.21        2971.75           1519       16080.00     70227.19
  585.24        2972.00           1522       12990.00     56711.01
  585.27        2972.25           1525       10055.00     43881.96
  585.30        2972.50           1529        5788.00     25246.50
  585.33        2972.75           1532        2997.00     13067.38
  585.36        2973.00           1535        1374.00      5988.76
  585.39        2973.25           1539         350.00      1524.04
  585.42        2973.50           1542         199.00       865.76
  585.45        2973.75           1546         147.00       639.07
  585.48        2974.00           1549         137.00       595.48
  585.51        2974.25           1552         130.00       564.96
  585.53        2974.50           1556         118.00       512.65
  585.56        2974.75           1559         106.00       460.34
  585.59        2975.00           1562         105.00       455.98
  585.62        2975.25           1566          97.00       421.10
  585.65        2975.50           1569          99.00       429.82
  585.68        2975.75           1572          98.00       425.46
  585.71        2976.00           1576          98.00       425.46
  585.74        2976.25           1579          95.00       412.38
  585.77        2976.50           1582          99.00       429.82
  585.80        2976.75           1586         102.00       442.90
  585.83        2977.00           1589         103.00       447.26
  585.86        2977.25           1592          89.00       386.23
  585.89        2977.50           1596          92.00       399.31
  585.92        2977.75           1599          88.00       381.87
  585.95        2978.00           1602          88.00       381.87
  585.98        2978.25           1606          96.00       416.74
  586.01        2978.50           1609          92.00       399.31
  586.04        2978.75           1612          95.00       412.38
  586.07        2979.00           1616          96.00       416.74
  586.10        2979.25           1619          95.00       412.38
  586.12        2979.50           1622          92.00       399.31
  586.16        2979.75           1626          92.00       399.31
  586.18        2980.00           1629          99.00       429.82
  586.21        2980.25           1632          90.00       390.59
  586.24        2980.50           1636         105.00       455.98
  586.27        2980.75           1639          83.00       360.07
  586.30        2981.00           1642          93.00       403.67
  586.33        2981.25           1646          92.00       399.31
  586.36        2981.50           1649          94.00       408.03
  586.39        2981.75           1653          82.00       355.71
  586.42        2982.00           1656          93.00       403.67
  586.45        2982.25           1659          87.00       377.51
  586.48        2982.50           1663          92.00       399.31
  586.51        2982.75           1666          86.00       373.15
  586.54        2983.00           1669          92.00       399.31
  586.57        2983.25           1673          91.00       394.95
  586.60        2983.50           1676          83.00       360.07
  586.63        2983.75           1679          85.00       368.79
  586.66        2984.00           1683          91.00       394.95
HS scan finished at 09:46:58
end
************************************************************
  HS Scan of (1) Internal mercury lamp
************************************************************
Integration time is 0.2294 seconds per sample
dh250318Delft 51.9969-4.3863 3.287017pr1000
************************************************************
Dead Time -------------------------  2.7E-08 
Number of Cycles Used -------------  4 
Starting Wavelength (Angstroms) ---  2950 
Final Wavelength (Angstoms) -------  2984 
Wavelength Increment (Angstroms) --  .25 
Filter Wheel #1 Position ---------- (1) Ground quartz diffuser (ND=2.32)
Filter Wheel #2 Position ---------- (1) Neutral Density 0.494



************************************************************
HS scan start time = 11:29:18
Dark Count =  .5 


Time (GMT)  Wavelength (Ang)  Step Number  Raw Counts  Counts/Second

  689.75        2950.00           1229         110.00       477.34
  689.85        2950.25           1232          99.00       429.39
  689.88        2950.50           1236         102.00       442.46
  689.90        2950.75           1239         103.00       446.82
  689.94        2951.00           1242          94.00       407.59
  689.97        2951.25           1246         104.00       451.18
  689.99        2951.50           1249         101.00       438.10
  690.03        2951.75           1252         103.00       446.82
  690.06        2952.00           1256         104.00       451.18
  690.08        2952.25           1259          98.00       425.03
  690.11        2952.50           1262          91.00       394.51
  690.14        2952.75           1266         103.00       446.82
  690.17        2953.00           1269          95.00       411.95
  690.20        2953.25           1272         109.00       472.98
  690.23        2953.50           1276         110.00       477.34
  690.26        2953.75           1279          98.00       425.03
  690.29        2954.00           1282         112.00       486.06
  690.32        2954.25           1286         106.00       459.90
  690.35        2954.50           1289         100.00       433.75
  690.38        2954.75           1292         114.00       494.78
  690.41        2955.00           1296          97.00       420.67
  690.44        2955.25           1299          91.00       394.51
  690.47        2955.50           1302         100.00       433.75
  690.50        2955.75           1306         108.00       468.62
  690.53        2956.00           1309         105.00       455.54
  690.56        2956.25           1312         102.00       442.46
  690.59        2956.50           1316         106.00       459.90
  690.62        2956.75           1319         100.00       433.75
  690.65        2957.00           1322          97.00       420.67
  690.68        2957.25           1326         100.00       433.75
  690.71        2957.50           1329         101.00       438.10
  690.74        2957.75           1332         104.00       451.18
  690.77        2958.00           1336          97.00       420.67
  690.80        2958.25           1339          94.00       407.59
  690.83        2958.50           1342          99.00       429.39
  690.86        2958.75           1345         106.00       459.90
  690.88        2959.00           1349          95.00       411.95
  690.91        2959.25           1352         110.00       477.34
  690.94        2959.50           1355          90.00       390.15
  690.97        2959.75           1359          91.00       394.51
  691.00        2960.00           1362         100.00       433.75
  691.03        2960.25           1365         101.00       438.10
  691.06        2960.50           1369         109.00       472.98
  691.09        2960.75           1372         112.00       486.06
  691.12        2961.00           1375         112.00       486.06
  691.15        2961.25           1379         129.00       560.17
  691.18        2961.50           1382         172.00       747.62
  691.21        2961.75           1385         524.00      2282.18
  691.24        2962.00           1389        2707.00     11801.93
  691.27        2962.25           1392        5196.00     22662.08
  691.30        2962.50           1395        8291.00     36175.24
  691.33        2962.75           1399       12245.00     53453.30
  691.36        2963.00           1402       15765.00     68848.44
  691.39        2963.25           1405       19449.00     84974.59
  691.42        2963.50           1409       23754.00    103836.90
  691.45        2963.75           1412       26513.00    115935.60
  691.48        2964.00           1415       29295.00    128143.10
  691.51        2964.25           1419       33736.00    147647.10
  691.54        2964.50           1422       36864.00    161397.10
  691.57        2964.75           1425       40254.00    176310.30
  691.60        2965.00           1429       43995.00    192781.60
  691.63        2965.25           1432       47277.00    207244.10
  691.66        2965.50           1435       50197.00    220120.90
  691.69        2965.75           1439       54622.00    239651.60
  691.71        2966.00           1442       57717.00    253324.50
  691.74        2966.25           1445       60643.00    266260.00
  691.77        2966.50           1449       64046.00    281315.70
  691.80        2966.75           1452       66058.00    290223.00
  691.83        2967.00           1455       67227.00    295400.30
  691.86        2967.25           1459       67490.00    296565.30
  691.89        2967.50           1462       67211.00    295329.50
  691.92        2967.75           1465       67043.00    294585.30
  691.95        2968.00           1469       65868.00    289381.70
  691.98        2968.25           1472       63947.00    280877.50
  692.01        2968.50           1475       61590.00    270448.50
  692.04        2968.75           1479       57816.00    253761.90
  692.07        2969.00           1482       54806.00    240464.20
  692.10        2969.25           1485       51979.00    227983.70
  692.13        2969.50           1489       48372.00    212071.80
  692.16        2969.75           1492       45248.00    198301.70
  692.19        2970.00           1495       41923.00    183656.90
  692.22        2970.25           1499       37633.00    164779.00
  692.25        2970.50           1502       34465.00    150850.70
  692.28        2970.75           1505       31383.00    137310.70
  692.31        2971.00           1509       27048.00    118282.60
  692.34        2971.25           1512       24123.00    105454.60
  692.37        2971.50           1515       20950.00     91549.03
  692.40        2971.75           1519       16528.00     72187.21
  692.43        2972.00           1522       13819.00     60335.79
  692.46        2972.25           1525       11075.00     48338.99
  692.49        2972.50           1529        7419.00     32366.99
  692.52        2972.75           1532        4683.00     20423.20
  692.55        2973.00           1535        1920.00      8369.37
  692.58        2973.25           1539         447.00      1946.48
  692.61        2973.50           1542         204.00       887.12
  692.64        2973.75           1546         140.00       608.12
  692.66        2974.00           1549         146.00       634.27
  692.69        2974.25           1552         127.00       551.45
  692.72        2974.50           1556         113.00       490.42
  692.75        2974.75           1559         118.00       512.21
  692.78        2975.00           1562         109.00       472.98
  692.81        2975.25           1566         109.00       472.98
  692.84        2975.50           1569          94.00       407.59
  692.87        2975.75           1572          86.00       372.72
  692.90        2976.00           1576          96.00       416.31
  692.93        2976.25           1579          95.00       411.95
  692.96        2976.50           1582          96.00       416.31
  692.99        2976.75           1586          96.00       416.31
  693.02        2977.00           1589          96.00       416.31
  693.05        2977.25           1592          95.00       411.95
  693.08        2977.50           1596         100.00       433.75
  693.11        2977.75           1599          91.00       394.51
  693.14        2978.00           1602          93.00       403.23
  693.17        2978.25           1606         102.00       442.46
  693.20        2978.50           1609          94.00       407.59
  693.23        2978.75           1612          91.00       394.51
  693.25        2979.00           1616          97.00       420.67
  693.28        2979.25           1619          96.00       416.31
  693.31        2979.50           1622         100.00       433.75
  693.34        2979.75           1626          97.00       420.67
  693.37        2980.00           1629          89.00       385.79
  693.40        2980.25           1632          91.00       394.51
  693.43        2980.50           1636          93.00       403.23
  693.46        2980.75           1639          96.00       416.31
  693.49        2981.00           1642          99.00       429.39
  693.52        2981.25           1646          86.00       372.72
  693.55        2981.50           1649          94.00       407.59
  693.58        2981.75           1653          90.00       390.15
  693.61        2982.00           1656          81.00       350.92
  693.64        2982.25           1659          84.00       364.00
  693.67        2982.50           1663          88.00       381.43
  693.70        2982.75           1666          84.00       364.00
  693.73        2983.00           1669          92.00       398.87
  693.76        2983.25           1673          93.00       403.23
  693.79        2983.50           1676          86.00       372.72
  693.82        2983.75           1679          87.00       377.07
  693.85        2984.00           1683         102.00       442.46
HS scan finished at 11:34:09
end
************************************************************
  HS Scan of (1) Internal mercury lamp
************************************************************
Integration time is 0.2294 seconds per sample
dh250318Delft 51.9969-4.3863 3.233369pr1000
************************************************************
Dead Time -------------------------  2.7E-08 
Number of Cycles Used -------------  4 
Starting Wavelength (Angstroms) ---  2950 
Final Wavelength (Angstoms) -------  2984 
Wavelength Increment (Angstroms) --  .25 
Filter Wheel #1 Position ---------- (1) Ground quartz diffuser (ND=2.32)
Filter Wheel #2 Position ---------- (1) Neutral Density 0.494



************************************************************
HS scan start time = 13:16:30
Dark Count =  .2 


Time (GMT)  Wavelength (Ang)  Step Number  Raw Counts  Counts/Second

  796.95        2950.00           1229         107.00       465.57
  797.05        2950.25           1232         103.00       448.13
  797.08        2950.50           1236         109.00       474.29
  797.11        2950.75           1239         108.00       469.93
  797.14        2951.00           1242         102.00       443.77
  797.17        2951.25           1246          98.00       426.33
  797.20        2951.50           1249         110.00       478.65
  797.23        2951.75           1252         108.00       469.93
  797.26        2952.00           1256         111.00       483.01
  797.29        2952.25           1259         103.00       448.13
  797.32        2952.50           1262         102.00       443.77
  797.35        2952.75           1266         103.00       448.13
  797.38        2953.00           1269          97.00       421.98
  797.41        2953.25           1272         102.00       443.77
  797.44        2953.50           1276         107.00       465.57
  797.47        2953.75           1279          97.00       421.98
  797.49        2954.00           1282         105.00       456.85
  797.52        2954.25           1286         111.00       483.01
  797.55        2954.50           1289         102.00       443.77
  797.58        2954.75           1292         105.00       456.85
  797.61        2955.00           1296         102.00       443.77
  797.64        2955.25           1299         109.00       474.29
  797.67        2955.50           1302         102.00       443.77
  797.70        2955.75           1306         105.00       456.85
  797.73        2956.00           1309         100.00       435.05
  797.76        2956.25           1312         104.00       452.49
  797.79        2956.50           1316          97.00       421.98
  797.82        2956.75           1319          98.00       426.33
  797.85        2957.00           1322         105.00       456.85
  797.88        2957.25           1326          97.00       421.98
  797.91        2957.50           1329         103.00       448.13
  797.94        2957.75           1332          99.00       430.69
  797.97        2958.00           1336         103.00       448.13
  798.00        2958.25           1339         102.00       443.77
  798.03        2958.50           1342         104.00       452.49
  798.06        2958.75           1345         105.00       456.85
  798.09        2959.00           1349         102.00       443.77
  798.12        2959.25           1352          96.00       417.62
  798.14        2959.50           1355         105.00       456.85
  798.17        2959.75           1359         105.00       456.85
  798.20        2960.00           1362         104.00       452.49
  798.23        2960.25           1365          98.00       426.33
  798.26        2960.50           1369         104.00       452.49
  798.29        2960.75           1372         106.00       461.21
  798.32        2961.00           1375         119.00       517.88
  798.35        2961.25           1379         135.00       587.63
  798.38        2961.50           1382         182.00       792.52
  798.41        2961.75           1385         555.00      2418.64
  798.44        2962.00           1389        2597.00     11323.43
  798.47        2962.25           1392        5189.00     22632.83
  798.50        2962.50           1395        8413.00     36709.43
  798.53        2962.75           1399       12233.00     53402.14
  798.56        2963.00           1402       15061.00     65769.71
  798.59        2963.25           1405       18269.00     79809.12
  798.62        2963.50           1409       22551.00     98565.37
  798.65        2963.75           1412       26147.00    114331.50
  798.68        2964.00           1415       29797.00    130348.10
  798.71        2964.25           1419       33376.00    146066.60
  798.74        2964.50           1422       36324.00    159024.00
  798.77        2964.75           1425       39785.00    174247.70
  798.80        2965.00           1429       44196.00    193668.30
  798.83        2965.25           1432       47727.00    209229.20
  798.86        2965.50           1435       50252.00    220364.80
  798.89        2965.75           1439       54088.00    237294.90
  798.92        2966.00           1442       57613.00    252866.20
  798.95        2966.25           1445       60590.00    266026.90
  798.98        2966.50           1449       64571.00    283640.80
  799.01        2966.75           1452       66690.00    293023.20
  799.04        2967.00           1455       67351.00    295950.90
  799.07        2967.25           1459       67338.00    295893.30
  799.10        2967.50           1462       67421.00    296261.00
  799.12        2967.75           1465       67467.00    296464.70
  799.15        2968.00           1469       65950.00    289746.10
  799.18        2968.25           1472       63892.00    280635.40
  799.21        2968.50           1475       61601.00    270498.50
  799.24        2968.75           1479       58297.00    255889.20
  799.27        2969.00           1482       55294.00    242620.80
  799.30        2969.25           1485       51950.00    227857.00
  799.33        2969.50           1489       47890.00    209947.90
  799.36        2969.75           1492       44820.00    196417.30
  799.39        2970.00           1495       41841.00    183297.20
  799.42        2970.25           1499       37721.00    165167.40
  799.45        2970.50           1502       34559.00    151265.20
  799.48        2970.75           1505       31192.00    136473.20
  799.51        2971.00           1509       26916.00    117704.80
  799.54        2971.25           1512       24271.00    106104.80
  799.57        2971.50           1515       21445.00     93718.99
  799.60        2971.75           1519       17543.00     76630.93
  799.63        2972.00           1522       14439.00     63048.82
  799.66        2972.25           1525       11016.00     48082.43
  799.69        2972.50           1529        6935.00     30254.87
  799.72        2972.75           1532        3909.00     17047.08
  799.75        2973.00           1535        1719.00      7494.11
  799.78        2973.25           1539         473.00      2061.14
  799.81        2973.50           1542         208.00       905.86
  799.84        2973.75           1546         159.00       692.25
  799.87        2974.00           1549         145.00       631.22
  799.90        2974.25           1552         130.00       565.83
  799.93        2974.50           1556         120.00       522.24
  799.96        2974.75           1559         109.00       474.29
  799.98        2975.00           1562         110.00       478.65
  800.01        2975.25           1566          97.00       421.98
  800.04        2975.50           1569         104.00       452.49
  800.07        2975.75           1572         101.00       439.41
  800.10        2976.00           1576          96.00       417.62
  800.13        2976.25           1579          96.00       417.62
  800.16        2976.50           1582          93.00       404.54
  800.19        2976.75           1586          96.00       417.62
  800.22        2977.00           1589          95.00       413.26
  800.25        2977.25           1592          95.00       413.26
  800.28        2977.50           1596          97.00       421.98
  800.31        2977.75           1599          98.00       426.33
  800.34        2978.00           1602         100.00       435.05
  800.37        2978.25           1606          93.00       404.54
  800.40        2978.50           1609         103.00       448.13
  800.43        2978.75           1612          88.00       382.74
  800.46        2979.00           1616         105.00       456.85
  800.49        2979.25           1619          87.00       378.38
  800.52        2979.50           1622          96.00       417.62
  800.55        2979.75           1626          89.00       387.10
  800.58        2980.00           1629          88.00       382.74
  800.61        2980.25           1632          90.00       391.46
  800.64        2980.50           1636          96.00       417.62
  800.67        2980.75           1639          92.00       400.18
  800.70        2981.00           1642          92.00       400.18
  800.72        2981.25           1646          86.00       374.02
  800.75        2981.50           1649          96.00       417.62
  800.78        2981.75           1653          87.00       378.38
  800.81        2982.00           1656          96.00       417.62
  800.84        2982.25           1659          94.00       408.90
  800.87        2982.50           1663          78.00       339.15
  800.90        2982.75           1666          90.00       391.46
  800.93        2983.00           1669          99.00       430.69
  800.96        2983.25           1673          96.00       417.62
  800.99        2983.50           1676          85.00       369.66
  801.02        2983.75           1679          93.00       404.54
  801.05        2984.00           1683          92.00       400.18
HS scan finished at 13:21:21
end
************************************************************
  HS Scan of (1) Internal mercury lamp
************************************************************
Integration time is 0.2294 seconds per sample
dh250318Delft 51.9969-4.3863 3.233369pr1000
************************************************************
Dead Time -------------------------  2.7E-08 
Number of Cycles Used -------------  4 
Starting Wavelength (Angstroms) ---  2950 
Final Wavelength (Angstoms) -------  2984 
Wavelength Increment (Angstroms) --  .25 
Filter Wheel #1 Position ---------- (1) Ground quartz diffuser (ND=2.32)
Filter Wheel #2 Position ---------- (1) Neutral Density 0.494



************************************************************
HS scan start time = 15:03:42
Dark Count =  .2 


Time (GMT)  Wavelength (Ang)  Step Number  Raw Counts  Counts/Second

  904.16        2950.00           1229         117.00       509.16
  904.26        2950.25           1232         102.00       443.77
  904.29        2950.50           1236         103.00       448.13
  904.32        2950.75           1239         103.00       448.13
  904.35        2951.00           1242         112.00       487.36
  904.38        2951.25           1246         101.00       439.41
  904.41        2951.50           1249         110.00       478.65
  904.44        2951.75           1252         101.00       439.41
  904.47        2952.00           1256          91.00       395.82
  904.50        2952.25           1259         109.00       474.29
  904.53        2952.50           1262         100.00       435.05
  904.56        2952.75           1266         103.00       448.13
  904.59        2953.00           1269         102.00       443.77
  904.62        2953.25           1272          99.00       430.69
  904.65        2953.50           1276          99.00       430.69
  904.67        2953.75           1279          97.00       421.98
  904.70        2954.00           1282         107.00       465.57
  904.73        2954.25           1286         101.00       439.41
  904.77        2954.50           1289          96.00       417.62
  904.79        2954.75           1292         104.00       452.49
  904.82        2955.00           1296          90.00       391.46
  904.85        2955.25           1299         110.00       478.65
  904.88        2955.50           1302         101.00       439.41
  904.91        2955.75           1306         111.00       483.01
  904.94        2956.00           1309         101.00       439.41
  904.97        2956.25           1312         114.00       496.08
  905.00        2956.50           1316          95.00       413.26
  905.03        2956.75           1319         102.00       443.77
  905.06        2957.00           1322         111.00       483.01
  905.09        2957.25           1326         117.00       509.16
  905.12        2957.50           1329          93.00       404.54
  905.15        2957.75           1332         105.00       456.85
  905.18        2958.00           1336          99.00       430.69
  905.21        2958.25           1339         100.00       435.05
  905.24        2958.50           1342         104.00       452.49
  905.27        2958.75           1345         100.00       435.05
  905.30        2959.00           1349         105.00       456.85
  905.33        2959.25           1352          97.00       421.98
  905.36        2959.50           1355         103.00       448.13
  905.39        2959.75           1359          98.00       426.33
  905.41        2960.00           1362          99.00       430.69
  905.45        2960.25           1365         108.00       469.93
  905.47        2960.50           1369         105.00       456.85
  905.50        2960.75           1372         119.00       517.88
  905.53        2961.00           1375         118.00       513.52
  905.56        2961.25           1379         138.00       600.71
  905.59        2961.50           1382         175.00       762.00
  905.62        2961.75           1385         716.00      3120.58
  905.65        2962.00           1389        2719.00     11855.58
  905.68        2962.25           1392        4652.00     20289.23
  905.71        2962.50           1395        7467.00     32577.90
  905.74        2962.75           1399       11266.00     49175.10
  905.77        2963.00           1402       14953.00     65297.23
  905.80        2963.25           1405       18494.00     80794.20
  905.83        2963.50           1409       22643.00     98968.56
  905.86        2963.75           1412       25609.00    111971.90
  905.89        2964.00           1415       28927.00    126529.20
  905.92        2964.25           1419       33468.00    146470.90
  905.95        2964.50           1422       36763.00    160954.30
  905.98        2964.75           1425       39907.00    174784.50
  906.01        2965.00           1429       43752.00    191712.60
  906.04        2965.25           1432       47037.00    206187.40
  906.07        2965.50           1435       50162.00    219967.80
  906.10        2965.75           1439       54493.00    239083.30
  906.13        2966.00           1442       57272.00    251359.30
  906.16        2966.25           1445       60913.00    267455.40
  906.19        2966.50           1449       64908.00    285132.70
  906.22        2966.75           1452       66519.00    292265.90
  906.25        2967.00           1455       67050.00    294617.60
  906.28        2967.25           1459       67068.00    294697.40
  906.31        2967.50           1462       67163.00    295118.20
  906.34        2967.75           1465       66930.00    294086.10
  906.37        2968.00           1469       66405.00    291761.00
  906.40        2968.25           1472       64149.00    281772.90
  906.43        2968.50           1475       61521.00    270144.60
  906.46        2968.75           1479       57204.00    251058.80
  906.49        2969.00           1482       54383.00    238597.50
  906.52        2969.25           1485       51680.00    226665.40
  906.55        2969.50           1489       47618.00    208748.70
  906.58        2969.75           1492       44634.00    195597.90
  906.61        2970.00           1495       41435.00    181509.90
  906.63        2970.25           1499       37347.00    163522.50
  906.66        2970.50           1502       34708.00    151920.00
  906.69        2970.75           1505       31445.00    137584.30
  906.72        2971.00           1509       27366.00    119679.00
  906.75        2971.25           1512       24188.00    105740.90
  906.78        2971.50           1515       21155.00     92448.44
  906.81        2971.75           1519       17092.00     74656.88
  906.84        2972.00           1522       13927.00     60809.44
  906.87        2972.25           1525       10941.00     47754.65
  906.90        2972.50           1529        7141.00     31154.35
  906.93        2972.75           1532        4122.00     17976.47
  906.96        2973.00           1535        1808.00      7882.24
  906.99        2973.25           1539         546.00      2379.40
  907.02        2973.50           1542         224.00       975.61
  907.05        2973.75           1546         167.00       727.13
  907.08        2974.00           1549         144.00       626.86
  907.11        2974.25           1552         133.00       578.91
  907.14        2974.50           1556         115.00       500.44
  907.17        2974.75           1559         120.00       522.24
  907.20        2975.00           1562         108.00       469.93
  907.23        2975.25           1566         105.00       456.85
  907.26        2975.50           1569          90.00       391.46
  907.29        2975.75           1572         109.00       474.29
  907.32        2976.00           1576         102.00       443.77
  907.35        2976.25           1579          97.00       421.98
  907.38        2976.50           1582          96.00       417.62
  907.41        2976.75           1586          89.00       387.10
  907.44        2977.00           1589          98.00       426.33
  907.47        2977.25           1592          98.00       426.33
  907.50        2977.50           1596          97.00       421.98
  907.52        2977.75           1599          93.00       404.54
  907.56        2978.00           1602          92.00       400.18
  907.58        2978.25           1606          99.00       430.69
  907.61        2978.50           1609          87.00       378.38
  907.64        2978.75           1612          96.00       417.62
  907.67        2979.00           1616          85.00       369.66
  907.70        2979.25           1619         102.00       443.77
  907.73        2979.50           1622          93.00       404.54
  907.76        2979.75           1626          90.00       391.46
  907.79        2980.00           1629          93.00       404.54
  907.82        2980.25           1632          90.00       391.46
  907.85        2980.50           1636          86.00       374.02
  907.88        2980.75           1639          99.00       430.69
  907.91        2981.00           1642          88.00       382.74
  907.94        2981.25           1646          90.00       391.46
  907.97        2981.50           1649         102.00       443.77
  908.00        2981.75           1653          93.00       404.54
  908.03        2982.00           1656          86.00       374.02
  908.06        2982.25           1659          91.00       395.82
  908.09        2982.50           1663          87.00       378.38
  908.11        2982.75           1666          92.00       400.18
  908.15        2983.00           1669          86.00       374.02
  908.17        2983.25           1673          84.00       365.30
  908.20        2983.50           1676          85.00       369.66
  908.23        2983.75           1679          95.00       413.26
  908.26        2984.00           1683          96.00       417.62
HS scan finished at 15:08:34
end
************************************************************
  HS Scan of (1) Internal mercury lamp
************************************************************
Integration time is 0.2294 seconds per sample
dh250318Delft 51.9969-4.3863 3.233369pr1000
************************************************************
Dead Time -------------------------  2.7E-08 
Number of Cycles Used -------------  4 
Starting Wavelength (Angstroms) ---  2950 
Final Wavelength (Angstoms) -------  2984 
Wavelength Increment (Angstroms) --  .25 
Filter Wheel #1 Position ---------- (1) Ground quartz diffuser (ND=2.32)
Filter Wheel #2 Position ---------- (1) Neutral Density 0.494



************************************************************
HS scan start time = 16:50:53
Dark Count =  .1 


Time (GMT)  Wavelength (Ang)  Step Number  Raw Counts  Counts/Second

 1011.34        2950.00           1229         109.00       474.72
 1011.44        2950.25           1232         100.00       435.49
 1011.47        2950.50           1236         103.00       448.57
 1011.50        2950.75           1239         104.00       452.93
 1011.53        2951.00           1242         104.00       452.93
 1011.56        2951.25           1246         109.00       474.72
 1011.59        2951.50           1249         109.00       474.72
 1011.62        2951.75           1252         103.00       448.57
 1011.65        2952.00           1256          98.00       426.77
 1011.68        2952.25           1259         108.00       470.36
 1011.71        2952.50           1262         102.00       444.21
 1011.74        2952.75           1266         103.00       448.57
 1011.77        2953.00           1269         110.00       479.08
 1011.80        2953.25           1272         105.00       457.29
 1011.83        2953.50           1276          98.00       426.77
 1011.86        2953.75           1279          99.00       431.13
 1011.89        2954.00           1282         103.00       448.57
 1011.92        2954.25           1286          92.00       400.61
 1011.95        2954.50           1289         103.00       448.57
 1011.98        2954.75           1292          96.00       418.05
 1012.01        2955.00           1296         104.00       452.93
 1012.04        2955.25           1299         102.00       444.21
 1012.06        2955.50           1302         101.00       439.85
 1012.09        2955.75           1306          97.00       422.41
 1012.12        2956.00           1309         101.00       439.85
 1012.15        2956.25           1312          93.00       404.97
 1012.18        2956.50           1316          93.00       404.97
 1012.21        2956.75           1319         112.00       487.80
 1012.24        2957.00           1322         109.00       474.72
 1012.27        2957.25           1326         111.00       483.44
 1012.30        2957.50           1329          93.00       404.97
 1012.33        2957.75           1332          95.00       413.69
 1012.36        2958.00           1336          97.00       422.41
 1012.39        2958.25           1339         113.00       492.16
 1012.42        2958.50           1342          97.00       422.41
 1012.45        2958.75           1345          90.00       391.90
 1012.48        2959.00           1349          97.00       422.41
 1012.51        2959.25           1352          99.00       431.13
 1012.54        2959.50           1355          93.00       404.97
 1012.57        2959.75           1359          98.00       426.77
 1012.60        2960.00           1362          94.00       409.33
 1012.63        2960.25           1365         101.00       439.85
 1012.66        2960.50           1369         114.00       496.52
 1012.69        2960.75           1372         109.00       474.72
 1012.72        2961.00           1375         113.00       492.16
 1012.75        2961.25           1379         134.00       583.71
 1012.78        2961.50           1382         168.00       731.92
 1012.81        2961.75           1385         534.00      2327.52
 1012.84        2962.00           1389        2441.00     10643.42
 1012.87        2962.25           1392        5030.00     21939.33
 1012.90        2962.50           1395        7923.00     34569.74
 1012.93        2962.75           1399       11457.00     50010.39
 1012.96        2963.00           1402       14558.00     63569.78
 1012.98        2963.25           1405       18151.00     79292.94
 1013.01        2963.50           1409       22909.00    100134.80
 1013.04        2963.75           1412       26384.00    115371.50
 1013.07        2964.00           1415       28908.00    126446.20
 1013.10        2964.25           1419       32798.00    143527.70
 1013.13        2964.50           1422       36247.00    158685.90
 1013.16        2964.75           1425       39606.00    173460.50
 1013.19        2965.00           1429       43977.00    192704.10
 1013.22        2965.25           1432       47534.00    208378.80
 1013.25        2965.50           1435       50773.00    222663.80
 1013.28        2965.75           1439       55107.00    241795.30
 1013.31        2966.00           1442       58197.00    255447.60
 1013.34        2966.25           1445       61144.00    268477.50
 1013.37        2966.50           1449       64872.00    284973.70
 1013.40        2966.75           1452       66611.00    292673.80
 1013.43        2967.00           1455       66986.00    294334.60
 1013.46        2967.25           1459       67213.00    295340.10
 1013.49        2967.50           1462       67380.00    296079.80
 1013.52        2967.75           1465       67200.00    295282.50
 1013.55        2968.00           1469       65952.00    289755.40
 1013.58        2968.25           1472       63884.00    280600.40
 1013.61        2968.50           1475       61709.00    270976.60
 1013.64        2968.75           1479       57713.00    253308.50
 1013.67        2969.00           1482       54484.00    239044.00
 1013.70        2969.25           1485       51782.00    227116.00
 1013.73        2969.50           1489       48049.00    210649.30
 1013.76        2969.75           1492       45568.00    199713.50
 1013.79        2970.00           1495       42350.00    185538.80
 1013.82        2970.25           1499       38317.00    167789.40
 1013.85        2970.50           1502       34970.00    153072.10
 1013.88        2970.75           1505       31304.00    136965.50
 1013.90        2971.00           1509       26861.00    117463.90
 1013.94        2971.25           1512       23751.00    103825.50
 1013.97        2971.50           1515       21116.00     92278.02
 1013.99        2971.75           1519       17207.00     75160.66
 1014.03        2972.00           1522       13860.00     60516.85
 1014.05        2972.25           1525       10518.00     45906.48
 1014.08        2972.50           1529        7376.00     32180.96
 1014.11        2972.75           1532        4788.00     20883.18
 1014.14        2973.00           1535        2170.00      9461.44
 1014.17        2973.25           1539         528.00      2301.36
 1014.20        2973.50           1542         203.00       884.50
 1014.23        2973.75           1546         145.00       631.66
 1014.26        2974.00           1549         140.00       609.86
 1014.29        2974.25           1552         117.00       509.60
 1014.32        2974.50           1556         130.00       566.27
 1014.35        2974.75           1559         115.00       500.88
 1014.38        2975.00           1562         103.00       448.57
 1014.41        2975.25           1566         109.00       474.72
 1014.44        2975.50           1569          94.00       409.33
 1014.47        2975.75           1572         103.00       448.57
 1014.50        2976.00           1576          95.00       413.69
 1014.53        2976.25           1579         104.00       452.93
 1014.56        2976.50           1582          98.00       426.77
 1014.59        2976.75           1586          90.00       391.90
 1014.62        2977.00           1589         104.00       452.93
 1014.65        2977.25           1592          94.00       409.33
 1014.68        2977.50           1596          94.00       409.33
 1014.71        2977.75           1599          94.00       409.33
 1014.74        2978.00           1602          87.00       378.82
 1014.77        2978.25           1606          93.00       404.97
 1014.80        2978.50           1609          91.00       396.26
 1014.83        2978.75           1612          93.00       404.97
 1014.86        2979.00           1616          95.00       413.69
 1014.88        2979.25           1619          97.00       422.41
 1014.91        2979.50           1622         100.00       435.49
 1014.94        2979.75           1626          95.00       413.69
 1014.97        2980.00           1629         101.00       439.85
 1015.00        2980.25           1632          90.00       391.90
 1015.03        2980.50           1636          96.00       418.05
 1015.06        2980.75           1639          91.00       396.26
 1015.09        2981.00           1642          92.00       400.61
 1015.12        2981.25           1646          88.00       383.18
 1015.15        2981.50           1649          89.00       387.54
 1015.18        2981.75           1653          90.00       391.90
 1015.21        2982.00           1656          89.00       387.54
 1015.24        2982.25           1659         100.00       435.49
 1015.27        2982.50           1663          85.00       370.10
 1015.30        2982.75           1666          92.00       400.61
 1015.33        2983.00           1669          79.00       343.94
 1015.36        2983.25           1673          93.00       404.97
 1015.39        2983.50           1676          95.00       413.69
 1015.42        2983.75           1679          95.00       413.69
 1015.45        2984.00           1683          90.00       391.90
HS scan finished at 16:55:45
end
