************************************************************
  HS Scan of (1) Internal mercury lamp
************************************************************
Integration time is 0.2294 seconds per sample
dh020417DelftKZ 51.997-4.386 2.428648pr1000
************************************************************
Dead Time -------------------------  3E-08 
Number of Cycles Used -------------  4 
Starting Wavelength (Angstroms) ---  2950 
Final Wavelength (Angstoms) -------  2984 
Wavelength Increment (Angstroms) --  .25 
Filter Wheel #1 Position ---------- (1) Ground quartz diffuser (ND=2.32)
Filter Wheel #2 Position ---------- (1) Neutral Density 0.494



************************************************************
HS scan start time = 03:44:39
Dark Count =  .1 


Time (GMT)  Wavelength (Ang)  Step Number  Raw Counts  Counts/Second

  225.11        2950.00           1229         135.00       588.07
  225.21        2950.25           1232         123.00       535.75
  225.23        2950.50           1236         136.00       592.43
  225.26        2950.75           1239         125.00       544.47
  225.29        2951.00           1242         140.00       609.86
  225.32        2951.25           1246         127.00       553.19
  225.35        2951.50           1249         122.00       531.39
  225.37        2951.75           1252         127.00       553.19
  225.40        2952.00           1255         133.00       579.35
  225.43        2952.25           1259         130.00       566.27
  225.46        2952.50           1262         126.00       548.83
  225.48        2952.75           1265         121.00       527.04
  225.51        2953.00           1269         126.00       548.83
  225.54        2953.25           1272         140.00       609.86
  225.57        2953.50           1275         121.00       527.04
  225.59        2953.75           1279         124.00       540.11
  225.62        2954.00           1282         129.00       561.91
  225.65        2954.25           1285         127.00       553.19
  225.68        2954.50           1289         143.00       622.94
  225.70        2954.75           1292         131.00       570.63
  225.73        2955.00           1295         129.00       561.91
  225.76        2955.25           1299         125.00       544.47
  225.79        2955.50           1302         123.00       535.75
  225.82        2955.75           1305         121.00       527.04
  225.84        2956.00           1309         130.00       566.27
  225.87        2956.25           1312         121.00       527.04
  225.90        2956.50           1315         126.00       548.83
  225.93        2956.75           1319         119.00       518.32
  225.95        2957.00           1322         138.00       601.14
  225.98        2957.25           1325         125.00       544.47
  226.01        2957.50           1329         122.00       531.39
  226.04        2957.75           1332         119.00       518.32
  226.06        2958.00           1335         128.00       557.55
  226.09        2958.25           1339         120.00       522.68
  226.12        2958.50           1342         131.00       570.63
  226.15        2958.75           1345         126.00       548.83
  226.17        2959.00           1349         121.00       527.04
  226.20        2959.25           1352         131.00       570.63
  226.23        2959.50           1355         127.00       553.19
  226.26        2959.75           1359         125.00       544.47
  226.29        2960.00           1362         122.00       531.39
  226.31        2960.25           1365         126.00       548.83
  226.34        2960.50           1369         126.00       548.83
  226.37        2960.75           1372         140.00       609.86
  226.40        2961.00           1375         149.00       649.10
  226.43        2961.25           1379         146.00       636.02
  226.46        2961.50           1382         275.00      1198.39
  226.49        2961.75           1385         882.00      3844.82
  226.52        2962.00           1389        2301.00     10033.10
  226.54        2962.25           1392        4020.00     17532.76
  226.57        2962.50           1395        6385.00     27856.31
  226.60        2962.75           1399        9012.00     39331.04
  226.63        2963.00           1402       11248.00     49104.11
  226.66        2963.25           1405       13726.00     59941.61
  226.68        2963.50           1409       16680.00     72870.12
  226.71        2963.75           1412       18902.00     82601.56
  226.74        2964.00           1415       21408.00     93583.64
  226.78        2964.25           1419       24749.00    108236.20
  226.81        2964.50           1422       26931.00    117812.80
  226.84        2964.75           1425       28770.00    125888.20
  226.87        2965.00           1429       31635.00    138476.90
  226.90        2965.25           1432       33896.00    148418.30
  226.93        2965.50           1435       36069.00    157978.40
  226.96        2965.75           1439       38953.00    170675.10
  226.98        2966.00           1442       41247.00    180781.20
  227.01        2966.25           1445       42906.00    188093.70
  227.04        2966.50           1449       45464.00    199375.10
  227.07        2966.75           1452       46501.00    203950.70
  227.09        2967.00           1455       46995.00    206130.80
  227.12        2967.25           1459       47061.00    206422.10
  227.15        2967.50           1462       47219.00    207119.50
  227.18        2967.75           1465       47178.00    206938.50
  227.21        2968.00           1469       46217.00    202697.50
  227.23        2968.25           1472       45184.00    198139.90
  227.26        2968.50           1475       43187.00    189332.60
  227.29        2968.75           1479       39978.00    175189.90
  227.32        2969.00           1482       37687.00    165100.40
  227.34        2969.25           1485       35802.00    156803.50
  227.38        2969.50           1489       32747.00    143365.50
  227.41        2969.75           1492       30514.00    133550.10
  227.43        2970.00           1495       28537.00    124864.90
  227.46        2970.25           1499       26250.00    114823.40
  227.49        2970.50           1502       24390.00    106661.20
  227.52        2970.75           1505       22165.00     96902.49
  227.54        2971.00           1509       19054.00     83267.47
  227.57        2971.25           1512       16387.00     71587.32
  227.60        2971.50           1515       14058.00     61394.15
  227.63        2971.75           1519       11447.00     49974.17
  227.66        2972.00           1522        9095.00     39693.71
  227.68        2972.25           1525        6981.00     30458.95
  227.71        2972.50           1529        4226.00     18431.73
  227.74        2972.75           1532        2105.00      9178.20
  227.77        2973.00           1536         692.00      3016.40
  227.80        2973.25           1539         288.00      1255.06
  227.83        2973.50           1542         171.00       745.00
  227.86        2973.75           1546         145.00       631.66
  227.88        2974.00           1549         142.00       618.58
  227.91        2974.25           1552         132.00       574.99
  227.95        2974.50           1556         133.00       579.35
  227.98        2974.75           1559         119.00       518.32
  228.00        2975.00           1562         121.00       527.04
  228.03        2975.25           1566         116.00       505.24
  228.06        2975.50           1569         123.00       535.75
  228.09        2975.75           1572         112.00       487.80
  228.12        2976.00           1576         107.00       466.00
  228.14        2976.25           1579         114.00       496.52
  228.17        2976.50           1582         121.00       527.04
  228.20        2976.75           1586         125.00       544.47
  228.23        2977.00           1589          99.00       431.13
  228.26        2977.25           1592         103.00       448.57
  228.28        2977.50           1596         103.00       448.57
  228.31        2977.75           1599         108.00       470.36
  228.34        2978.00           1602         105.00       457.29
  228.37        2978.25           1606         111.00       483.44
  228.39        2978.50           1609         103.00       448.57
  228.42        2978.75           1612         124.00       540.11
  228.45        2979.00           1616         100.00       435.49
  228.48        2979.25           1619         108.00       470.36
  228.51        2979.50           1623         105.00       457.29
  228.53        2979.75           1626         108.00       470.36
  228.56        2980.00           1629         108.00       470.36
  228.59        2980.25           1633          93.00       404.97
  228.62        2980.50           1636          98.00       426.77
  228.65        2980.75           1639         104.00       452.93
  228.67        2981.00           1643         107.00       466.00
  228.70        2981.25           1646         110.00       479.08
  228.73        2981.50           1649         109.00       474.72
  228.76        2981.75           1653         107.00       466.00
  228.78        2982.00           1656         105.00       457.29
  228.81        2982.25           1659          94.00       409.33
  228.84        2982.50           1663         100.00       435.49
  228.87        2982.75           1666          97.00       422.41
  228.89        2983.00           1669         101.00       439.85
  228.92        2983.25           1673         110.00       479.08
  228.95        2983.50           1676         116.00       505.24
  228.98        2983.75           1679          97.00       422.41
  229.00        2984.00           1683         109.00       474.72
HS scan finished at 03:49:18
end
