************************************************************
  HS Scan of (1) Internal mercury lamp
************************************************************
Integration time is 0.2294 seconds per sample
dh050418Delft 51.9969-4.3863 2.375pr1000
************************************************************
Dead Time -------------------------  2.7E-08 
Number of Cycles Used -------------  4 
Starting Wavelength (Angstroms) ---  2950 
Final Wavelength (Angstoms) -------  2984 
Wavelength Increment (Angstroms) --  .25 
Filter Wheel #1 Position ---------- (1) Ground quartz diffuser (ND=2.32)
Filter Wheel #2 Position ---------- (1) Neutral Density 0.494



************************************************************
HS scan start time = 19:22:20
Dark Count =  .1 


Time (GMT)  Wavelength (Ang)  Step Number  Raw Counts  Counts/Second

 1162.80        2950.00           1229         137.00       596.78
 1162.90        2950.25           1232         137.00       596.78
 1162.93        2950.50           1236         140.00       609.86
 1162.96        2950.75           1239         138.00       601.14
 1162.99        2951.00           1242         141.00       614.22
 1163.02        2951.25           1246         136.00       592.42
 1163.05        2951.50           1249         135.00       588.07
 1163.08        2951.75           1252         133.00       579.35
 1163.11        2952.00           1256         135.00       588.07
 1163.14        2952.25           1259         127.00       553.19
 1163.17        2952.50           1262         136.00       592.42
 1163.20        2952.75           1266         133.00       579.35
 1163.22        2953.00           1269         135.00       588.07
 1163.25        2953.25           1272         141.00       614.22
 1163.28        2953.50           1276         135.00       588.07
 1163.31        2953.75           1279         133.00       579.35
 1163.34        2954.00           1282         131.00       570.63
 1163.37        2954.25           1286         120.00       522.68
 1163.40        2954.50           1289         129.00       561.91
 1163.43        2954.75           1292         130.00       566.27
 1163.46        2955.00           1296         135.00       588.07
 1163.49        2955.25           1299         129.00       561.91
 1163.52        2955.50           1302         136.00       592.42
 1163.55        2955.75           1306         135.00       588.07
 1163.58        2956.00           1309         127.00       553.19
 1163.61        2956.25           1312         124.00       540.11
 1163.64        2956.50           1316         139.00       605.50
 1163.67        2956.75           1319         123.00       535.75
 1163.70        2957.00           1322         123.00       535.75
 1163.73        2957.25           1326         125.00       544.47
 1163.76        2957.50           1329         127.00       553.19
 1163.79        2957.75           1332         140.00       609.86
 1163.82        2958.00           1336         130.00       566.27
 1163.85        2958.25           1339         120.00       522.68
 1163.88        2958.50           1342         125.00       544.47
 1163.91        2958.75           1345         125.00       544.47
 1163.94        2959.00           1349         122.00       531.39
 1163.97        2959.25           1352         131.00       570.63
 1164.00        2959.50           1355         135.00       588.07
 1164.03        2959.75           1359         131.00       570.63
 1164.06        2960.00           1362         125.00       544.47
 1164.09        2960.25           1365         124.00       540.11
 1164.12        2960.50           1369         136.00       592.42
 1164.14        2960.75           1372         140.00       609.86
 1164.18        2961.00           1375         130.00       566.27
 1164.20        2961.25           1379         151.00       657.81
 1164.23        2961.50           1382         184.00       801.67
 1164.26        2961.75           1385         530.00      2310.08
 1164.29        2962.00           1389        2001.00      8724.37
 1164.32        2962.25           1392        3576.00     15594.62
 1164.35        2962.50           1395        5621.00     24518.84
 1164.38        2962.75           1399        8207.00     35810.11
 1164.41        2963.00           1402       10418.00     45469.48
 1164.44        2963.25           1405       12896.00     56301.31
 1164.47        2963.50           1409       16291.00     71151.82
 1164.50        2963.75           1412       18482.00     80742.10
 1164.53        2964.00           1415       21089.00     92159.72
 1164.56        2964.25           1419       24047.00    105123.20
 1164.59        2964.50           1422       26475.00    115770.60
 1164.62        2964.75           1425       28707.00    125564.00
 1164.65        2965.00           1429       31743.00    138893.50
 1164.68        2965.25           1432       34219.00    149771.40
 1164.71        2965.50           1435       36039.00    157771.30
 1164.74        2965.75           1439       38489.00    168546.00
 1164.77        2966.00           1442       40515.00    177460.70
 1164.80        2966.25           1445       42907.00    187991.50
 1164.83        2966.50           1449       45733.00    200440.60
 1164.86        2966.75           1452       46836.00    205301.80
 1164.89        2967.00           1455       47195.00    206884.30
 1164.92        2967.25           1459       47512.00    208281.80
 1164.95        2967.50           1462       47354.00    207585.20
 1164.98        2967.75           1465       47467.00    208083.40
 1165.01        2968.00           1469       46853.00    205376.80
 1165.04        2968.25           1472       45511.00    199462.40
 1165.07        2968.50           1475       44051.00    193030.00
 1165.10        2968.75           1479       41712.00    182729.70
 1165.13        2969.00           1482       39826.00    174428.50
 1165.16        2969.25           1485       37261.00    163144.70
 1165.19        2969.50           1489       34080.00    149160.60
 1165.22        2969.75           1492       31830.00    139275.60
 1165.25        2970.00           1495       29478.00    128948.20
 1165.28        2970.25           1499       26632.00    116459.40
 1165.31        2970.50           1502       24415.00    106736.60
 1165.34        2970.75           1505       21740.00     95011.96
 1165.37        2971.00           1509       19173.00     83767.71
 1165.40        2971.25           1512       17278.00     75471.43
 1165.43        2971.50           1515       15087.00     65883.88
 1165.46        2971.75           1519       12095.00     52799.28
 1165.49        2972.00           1522        9663.00     42170.49
 1165.52        2972.25           1525        7127.00     31093.66
 1165.55        2972.50           1529        4314.00     18814.70
 1165.57        2972.75           1532        2627.00     11454.72
 1165.60        2973.00           1535        1327.00      5785.12
 1165.63        2973.25           1539         448.00      1952.59
 1165.66        2973.50           1542         212.00       923.74
 1165.69        2973.75           1546         159.00       692.69
 1165.72        2974.00           1549         158.00       688.33
 1165.75        2974.25           1552         135.00       588.07
 1165.78        2974.50           1556         132.00       574.99
 1165.81        2974.75           1559         126.00       548.83
 1165.84        2975.00           1562         127.00       553.19
 1165.87        2975.25           1566         119.00       518.32
 1165.90        2975.50           1569         115.00       500.88
 1165.93        2975.75           1572         110.00       479.08
 1165.96        2976.00           1576         115.00       500.88
 1165.99        2976.25           1579         114.00       496.52
 1166.02        2976.50           1582         125.00       544.47
 1166.05        2976.75           1586         119.00       518.32
 1166.08        2977.00           1589         117.00       509.60
 1166.11        2977.25           1592         115.00       500.88
 1166.14        2977.50           1596         112.00       487.80
 1166.17        2977.75           1599         115.00       500.88
 1166.20        2978.00           1602         111.00       483.44
 1166.23        2978.25           1606         109.00       474.72
 1166.26        2978.50           1609         115.00       500.88
 1166.29        2978.75           1612         107.00       466.00
 1166.32        2979.00           1616         122.00       531.39
 1166.35        2979.25           1619         120.00       522.68
 1166.38        2979.50           1622         109.00       474.72
 1166.40        2979.75           1626         115.00       500.88
 1166.43        2980.00           1629         106.00       461.64
 1166.46        2980.25           1632         104.00       452.93
 1166.49        2980.50           1636         102.00       444.21
 1166.52        2980.75           1639         113.00       492.16
 1166.55        2981.00           1642         113.00       492.16
 1166.58        2981.25           1646         108.00       470.36
 1166.61        2981.50           1649         115.00       500.88
 1166.64        2981.75           1653         111.00       483.44
 1166.67        2982.00           1656         111.00       483.44
 1166.70        2982.25           1659         110.00       479.08
 1166.73        2982.50           1663          96.00       418.05
 1166.76        2982.75           1666         116.00       505.24
 1166.79        2983.00           1669          99.00       431.13
 1166.82        2983.25           1673         110.00       479.08
 1166.85        2983.50           1676         103.00       448.57
 1166.88        2983.75           1679         108.00       470.36
 1166.91        2984.00           1683          99.00       431.13
HS scan finished at 19:27:13
end
