************************************************************
  HS Scan of (1) Internal mercury lamp
************************************************************
Integration time is 0.2294 seconds per sample
dh050417DelftKZ 51.997-4.386 2.535944pr1000
************************************************************
Dead Time -------------------------  3E-08 
Number of Cycles Used -------------  4 
Starting Wavelength (Angstroms) ---  2950 
Final Wavelength (Angstoms) -------  2984 
Wavelength Increment (Angstroms) --  .25 
Filter Wheel #1 Position ---------- (1) Ground quartz diffuser (ND=2.32)
Filter Wheel #2 Position ---------- (1) Neutral Density 0.494



************************************************************
HS scan start time = 03:35:17
Dark Count =  0 


Time (GMT)  Wavelength (Ang)  Step Number  Raw Counts  Counts/Second

  215.74        2950.00           1229         132.00       575.42
  215.83        2950.25           1232         125.00       544.91
  215.86        2950.50           1236         129.00       562.35
  215.89        2950.75           1239         128.00       557.99
  215.92        2951.00           1242         134.00       584.14
  215.94        2951.25           1246         126.00       549.27
  215.97        2951.50           1249         129.00       562.35
  216.00        2951.75           1252         128.00       557.99
  216.03        2952.00           1255         127.00       553.63
  216.06        2952.25           1259         115.00       501.32
  216.08        2952.50           1262         119.00       518.75
  216.11        2952.75           1265         124.00       540.55
  216.14        2953.00           1269         133.00       579.78
  216.17        2953.25           1272         117.00       510.03
  216.20        2953.50           1275         129.00       562.35
  216.23        2953.75           1279         123.00       536.19
  216.26        2954.00           1282         127.00       553.63
  216.28        2954.25           1285         125.00       544.91
  216.31        2954.50           1289         126.00       549.27
  216.34        2954.75           1292         128.00       557.99
  216.37        2955.00           1295         128.00       557.99
  216.40        2955.25           1299         134.00       584.14
  216.43        2955.50           1302         124.00       540.55
  216.46        2955.75           1305         125.00       544.91
  216.49        2956.00           1309         129.00       562.35
  216.51        2956.25           1312         115.00       501.32
  216.54        2956.50           1315         129.00       562.35
  216.57        2956.75           1319         127.00       553.63
  216.60        2957.00           1322         128.00       557.99
  216.63        2957.25           1325         132.00       575.42
  216.65        2957.50           1329         124.00       540.55
  216.68        2957.75           1332         131.00       571.06
  216.71        2958.00           1335         113.00       492.60
  216.74        2958.25           1339         117.00       510.03
  216.76        2958.50           1342         122.00       531.83
  216.79        2958.75           1345         122.00       531.83
  216.82        2959.00           1349         126.00       549.27
  216.85        2959.25           1352         119.00       518.75
  216.88        2959.50           1355         129.00       562.35
  216.91        2959.75           1359         112.00       488.24
  216.94        2960.00           1362         128.00       557.99
  216.96        2960.25           1365         117.00       510.03
  216.99        2960.50           1369         134.00       584.14
  217.02        2960.75           1372         141.00       614.66
  217.05        2961.00           1375         145.00       632.10
  217.07        2961.25           1379         152.00       662.61
  217.10        2961.50           1382         243.00      1059.32
  217.13        2961.75           1385         838.00      3653.41
  217.16        2962.00           1389        2526.00     11014.97
  217.18        2962.25           1392        4193.00     18288.15
  217.21        2962.50           1395        6146.00     26813.19
  217.24        2962.75           1399        9198.00     40144.22
  217.27        2963.00           1402       12100.00     52829.96
  217.30        2963.25           1405       14629.00     63893.07
  217.32        2963.50           1409       17163.00     74985.41
  217.35        2963.75           1412       19717.00     86172.79
  217.38        2964.00           1415       22196.00     97038.84
  217.41        2964.25           1419       25929.00    113414.90
  217.43        2964.50           1422       28805.00    126042.40
  217.46        2964.75           1425       31191.00    136525.80
  217.49        2965.00           1429       34217.00    149830.60
  217.52        2965.25           1432       36665.00    160601.90
  217.55        2965.50           1435       39293.00    172173.00
  217.58        2965.75           1439       42396.00    185845.80
  217.61        2966.00           1442       45028.00    197452.10
  217.63        2966.25           1445       47569.00    208664.90
  217.66        2966.50           1449       50175.00    220172.30
  217.69        2966.75           1452       51170.00    224568.00
  217.72        2967.00           1455       51662.00    226742.00
  217.75        2967.25           1459       51797.00    227338.60
  217.77        2967.50           1462       51635.00    226622.70
  217.80        2967.75           1465       51773.00    227232.50
  217.83        2968.00           1469       50639.00    222222.00
  217.86        2968.25           1472       49071.00    215296.30
  217.88        2968.50           1475       46980.00    206065.10
  217.91        2968.75           1479       43730.00    191727.40
  217.94        2969.00           1482       41484.00    181826.10
  217.97        2969.25           1485       39303.00    172217.00
  218.00        2969.50           1489       36143.00    158304.50
  218.02        2969.75           1492       33681.00    147473.20
  218.05        2970.00           1495       31584.00    138253.10
  218.08        2970.25           1499       28370.00    124131.90
  218.11        2970.50           1502       26318.00    115122.30
  218.13        2970.75           1505       24216.00    105898.20
  218.16        2971.00           1509       21330.00     93242.16
  218.19        2971.25           1512       18751.00     81940.50
  218.22        2971.50           1515       16249.00     70983.61
  218.25        2971.75           1519       12810.00     55935.11
  218.27        2972.00           1522       10255.00     44763.65
  218.30        2972.25           1525        8022.00     35006.23
  218.33        2972.50           1529        4946.00     21574.55
  218.36        2972.75           1532        2641.00     11516.62
  218.38        2973.00           1536         898.00      3915.02
  218.41        2973.25           1539         411.00      1791.73
  218.44        2973.50           1542         214.00       932.89
  218.47        2973.75           1546         155.00       675.69
  218.49        2974.00           1549         147.00       640.81
  218.52        2974.25           1552         141.00       614.66
  218.55        2974.50           1556         126.00       549.27
  218.58        2974.75           1559         123.00       536.19
  218.60        2975.00           1562         122.00       531.83
  218.63        2975.25           1566         115.00       501.32
  218.66        2975.50           1569         122.00       531.83
  218.69        2975.75           1572         117.00       510.03
  218.72        2976.00           1576          99.00       431.57
  218.74        2976.25           1579         105.00       457.72
  218.77        2976.50           1582         116.00       505.67
  218.80        2976.75           1586         113.00       492.60
  218.83        2977.00           1589         114.00       496.96
  218.86        2977.25           1592         110.00       479.52
  218.89        2977.50           1596         111.00       483.88
  218.92        2977.75           1599         112.00       488.24
  218.94        2978.00           1602         106.00       462.08
  218.97        2978.25           1606         117.00       510.03
  219.00        2978.50           1609         108.00       470.80
  219.03        2978.75           1612         100.00       435.93
  219.05        2979.00           1616         109.00       475.16
  219.08        2979.25           1619         113.00       492.60
  219.11        2979.50           1623         108.00       470.80
  219.14        2979.75           1626         116.00       505.67
  219.16        2980.00           1629         102.00       444.64
  219.19        2980.25           1633         108.00       470.80
  219.22        2980.50           1636         107.00       466.44
  219.25        2980.75           1639         105.00       457.72
  219.27        2981.00           1643         109.00       475.16
  219.30        2981.25           1646         104.00       453.36
  219.33        2981.50           1649         116.00       505.67
  219.36        2981.75           1653         112.00       488.24
  219.39        2982.00           1656         119.00       518.75
  219.41        2982.25           1659          94.00       409.77
  219.44        2982.50           1663         107.00       466.44
  219.47        2982.75           1666         106.00       462.08
  219.50        2983.00           1669         110.00       479.52
  219.52        2983.25           1673          94.00       409.77
  219.55        2983.50           1676          98.00       427.21
  219.58        2983.75           1679         113.00       492.60
  219.61        2984.00           1683         102.00       444.64
HS scan finished at 03:39:54
end
