************************************************************
  HS Scan of (1) Internal mercury lamp
************************************************************
Integration time is 0.2294 seconds per sample
dh080418Delft 51.9969-4.3863 2.696889pr1000
************************************************************
Dead Time -------------------------  2.7E-08 
Number of Cycles Used -------------  4 
Starting Wavelength (Angstroms) ---  2950 
Final Wavelength (Angstoms) -------  2984 
Wavelength Increment (Angstroms) --  .25 
Filter Wheel #1 Position ---------- (1) Ground quartz diffuser (ND=2.32)
Filter Wheel #2 Position ---------- (1) Neutral Density 0.494



************************************************************
HS scan start time = 03:42:10
Dark Count =  0 


Time (GMT)  Wavelength (Ang)  Step Number  Raw Counts  Counts/Second

  222.63        2950.00           1229         120.00       523.11
  222.73        2950.25           1232         131.00       571.06
  222.76        2950.50           1236         118.00       514.39
  222.79        2950.75           1239         122.00       531.83
  222.82        2951.00           1242         130.00       566.70
  222.85        2951.25           1246         127.00       553.63
  222.88        2951.50           1249         120.00       523.11
  222.91        2951.75           1252         113.00       492.60
  222.94        2952.00           1256         119.00       518.75
  222.97        2952.25           1259         127.00       553.63
  223.00        2952.50           1262         118.00       514.39
  223.03        2952.75           1266         120.00       523.11
  223.06        2953.00           1269         123.00       536.19
  223.09        2953.25           1272         119.00       518.75
  223.12        2953.50           1276         118.00       514.39
  223.15        2953.75           1279         120.00       523.11
  223.18        2954.00           1282         117.00       510.03
  223.21        2954.25           1286         124.00       540.55
  223.24        2954.50           1289         127.00       553.63
  223.27        2954.75           1292         130.00       566.70
  223.30        2955.00           1296         124.00       540.55
  223.33        2955.25           1299         127.00       553.63
  223.36        2955.50           1302         124.00       540.55
  223.39        2955.75           1306         119.00       518.75
  223.42        2956.00           1309         112.00       488.24
  223.45        2956.25           1312         129.00       562.35
  223.47        2956.50           1316         122.00       531.83
  223.50        2956.75           1319         110.00       479.52
  223.53        2957.00           1322         122.00       531.83
  223.56        2957.25           1326         117.00       510.03
  223.59        2957.50           1329         120.00       523.11
  223.62        2957.75           1332         118.00       514.39
  223.65        2958.00           1336         113.00       492.60
  223.68        2958.25           1339         124.00       540.55
  223.71        2958.50           1342         116.00       505.67
  223.74        2958.75           1345         130.00       566.70
  223.77        2959.00           1349         115.00       501.31
  223.80        2959.25           1352         124.00       540.55
  223.83        2959.50           1355         121.00       527.47
  223.86        2959.75           1359         121.00       527.47
  223.89        2960.00           1362         124.00       540.55
  223.92        2960.25           1365         117.00       510.03
  223.95        2960.50           1369         119.00       518.75
  223.98        2960.75           1372         133.00       579.78
  224.01        2961.00           1375         135.00       588.50
  224.04        2961.25           1379         145.00       632.09
  224.07        2961.50           1382         224.00       976.49
  224.10        2961.75           1385         656.00      2859.85
  224.13        2962.00           1389        2516.00     10970.99
  224.16        2962.25           1392        4741.00     20678.50
  224.19        2962.50           1395        6943.00     30290.68
  224.22        2962.75           1399       10963.00     47851.67
  224.25        2963.00           1402       13950.00     60910.90
  224.28        2963.25           1405       16765.00     73226.60
  224.31        2963.50           1409       20590.00     89974.19
  224.34        2963.75           1412       23267.00    101704.40
  224.37        2964.00           1415       26220.00    114652.50
  224.40        2964.25           1419       29502.00    129054.00
  224.43        2964.50           1422       31939.00    139754.80
  224.46        2964.75           1425       34692.00    151850.60
  224.49        2965.00           1429       38076.00    166729.70
  224.52        2965.25           1432       40809.00    178755.20
  224.55        2965.50           1435       43264.00    189564.10
  224.58        2965.75           1439       46719.00    204786.60
  224.61        2966.00           1442       49015.00    214909.50
  224.64        2966.25           1445       51619.00    226397.10
  224.67        2966.50           1449       55248.00    242418.50
  224.70        2966.75           1452       56578.00    248293.70
  224.73        2967.00           1455       57350.00    251704.80
  224.76        2967.25           1459       57347.00    251691.50
  224.79        2967.50           1462       57440.00    252102.50
  224.82        2967.75           1465       57330.00    251616.40
  224.84        2968.00           1469       56352.00    247295.20
  224.88        2968.25           1472       54728.00    240121.90
  224.90        2968.50           1475       52235.00    229115.70
  224.94        2968.75           1479       48486.00    212576.70
  224.97        2969.00           1482       46354.00    203177.80
  224.99        2969.25           1485       43715.00    191550.50
  225.02        2969.50           1489       40237.00    176237.70
  225.05        2969.75           1492       37593.00    164605.30
  225.09        2970.00           1495       35222.00    154180.20
  225.11        2970.25           1499       31912.00    139636.20
  225.15        2970.50           1502       29088.00    127236.70
  225.18        2970.75           1505       26364.00    115284.20
  225.21        2971.00           1509       22153.00     96822.09
  225.23        2971.25           1512       19629.00     85765.07
  225.26        2971.50           1515       17351.00     75791.38
  225.29        2971.75           1519       13953.00     60924.03
  225.32        2972.00           1522       11403.00     49774.78
  225.35        2972.25           1525        8693.00     37933.34
  225.38        2972.50           1529        5264.00     22961.05
  225.41        2972.75           1532        2992.00     13047.32
  225.44        2973.00           1535        1454.00      6339.36
  225.47        2973.25           1539         490.00      2136.13
  225.50        2973.50           1542         217.00       945.97
  225.53        2973.75           1546         160.00       697.48
  225.56        2974.00           1549         142.00       619.02
  225.59        2974.25           1552         138.00       601.58
  225.62        2974.50           1556         130.00       566.70
  225.65        2974.75           1559         120.00       523.11
  225.68        2975.00           1562         119.00       518.75
  225.71        2975.25           1566         107.00       466.44
  225.74        2975.50           1569         112.00       488.24
  225.77        2975.75           1572         107.00       466.44
  225.80        2976.00           1576         116.00       505.67
  225.83        2976.25           1579         119.00       518.75
  225.86        2976.50           1582         109.00       475.16
  225.89        2976.75           1586         114.00       496.96
  225.92        2977.00           1589         102.00       444.64
  225.95        2977.25           1592         113.00       492.60
  225.98        2977.50           1596         113.00       492.60
  226.01        2977.75           1599         110.00       479.52
  226.04        2978.00           1602         106.00       462.08
  226.07        2978.25           1606         104.00       453.36
  226.10        2978.50           1609          91.00       396.69
  226.13        2978.75           1612         108.00       470.80
  226.16        2979.00           1616         112.00       488.24
  226.19        2979.25           1619         105.00       457.72
  226.22        2979.50           1622         107.00       466.44
  226.24        2979.75           1626         112.00       488.24
  226.28        2980.00           1629         105.00       457.72
  226.30        2980.25           1632         106.00       462.08
  226.33        2980.50           1636         106.00       462.08
  226.36        2980.75           1639         109.00       475.16
  226.39        2981.00           1642         115.00       501.31
  226.42        2981.25           1646         107.00       466.44
  226.45        2981.50           1649         102.00       444.64
  226.48        2981.75           1653         115.00       501.31
  226.51        2982.00           1656          99.00       431.57
  226.54        2982.25           1659          97.00       422.85
  226.57        2982.50           1663         105.00       457.72
  226.60        2982.75           1666         111.00       483.88
  226.63        2983.00           1669         100.00       435.92
  226.66        2983.25           1673         114.00       496.96
  226.69        2983.50           1676         107.00       466.44
  226.72        2983.75           1679         105.00       457.72
  226.75        2984.00           1683          97.00       422.85
HS scan finished at 03:47:03
end
************************************************************
  HS Scan of (1) Internal mercury lamp
************************************************************
Integration time is 0.2294 seconds per sample
dh080418Delft 51.9969-4.3863 2.857833pr1000
************************************************************
Dead Time -------------------------  2.7E-08 
Number of Cycles Used -------------  4 
Starting Wavelength (Angstroms) ---  2950 
Final Wavelength (Angstoms) -------  2984 
Wavelength Increment (Angstroms) --  .25 
Filter Wheel #1 Position ---------- (1) Ground quartz diffuser (ND=2.32)
Filter Wheel #2 Position ---------- (1) Neutral Density 0.494



************************************************************
HS scan start time = 19:27:28
Dark Count =  .1 


Time (GMT)  Wavelength (Ang)  Step Number  Raw Counts  Counts/Second

 1167.93        2950.00           1229         109.00       474.72
 1168.03        2950.25           1232         119.00       518.32
 1168.06        2950.50           1236         122.00       531.39
 1168.09        2950.75           1239         115.00       500.88
 1168.12        2951.00           1242         123.00       535.75
 1168.15        2951.25           1246         119.00       518.32
 1168.18        2951.50           1249         130.00       566.27
 1168.21        2951.75           1252         130.00       566.27
 1168.24        2952.00           1256         110.00       479.08
 1168.27        2952.25           1259         122.00       531.39
 1168.30        2952.50           1262         114.00       496.52
 1168.33        2952.75           1266         121.00       527.03
 1168.36        2953.00           1269         122.00       531.39
 1168.39        2953.25           1272         112.00       487.80
 1168.42        2953.50           1276         118.00       513.96
 1168.44        2953.75           1279         125.00       544.47
 1168.47        2954.00           1282         118.00       513.96
 1168.50        2954.25           1286         131.00       570.63
 1168.53        2954.50           1289         116.00       505.24
 1168.56        2954.75           1292         108.00       470.36
 1168.59        2955.00           1296         118.00       513.96
 1168.62        2955.25           1299         111.00       483.44
 1168.65        2955.50           1302         121.00       527.03
 1168.68        2955.75           1306         109.00       474.72
 1168.71        2956.00           1309         119.00       518.32
 1168.74        2956.25           1312         126.00       548.83
 1168.77        2956.50           1316         116.00       505.24
 1168.80        2956.75           1319         110.00       479.08
 1168.83        2957.00           1322         122.00       531.39
 1168.86        2957.25           1326         124.00       540.11
 1168.89        2957.50           1329         115.00       500.88
 1168.92        2957.75           1332         127.00       553.19
 1168.95        2958.00           1336         128.00       557.55
 1168.98        2958.25           1339         123.00       535.75
 1169.01        2958.50           1342         115.00       500.88
 1169.04        2958.75           1345         115.00       500.88
 1169.07        2959.00           1349         105.00       457.29
 1169.10        2959.25           1352         111.00       483.44
 1169.13        2959.50           1355         114.00       496.52
 1169.16        2959.75           1359         115.00       500.88
 1169.19        2960.00           1362         111.00       483.44
 1169.22        2960.25           1365         118.00       513.96
 1169.25        2960.50           1369         125.00       544.47
 1169.28        2960.75           1372         125.00       544.47
 1169.31        2961.00           1375         134.00       583.71
 1169.34        2961.25           1379         144.00       627.30
 1169.37        2961.50           1382         164.00       714.49
 1169.40        2961.75           1385         487.00      2122.62
 1169.43        2962.00           1389        2121.00      9247.73
 1169.46        2962.25           1392        4204.00     18334.71
 1169.49        2962.50           1395        6926.00     30216.01
 1169.52        2962.75           1399       10689.00     46653.76
 1169.55        2963.00           1402       13727.00     59935.19
 1169.58        2963.25           1405       16278.00     71094.94
 1169.61        2963.50           1409       20698.00     90446.86
 1169.64        2963.75           1412       23509.00    102764.70
 1169.67        2964.00           1415       25918.00    113327.50
 1169.70        2964.25           1419       29539.00    129216.00
 1169.73        2964.50           1422       32382.00    141700.20
 1169.76        2964.75           1425       35133.00    153788.50
 1169.79        2965.00           1429       38973.00    170675.30
 1169.82        2965.25           1432       41655.00    182478.80
 1169.85        2965.50           1435       44116.00    193316.30
 1169.88        2965.75           1439       47472.00    208105.40
 1169.91        2966.00           1442       50384.00    220947.60
 1169.94        2966.25           1445       53288.00    233763.30
 1169.97        2966.50           1449       56592.00    248355.10
 1170.00        2966.75           1452       58094.00    254992.40
 1170.03        2967.00           1455       58813.00    258170.40
 1170.06        2967.25           1459       59203.00    259894.50
 1170.09        2967.50           1462       59254.00    260120.00
 1170.12        2967.75           1465       59014.00    259059.00
 1170.15        2968.00           1469       57919.00    254218.90
 1170.17        2968.25           1472       56445.00    247705.60
 1170.21        2968.50           1475       54173.00    237670.70
 1170.23        2968.75           1479       50797.00    222769.60
 1170.26        2969.00           1482       48269.00    211619.40
 1170.30        2969.25           1485       45735.00    200449.40
 1170.32        2969.50           1489       42452.00    185987.90
 1170.35        2969.75           1492       40176.00    175968.80
 1170.38        2970.00           1495       37396.00    163738.40
 1170.42        2970.25           1499       33838.00    148097.10
 1170.45        2970.50           1502       30669.00    134177.00
 1170.48        2970.75           1505       27408.00    119863.80
 1170.51        2971.00           1509       23771.00    103913.20
 1170.54        2971.25           1512       21384.00     93452.16
 1170.56        2971.50           1515       18640.00     81433.87
 1170.59        2971.75           1519       15142.00     66124.50
 1170.62        2972.00           1522       12131.00     52956.66
 1170.65        2972.25           1525        9480.00     41370.95
 1170.68        2972.50           1529        6269.00     27347.56
 1170.71        2972.75           1532        3945.00     17204.59
 1170.74        2973.00           1535        2153.00      9387.30
 1170.77        2973.25           1539         536.00      2336.24
 1170.80        2973.50           1542         219.00       954.25
 1170.83        2973.75           1546         156.00       679.61
 1170.86        2974.00           1549         146.00       636.02
 1170.89        2974.25           1552         148.00       644.74
 1170.92        2974.50           1556         139.00       605.50
 1170.95        2974.75           1559         119.00       518.32
 1170.98        2975.00           1562         120.00       522.68
 1171.01        2975.25           1566         118.00       513.96
 1171.04        2975.50           1569         109.00       474.72
 1171.07        2975.75           1572         107.00       466.00
 1171.10        2976.00           1576         112.00       487.80
 1171.13        2976.25           1579         113.00       492.16
 1171.16        2976.50           1582         105.00       457.29
 1171.19        2976.75           1586         105.00       457.29
 1171.22        2977.00           1589         111.00       483.44
 1171.25        2977.25           1592         108.00       470.36
 1171.28        2977.50           1596         107.00       466.00
 1171.31        2977.75           1599         111.00       483.44
 1171.34        2978.00           1602         112.00       487.80
 1171.37        2978.25           1606         107.00       466.00
 1171.40        2978.50           1609         111.00       483.44
 1171.43        2978.75           1612          94.00       409.33
 1171.46        2979.00           1616         104.00       452.93
 1171.49        2979.25           1619         101.00       439.85
 1171.52        2979.50           1622         105.00       457.29
 1171.55        2979.75           1626          98.00       426.77
 1171.58        2980.00           1629          93.00       404.97
 1171.61        2980.25           1632         105.00       457.29
 1171.64        2980.50           1636         108.00       470.36
 1171.67        2980.75           1639          98.00       426.77
 1171.70        2981.00           1642         109.00       474.72
 1171.73        2981.25           1646         101.00       439.85
 1171.76        2981.50           1649         110.00       479.08
 1171.79        2981.75           1653         100.00       435.49
 1171.81        2982.00           1656          94.00       409.33
 1171.84        2982.25           1659          99.00       431.13
 1171.87        2982.50           1663         100.00       435.49
 1171.90        2982.75           1666         103.00       448.57
 1171.93        2983.00           1669         108.00       470.36
 1171.96        2983.25           1673         101.00       439.85
 1171.99        2983.50           1676          95.00       413.69
 1172.02        2983.75           1679         111.00       483.44
 1172.05        2984.00           1683          99.00       431.13
HS scan finished at 19:32:22
end
