************************************************************
  HS Scan of (1) Internal mercury lamp
************************************************************
Integration time is 0.2294 seconds per sample
dh040417DelftKZ 51.997-4.386 2.535944pr1000
************************************************************
Dead Time -------------------------  3E-08 
Number of Cycles Used -------------  4 
Starting Wavelength (Angstroms) ---  2950 
Final Wavelength (Angstoms) -------  2984 
Wavelength Increment (Angstroms) --  .25 
Filter Wheel #1 Position ---------- (1) Ground quartz diffuser (ND=2.32)
Filter Wheel #2 Position ---------- (1) Neutral Density 0.494



************************************************************
HS scan start time = 03:38:29
Dark Count =  0 


Time (GMT)  Wavelength (Ang)  Step Number  Raw Counts  Counts/Second

  218.93        2950.00           1229         128.00       557.99
  219.03        2950.25           1232         128.00       557.99
  219.06        2950.50           1236         126.00       549.27
  219.09        2950.75           1239         129.00       562.35
  219.11        2951.00           1242         124.00       540.55
  219.14        2951.25           1246         138.00       601.58
  219.17        2951.50           1249         139.00       605.94
  219.20        2951.75           1252         134.00       584.14
  219.23        2952.00           1255         128.00       557.99
  219.26        2952.25           1259         124.00       540.55
  219.29        2952.50           1262         139.00       605.94
  219.32        2952.75           1265         130.00       566.71
  219.35        2953.00           1269         130.00       566.71
  219.37        2953.25           1272         120.00       523.11
  219.40        2953.50           1275         139.00       605.94
  219.43        2953.75           1279         124.00       540.55
  219.46        2954.00           1282         116.00       505.67
  219.49        2954.25           1285         130.00       566.71
  219.51        2954.50           1289         124.00       540.55
  219.54        2954.75           1292         132.00       575.42
  219.57        2955.00           1295         138.00       601.58
  219.60        2955.25           1299         125.00       544.91
  219.62        2955.50           1302         122.00       531.83
  219.65        2955.75           1305         129.00       562.35
  219.68        2956.00           1309         127.00       553.63
  219.71        2956.25           1312         129.00       562.35
  219.73        2956.50           1315         124.00       540.55
  219.76        2956.75           1319         132.00       575.42
  219.79        2957.00           1322         114.00       496.96
  219.82        2957.25           1325         128.00       557.99
  219.85        2957.50           1329         129.00       562.35
  219.88        2957.75           1332         124.00       540.55
  219.91        2958.00           1335         124.00       540.55
  219.94        2958.25           1339         133.00       579.78
  219.97        2958.50           1342         119.00       518.75
  220.00        2958.75           1345         128.00       557.99
  220.02        2959.00           1349         130.00       566.71
  220.05        2959.25           1352         110.00       479.52
  220.08        2959.50           1355         126.00       549.27
  220.11        2959.75           1359         130.00       566.71
  220.13        2960.00           1362         116.00       505.67
  220.16        2960.25           1365         129.00       562.35
  220.19        2960.50           1369         120.00       523.11
  220.22        2960.75           1372         146.00       636.46
  220.25        2961.00           1375         148.00       645.17
  220.28        2961.25           1379         146.00       636.46
  220.31        2961.50           1382         213.00       928.54
  220.33        2961.75           1385         580.00      2528.53
  220.36        2962.00           1389        2432.00     10604.94
  220.39        2962.25           1392        4282.00     18676.55
  220.42        2962.50           1395        6472.00     28236.64
  220.45        2962.75           1399        9691.00     42298.64
  220.47        2963.00           1402       12194.00     53241.03
  220.50        2963.25           1405       14637.00     63928.07
  220.53        2963.50           1409       17784.00     77704.91
  220.56        2963.75           1412       20713.00     90537.66
  220.58        2964.00           1415       22953.00    100358.40
  220.61        2964.25           1419       25712.00    112462.50
  220.64        2964.50           1422       28342.00    124008.90
  220.67        2964.75           1425       30536.00    133647.30
  220.70        2965.00           1429       33737.00    147719.40
  220.72        2965.25           1432       36531.00    160012.10
  220.75        2965.50           1435       38847.00    170208.70
  220.78        2965.75           1439       41942.00    183844.70
  220.81        2966.00           1442       44238.00    193967.60
  220.83        2966.25           1445       46424.00    203611.30
  220.86        2966.50           1449       49255.00    216108.90
  220.89        2966.75           1452       50526.00    221722.80
  220.92        2967.00           1455       50860.00    223198.40
  220.95        2967.25           1459       51130.00    224391.30
  220.97        2967.50           1462       51105.00    224280.80
  221.00        2967.75           1465       51190.00    224656.40
  221.03        2968.00           1469       50612.00    222102.70
  221.06        2968.25           1472       48978.00    214885.60
  221.08        2968.50           1475       46900.00    205712.00
  221.11        2968.75           1479       44144.00    193553.10
  221.14        2969.00           1482       41606.00    182363.80
  221.17        2969.25           1485       39085.00    171256.90
  221.20        2969.50           1489       35921.00    157327.60
  221.22        2969.75           1492       33832.00    148137.30
  221.25        2970.00           1495       32066.00    140371.90
  221.28        2970.25           1499       28961.00    126727.60
  221.31        2970.50           1502       26658.00    116614.80
  221.33        2970.75           1505       24133.00    105534.10
  221.36        2971.00           1509       20689.00     90432.46
  221.39        2971.25           1512       18479.00     80749.00
  221.42        2971.50           1515       15976.00     69788.51
  221.45        2971.75           1519       13009.00     56805.54
  221.48        2972.00           1522       10512.00     45887.02
  221.51        2972.25           1525        8016.00     34980.02
  221.53        2972.50           1529        5036.00     21967.40
  221.56        2972.75           1532        2952.00     12873.32
  221.59        2973.00           1536        1086.00      4734.76
  221.62        2973.25           1539         464.00      2022.79
  221.65        2973.50           1542         204.00       889.30
  221.68        2973.75           1546         157.00       684.41
  221.71        2974.00           1549         140.00       610.30
  221.74        2974.25           1552         140.00       610.30
  221.77        2974.50           1556         127.00       553.63
  221.80        2974.75           1559         128.00       557.99
  221.82        2975.00           1562         121.00       527.47
  221.85        2975.25           1566         127.00       553.63
  221.88        2975.50           1569         126.00       549.27
  221.91        2975.75           1572         115.00       501.32
  221.93        2976.00           1576         111.00       483.88
  221.96        2976.25           1579         119.00       518.75
  221.99        2976.50           1582         106.00       462.08
  222.02        2976.75           1586         112.00       488.24
  222.04        2977.00           1589         112.00       488.24
  222.07        2977.25           1592         105.00       457.72
  222.10        2977.50           1596         112.00       488.24
  222.13        2977.75           1599         118.00       514.39
  222.15        2978.00           1602         112.00       488.24
  222.18        2978.25           1606         107.00       466.44
  222.21        2978.50           1609         102.00       444.64
  222.24        2978.75           1612         113.00       492.60
  222.27        2979.00           1616         106.00       462.08
  222.29        2979.25           1619         113.00       492.60
  222.32        2979.50           1623         118.00       514.39
  222.35        2979.75           1626         114.00       496.96
  222.38        2980.00           1629         118.00       514.39
  222.40        2980.25           1633         114.00       496.96
  222.43        2980.50           1636         101.00       440.28
  222.46        2980.75           1639         110.00       479.52
  222.49        2981.00           1643         109.00       475.16
  222.51        2981.25           1646         106.00       462.08
  222.54        2981.50           1649         107.00       466.44
  222.57        2981.75           1653         102.00       444.64
  222.60        2982.00           1656         112.00       488.24
  222.63        2982.25           1659         112.00       488.24
  222.65        2982.50           1663         111.00       483.88
  222.68        2982.75           1666          99.00       431.57
  222.71        2983.00           1669         104.00       453.36
  222.74        2983.25           1673          99.00       431.57
  222.76        2983.50           1676          98.00       427.21
  222.79        2983.75           1679         111.00       483.88
  222.82        2984.00           1683         108.00       470.80
HS scan finished at 03:43:07
end
