************************************************************
  HS Scan of (1) Internal mercury lamp
************************************************************
Integration time is 0.2294 seconds per sample
dh070417DelftKZ 51.997-4.386 2.375pr1000
************************************************************
Dead Time -------------------------  3E-08 
Number of Cycles Used -------------  4 
Starting Wavelength (Angstroms) ---  2950 
Final Wavelength (Angstoms) -------  2984 
Wavelength Increment (Angstroms) --  .25 
Filter Wheel #1 Position ---------- (1) Ground quartz diffuser (ND=2.32)
Filter Wheel #2 Position ---------- (1) Neutral Density 0.494



************************************************************
HS scan start time = 00:32:28
Dark Count =  .1 


Time (GMT)  Wavelength (Ang)  Step Number  Raw Counts  Counts/Second

   32.93        2950.00           1229         131.00       570.63
   33.02        2950.25           1232         126.00       548.83
   33.05        2950.50           1236         143.00       622.94
   33.08        2950.75           1239         132.00       574.99
   33.11        2951.00           1242         138.00       601.14
   33.14        2951.25           1246         143.00       622.94
   33.17        2951.50           1249         128.00       557.55
   33.19        2951.75           1252         138.00       601.14
   33.22        2952.00           1255         135.00       588.07
   33.25        2952.25           1259         127.00       553.19
   33.28        2952.50           1262         129.00       561.91
   33.31        2952.75           1265         115.00       500.88
   33.33        2953.00           1269         129.00       561.91
   33.36        2953.25           1272         130.00       566.27
   33.39        2953.50           1275         138.00       601.14
   33.42        2953.75           1279         125.00       544.47
   33.45        2954.00           1282         125.00       544.47
   33.47        2954.25           1285         133.00       579.35
   33.50        2954.50           1289         127.00       553.19
   33.53        2954.75           1292         132.00       574.99
   33.56        2955.00           1295         132.00       574.99
   33.58        2955.25           1299         134.00       583.71
   33.61        2955.50           1302         122.00       531.39
   33.64        2955.75           1305         127.00       553.19
   33.67        2956.00           1309         128.00       557.55
   33.69        2956.25           1312         131.00       570.63
   33.72        2956.50           1315         121.00       527.04
   33.75        2956.75           1319         124.00       540.11
   33.78        2957.00           1322         122.00       531.39
   33.81        2957.25           1325         126.00       548.83
   33.84        2957.50           1329         122.00       531.39
   33.87        2957.75           1332         134.00       583.71
   33.89        2958.00           1335         118.00       513.96
   33.93        2958.25           1339         122.00       531.39
   33.96        2958.50           1342         128.00       557.55
   33.98        2958.75           1345         128.00       557.55
   34.01        2959.00           1349         123.00       535.75
   34.04        2959.25           1352         128.00       557.55
   34.07        2959.50           1355         138.00       601.14
   34.09        2959.75           1359         131.00       570.63
   34.12        2960.00           1362         129.00       561.91
   34.15        2960.25           1365         129.00       561.91
   34.18        2960.50           1369         121.00       527.04
   34.20        2960.75           1372         125.00       544.47
   34.23        2961.00           1375         146.00       636.02
   34.26        2961.25           1379         159.00       692.69
   34.29        2961.50           1382         262.00      1141.71
   34.31        2961.75           1385         882.00      3844.82
   34.34        2962.00           1389        2691.00     11734.30
   34.37        2962.25           1392        4411.00     19239.09
   34.40        2962.50           1395        6344.00     27677.29
   34.43        2962.75           1399        9375.00     40917.24
   34.45        2963.00           1402       11782.00     51438.96
   34.48        2963.25           1405       13996.00     61122.88
   34.51        2963.50           1409       17647.00     77104.48
   34.54        2963.75           1412       20041.00     87592.12
   34.57        2964.00           1415       22564.00     98652.04
   34.60        2964.25           1419       25959.00    113546.10
   34.63        2964.50           1422       28391.00    124223.60
   34.65        2964.75           1425       30905.00    135268.40
   34.68        2965.00           1429       33650.00    147336.40
   34.71        2965.25           1432       35612.00    155967.40
   34.74        2965.50           1435       38042.00    166663.40
   34.77        2965.75           1439       41041.00    179873.40
   34.79        2966.00           1442       43455.00    190514.30
   34.82        2966.25           1445       45555.00    199776.60
   34.85        2966.50           1449       47981.00    210483.10
   34.88        2966.75           1452       49023.00    215083.90
   34.90        2967.00           1455       49608.00    217667.40
   34.93        2967.25           1459       49954.00    219195.60
   34.96        2967.50           1462       49616.00    217702.70
   34.99        2967.75           1465       49809.00    218555.20
   35.02        2968.00           1469       48749.00    213874.00
   35.04        2968.25           1472       47345.00    207675.60
   35.07        2968.50           1475       45652.00    200204.50
   35.10        2968.75           1479       42771.00    187498.50
   35.13        2969.00           1482       40227.00    176286.90
   35.16        2969.25           1485       37789.00    165549.50
   35.19        2969.50           1489       34429.00    150762.70
   35.22        2969.75           1492       32406.00    141866.20
   35.24        2970.00           1495       30160.00    131994.60
   35.27        2970.25           1499       27270.00    119301.10
   35.30        2970.50           1502       24867.00    108754.00
   35.33        2970.75           1505       23377.00    102217.50
   35.36        2971.00           1509       20181.00     88205.64
   35.39        2971.25           1512       17534.00     76609.62
   35.42        2971.50           1515       15006.00     65542.45
   35.44        2971.75           1519       11748.00     51290.29
   35.47        2972.00           1522        9363.00     40864.81
   35.50        2972.25           1525        7272.00     31729.84
   35.53        2972.50           1529        4326.00     18868.13
   35.55        2972.75           1532        2373.00     10347.15
   35.58        2973.00           1536         693.00      3020.76
   35.61        2973.25           1539         286.00      1246.34
   35.64        2973.50           1542         186.00       810.39
   35.67        2973.75           1546         152.00       662.18
   35.70        2974.00           1549         141.00       614.22
   35.73        2974.25           1552         135.00       588.07
   35.76        2974.50           1556         121.00       527.04
   35.78        2974.75           1559         122.00       531.39
   35.81        2975.00           1562         107.00       466.00
   35.84        2975.25           1566         122.00       531.39
   35.87        2975.50           1569         114.00       496.52
   35.89        2975.75           1572         118.00       513.96
   35.92        2976.00           1576         104.00       452.93
   35.95        2976.25           1579         115.00       500.88
   35.98        2976.50           1582         110.00       479.08
   36.00        2976.75           1586         122.00       531.39
   36.04        2977.00           1589         123.00       535.75
   36.07        2977.25           1592         100.00       435.49
   36.09        2977.50           1596         111.00       483.44
   36.12        2977.75           1599         120.00       522.68
   36.15        2978.00           1602         110.00       479.08
   36.18        2978.25           1606         111.00       483.44
   36.20        2978.50           1609         105.00       457.29
   36.23        2978.75           1612         112.00       487.80
   36.26        2979.00           1616         104.00       452.93
   36.29        2979.25           1619         103.00       448.57
   36.32        2979.50           1623         110.00       479.08
   36.35        2979.75           1626         110.00       479.08
   36.38        2980.00           1629         121.00       527.04
   36.40        2980.25           1633         109.00       474.72
   36.43        2980.50           1636         102.00       444.21
   36.46        2980.75           1639         113.00       492.16
   36.49        2981.00           1643         115.00       500.88
   36.51        2981.25           1646         110.00       479.08
   36.54        2981.50           1649         116.00       505.24
   36.57        2981.75           1653         105.00       457.29
   36.60        2982.00           1656         106.00       461.65
   36.63        2982.25           1659         111.00       483.44
   36.65        2982.50           1663         103.00       448.57
   36.68        2982.75           1666         106.00       461.65
   36.71        2983.00           1669         110.00       479.08
   36.74        2983.25           1673         115.00       500.88
   36.76        2983.50           1676         105.00       457.29
   36.79        2983.75           1679         102.00       444.21
   36.82        2984.00           1683         106.00       461.65
HS scan finished at 00:37:07
end
************************************************************
  HS Scan of (1) Internal mercury lamp
************************************************************
Integration time is 0.2294 seconds per sample
dh070417DelftKZ 51.997-4.386 2.482296pr1000
************************************************************
Dead Time -------------------------  3E-08 
Number of Cycles Used -------------  4 
Starting Wavelength (Angstroms) ---  2950 
Final Wavelength (Angstoms) -------  2984 
Wavelength Increment (Angstroms) --  .25 
Filter Wheel #1 Position ---------- (1) Ground quartz diffuser (ND=2.32)
Filter Wheel #2 Position ---------- (1) Neutral Density 0.494



************************************************************
HS scan start time = 03:28:58
Dark Count =  0 


Time (GMT)  Wavelength (Ang)  Step Number  Raw Counts  Counts/Second

  209.42        2950.00           1229         136.00       592.86
  209.52        2950.25           1232         129.00       562.35
  209.54        2950.50           1236         124.00       540.55
  209.57        2950.75           1239         127.00       553.63
  209.60        2951.00           1242         120.00       523.11
  209.63        2951.25           1246         140.00       610.30
  209.66        2951.50           1249         132.00       575.42
  209.68        2951.75           1252         130.00       566.71
  209.71        2952.00           1255         122.00       531.83
  209.74        2952.25           1259         127.00       553.63
  209.77        2952.50           1262         133.00       579.78
  209.80        2952.75           1265         126.00       549.27
  209.83        2953.00           1269         124.00       540.55
  209.86        2953.25           1272         130.00       566.71
  209.88        2953.50           1275         140.00       610.30
  209.91        2953.75           1279         132.00       575.42
  209.94        2954.00           1282         126.00       549.27
  209.97        2954.25           1285         118.00       514.39
  209.99        2954.50           1289         122.00       531.83
  210.02        2954.75           1292         126.00       549.27
  210.05        2955.00           1295         133.00       579.78
  210.08        2955.25           1299         128.00       557.99
  210.11        2955.50           1302         125.00       544.91
  210.13        2955.75           1305         127.00       553.63
  210.16        2956.00           1309         130.00       566.71
  210.19        2956.25           1312         124.00       540.55
  210.22        2956.50           1315         121.00       527.47
  210.25        2956.75           1319         125.00       544.91
  210.27        2957.00           1322         135.00       588.50
  210.30        2957.25           1325         115.00       501.32
  210.33        2957.50           1329         118.00       514.39
  210.36        2957.75           1332         128.00       557.99
  210.38        2958.00           1335         119.00       518.75
  210.41        2958.25           1339         122.00       531.83
  210.44        2958.50           1342         137.00       597.22
  210.47        2958.75           1345         127.00       553.63
  210.50        2959.00           1349         118.00       514.39
  210.52        2959.25           1352         120.00       523.11
  210.55        2959.50           1355         107.00       466.44
  210.58        2959.75           1359         111.00       483.88
  210.61        2960.00           1362         122.00       531.83
  210.64        2960.25           1365         123.00       536.19
  210.66        2960.50           1369         133.00       579.78
  210.69        2960.75           1372         137.00       597.22
  210.72        2961.00           1375         143.00       623.38
  210.75        2961.25           1379         153.00       666.97
  210.77        2961.50           1382         196.00       854.42
  210.80        2961.75           1385         574.00      2502.37
  210.83        2962.00           1389        2328.00     10151.30
  210.86        2962.25           1392        4158.00     18135.41
  210.89        2962.50           1395        6107.00     26642.91
  210.92        2962.75           1399        9322.00     40686.08
  210.95        2963.00           1402       11941.00     52134.66
  210.97        2963.25           1405       14222.00     62112.15
  211.00        2963.50           1409       17126.00     74823.40
  211.03        2963.75           1412       19787.00     86479.53
  211.06        2964.00           1415       22181.00     96973.08
  211.09        2964.25           1419       24926.00    109013.30
  211.11        2964.50           1422       27334.00    119582.60
  211.14        2964.75           1425       29591.00    129495.10
  211.17        2965.00           1429       32786.00    143537.40
  211.20        2965.25           1432       35341.00    154775.40
  211.22        2965.50           1435       37442.00    164022.20
  211.25        2965.75           1439       40289.00    176560.50
  211.28        2966.00           1442       42743.00    187375.50
  211.31        2966.25           1445       44872.00    196764.00
  211.34        2966.50           1449       47627.00    208920.90
  211.36        2966.75           1452       48885.00    214475.00
  211.39        2967.00           1455       49470.00    217058.40
  211.42        2967.25           1459       49481.00    217107.00
  211.45        2967.50           1462       49676.00    217968.20
  211.47        2967.75           1465       49823.00    218617.50
  211.50        2968.00           1469       49073.00    215305.20
  211.53        2968.25           1472       47347.00    207684.90
  211.56        2968.50           1475       45360.00    198916.70
  211.59        2968.75           1479       42736.00    187344.70
  211.61        2969.00           1482       40405.00    177071.50
  211.64        2969.25           1485       37872.00    165915.30
  211.67        2969.50           1489       34870.00    152703.20
  211.70        2969.75           1492       32872.00    143915.60
  211.73        2970.00           1495       31091.00    136086.30
  211.75        2970.25           1499       28044.00    122700.20
  211.78        2970.50           1502       25927.00    113406.10
  211.81        2970.75           1505       23587.00    103139.10
  211.84        2971.00           1509       19992.00     87377.83
  211.86        2971.25           1512       17779.00     77683.01
  211.89        2971.50           1515       15768.00     68878.02
  211.92        2971.75           1519       12655.00     55257.17
  211.95        2972.00           1522       10272.00     44837.96
  211.98        2972.25           1525        7792.00     34001.54
  212.00        2972.50           1529        4948.00     21583.28
  212.03        2972.75           1532        2875.00     12537.41
  212.06        2973.00           1536        1062.00      4630.11
  212.09        2973.25           1539         471.00      2053.31
  212.11        2973.50           1542         211.00       919.82
  212.14        2973.75           1546         154.00       671.33
  212.17        2974.00           1549         146.00       636.46
  212.21        2974.25           1552         130.00       566.71
  212.24        2974.50           1556         130.00       566.71
  212.27        2974.75           1559         131.00       571.06
  212.29        2975.00           1562         123.00       536.19
  212.32        2975.25           1566         116.00       505.67
  212.35        2975.50           1569         106.00       462.08
  212.38        2975.75           1572         117.00       510.03
  212.41        2976.00           1576         109.00       475.16
  212.43        2976.25           1579         115.00       501.32
  212.46        2976.50           1582         111.00       483.88
  212.49        2976.75           1586         109.00       475.16
  212.52        2977.00           1589         111.00       483.88
  212.55        2977.25           1592         114.00       496.96
  212.58        2977.50           1596         114.00       496.96
  212.61        2977.75           1599         114.00       496.96
  212.63        2978.00           1602         109.00       475.16
  212.66        2978.25           1606         119.00       518.75
  212.69        2978.50           1609         111.00       483.88
  212.72        2978.75           1612         107.00       466.44
  212.74        2979.00           1616         112.00       488.24
  212.77        2979.25           1619         101.00       440.28
  212.80        2979.50           1623         110.00       479.52
  212.83        2979.75           1626         108.00       470.80
  212.85        2980.00           1629         108.00       470.80
  212.88        2980.25           1633         109.00       475.16
  212.91        2980.50           1636         101.00       440.28
  212.94        2980.75           1639         117.00       510.03
  212.96        2981.00           1643          97.00       422.85
  212.99        2981.25           1646         107.00       466.44
  213.02        2981.50           1649         112.00       488.24
  213.05        2981.75           1653         108.00       470.80
  213.08        2982.00           1656         110.00       479.52
  213.10        2982.25           1659         108.00       470.80
  213.14        2982.50           1663         101.00       440.28
  213.17        2982.75           1666         109.00       475.16
  213.19        2983.00           1669         102.00       444.64
  213.22        2983.25           1673         109.00       475.16
  213.25        2983.50           1676         111.00       483.88
  213.28        2983.75           1679         111.00       483.88
  213.31        2984.00           1683          97.00       422.85
HS scan finished at 03:33:36
end
