************************************************************
  HS Scan of (1) Internal mercury lamp
************************************************************
Integration time is 0.2294 seconds per sample
dh010417DelftKZ 51.997-4.386 2.482296pr1000
************************************************************
Dead Time -------------------------  3E-08 
Number of Cycles Used -------------  4 
Starting Wavelength (Angstroms) ---  2950 
Final Wavelength (Angstoms) -------  2984 
Wavelength Increment (Angstroms) --  .25 
Filter Wheel #1 Position ---------- (1) Ground quartz diffuser (ND=2.32)
Filter Wheel #2 Position ---------- (1) Neutral Density 0.494



************************************************************
HS scan start time = 03:47:40
Dark Count =  .1 


Time (GMT)  Wavelength (Ang)  Step Number  Raw Counts  Counts/Second

  228.11        2950.00           1229         135.00       588.07
  228.21        2950.25           1232         131.00       570.63
  228.24        2950.50           1236         128.00       557.55
  228.27        2950.75           1239         131.00       570.63
  228.30        2951.00           1242         134.00       583.71
  228.32        2951.25           1246         119.00       518.32
  228.35        2951.50           1249         130.00       566.27
  228.38        2951.75           1252         139.00       605.50
  228.41        2952.00           1255         128.00       557.55
  228.43        2952.25           1259         140.00       609.86
  228.46        2952.50           1262         125.00       544.47
  228.49        2952.75           1265         133.00       579.35
  228.52        2953.00           1269         140.00       609.86
  228.54        2953.25           1272         128.00       557.55
  228.57        2953.50           1275         122.00       531.39
  228.60        2953.75           1279         124.00       540.11
  228.63        2954.00           1282         122.00       531.39
  228.66        2954.25           1285         129.00       561.91
  228.68        2954.50           1289         119.00       518.32
  228.71        2954.75           1292         123.00       535.75
  228.74        2955.00           1295         127.00       553.19
  228.77        2955.25           1299         120.00       522.68
  228.79        2955.50           1302         133.00       579.35
  228.82        2955.75           1305         121.00       527.04
  228.85        2956.00           1309         130.00       566.27
  228.88        2956.25           1312         119.00       518.32
  228.91        2956.50           1315         126.00       548.83
  228.93        2956.75           1319         131.00       570.63
  228.96        2957.00           1322         125.00       544.47
  228.99        2957.25           1325         119.00       518.32
  229.02        2957.50           1329         130.00       566.27
  229.04        2957.75           1332         136.00       592.43
  229.07        2958.00           1335         128.00       557.55
  229.10        2958.25           1339         124.00       540.11
  229.13        2958.50           1342         131.00       570.63
  229.16        2958.75           1345         123.00       535.75
  229.19        2959.00           1349         126.00       548.83
  229.22        2959.25           1352         128.00       557.55
  229.24        2959.50           1355         119.00       518.32
  229.27        2959.75           1359         122.00       531.39
  229.30        2960.00           1362         120.00       522.68
  229.33        2960.25           1365         138.00       601.14
  229.35        2960.50           1369         134.00       583.71
  229.38        2960.75           1372         136.00       592.43
  229.41        2961.00           1375         145.00       631.66
  229.44        2961.25           1379         155.00       675.25
  229.46        2961.50           1382         268.00      1167.87
  229.49        2961.75           1385         919.00      4006.15
  229.52        2962.00           1389        2750.00     11991.67
  229.55        2962.25           1392        4463.00     19466.03
  229.57        2962.50           1395        6445.00     28118.31
  229.60        2962.75           1399        9460.00     41288.69
  229.63        2963.00           1402       11841.00     51696.94
  229.66        2963.25           1405       13974.00     61026.63
  229.68        2963.50           1409       17507.00     76491.38
  229.71        2963.75           1412       19862.00     86807.72
  229.74        2964.00           1415       22286.00     97433.04
  229.77        2964.25           1419       25877.00    113186.20
  229.80        2964.50           1422       28003.00    122519.70
  229.82        2964.75           1425       30415.00    133115.10
  229.85        2965.00           1429       33278.00    145700.40
  229.88        2965.25           1432       35300.00    154594.60
  229.91        2965.50           1435       37792.00    165562.70
  229.94        2965.75           1439       40629.00    178058.00
  229.96        2966.00           1442       43139.00    189121.00
  229.99        2966.25           1445       45403.00    199106.00
  230.02        2966.50           1449       47561.00    208629.10
  230.05        2966.75           1452       48560.00    213039.50
  230.08        2967.00           1455       49138.00    215591.70
  230.11        2967.25           1459       49407.00    216779.70
  230.14        2967.50           1462       49237.00    216028.90
  230.16        2967.75           1465       49140.00    215600.60
  230.19        2968.00           1469       48348.00    212103.40
  230.22        2968.25           1472       46960.00    205976.40
  230.25        2968.50           1475       45235.00    198364.80
  230.27        2968.75           1479       42212.00    185034.30
  230.30        2969.00           1482       39821.00    174498.30
  230.33        2969.25           1485       37308.00    163431.90
  230.36        2969.50           1489       34057.00    149126.40
  230.39        2969.75           1492       31935.00    139795.60
  230.41        2970.00           1495       29893.00    130821.50
  230.44        2970.25           1499       26845.00    117435.20
  230.47        2970.50           1502       24635.00    107736.10
  230.50        2970.75           1505       22857.00     99936.94
  230.53        2971.00           1509       19947.00     87180.21
  230.55        2971.25           1512       17219.00     75230.20
  230.58        2971.50           1515       14756.00     64448.38
  230.61        2971.75           1519       11477.00     50105.35
  230.64        2972.00           1522        9132.00     39855.39
  230.67        2972.25           1525        7033.00     30686.04
  230.70        2972.50           1529        4201.00     18322.62
  230.73        2972.75           1532        2290.00      9985.12
  230.76        2973.00           1536         639.00      2785.32
  230.79        2973.25           1539         269.00      1172.23
  230.82        2973.50           1542         162.00       705.77
  230.85        2973.75           1546         154.00       670.89
  230.87        2974.00           1549         129.00       561.91
  230.90        2974.25           1552         133.00       579.35
  230.93        2974.50           1556         130.00       566.27
  230.96        2974.75           1559         115.00       500.88
  230.98        2975.00           1562         112.00       487.80
  231.01        2975.25           1566         112.00       487.80
  231.04        2975.50           1569         116.00       505.24
  231.07        2975.75           1572         115.00       500.88
  231.09        2976.00           1576         109.00       474.72
  231.12        2976.25           1579         101.00       439.85
  231.15        2976.50           1582         107.00       466.00
  231.18        2976.75           1586         115.00       500.88
  231.21        2977.00           1589         109.00       474.72
  231.23        2977.25           1592         115.00       500.88
  231.26        2977.50           1596         108.00       470.36
  231.29        2977.75           1599         101.00       439.85
  231.32        2978.00           1602         110.00       479.08
  231.34        2978.25           1606         108.00       470.36
  231.37        2978.50           1609         106.00       461.65
  231.40        2978.75           1612         115.00       500.88
  231.43        2979.00           1616          95.00       413.69
  231.45        2979.25           1619         114.00       496.52
  231.48        2979.50           1623         111.00       483.44
  231.51        2979.75           1626         104.00       452.93
  231.54        2980.00           1629         116.00       505.24
  231.57        2980.25           1633         106.00       461.65
  231.59        2980.50           1636         102.00       444.21
  231.62        2980.75           1639         109.00       474.72
  231.65        2981.00           1643         108.00       470.36
  231.68        2981.25           1646         100.00       435.49
  231.71        2981.50           1649         102.00       444.21
  231.73        2981.75           1653         102.00       444.21
  231.76        2982.00           1656         109.00       474.72
  231.79        2982.25           1659         100.00       435.49
  231.82        2982.50           1663         105.00       457.29
  231.85        2982.75           1666          98.00       426.77
  231.88        2983.00           1669         107.00       466.00
  231.90        2983.25           1673         103.00       448.57
  231.93        2983.50           1676         100.00       435.49
  231.96        2983.75           1679         106.00       461.65
  231.99        2984.00           1683         108.00       470.36
HS scan finished at 03:52:17
end
