************************************************************
  HS Scan of (1) Internal mercury lamp
************************************************************
Integration time is 0.2294 seconds per sample
dh030417DelftKZ 51.997-4.386 2.482296pr1000
************************************************************
Dead Time -------------------------  3E-08 
Number of Cycles Used -------------  4 
Starting Wavelength (Angstroms) ---  2950 
Final Wavelength (Angstoms) -------  2984 
Wavelength Increment (Angstroms) --  .25 
Filter Wheel #1 Position ---------- (1) Ground quartz diffuser (ND=2.32)
Filter Wheel #2 Position ---------- (1) Neutral Density 0.494



************************************************************
HS scan start time = 03:41:36
Dark Count =  0 


Time (GMT)  Wavelength (Ang)  Step Number  Raw Counts  Counts/Second

  222.05        2950.00           1229         131.00       571.06
  222.15        2950.25           1232         137.00       597.22
  222.18        2950.50           1236         130.00       566.71
  222.20        2950.75           1239         125.00       544.91
  222.24        2951.00           1242         133.00       579.78
  222.27        2951.25           1246         137.00       597.22
  222.30        2951.50           1249         128.00       557.99
  222.33        2951.75           1252         116.00       505.67
  222.35        2952.00           1255         130.00       566.71
  222.38        2952.25           1259         130.00       566.71
  222.41        2952.50           1262         138.00       601.58
  222.44        2952.75           1265         126.00       549.27
  222.47        2953.00           1269         137.00       597.22
  222.49        2953.25           1272         121.00       527.47
  222.52        2953.50           1275         133.00       579.78
  222.55        2953.75           1279         136.00       592.86
  222.57        2954.00           1282         131.00       571.06
  222.60        2954.25           1285         131.00       571.06
  222.63        2954.50           1289         129.00       562.35
  222.66        2954.75           1292         127.00       553.63
  222.69        2955.00           1295         128.00       557.99
  222.71        2955.25           1299         125.00       544.91
  222.74        2955.50           1302         129.00       562.35
  222.77        2955.75           1305         119.00       518.75
  222.80        2956.00           1309         118.00       514.39
  222.83        2956.25           1312         117.00       510.03
  222.86        2956.50           1315         120.00       523.11
  222.89        2956.75           1319         122.00       531.83
  222.92        2957.00           1322         118.00       514.39
  222.95        2957.25           1325         111.00       483.88
  222.98        2957.50           1329         136.00       592.86
  223.01        2957.75           1332         130.00       566.71
  223.03        2958.00           1335         129.00       562.35
  223.06        2958.25           1339         129.00       562.35
  223.09        2958.50           1342         124.00       540.55
  223.12        2958.75           1345         134.00       584.14
  223.15        2959.00           1349         138.00       601.58
  223.18        2959.25           1352         134.00       584.14
  223.21        2959.50           1355         126.00       549.27
  223.23        2959.75           1359         126.00       549.27
  223.26        2960.00           1362         124.00       540.55
  223.29        2960.25           1365         134.00       584.14
  223.32        2960.50           1369         129.00       562.35
  223.34        2960.75           1372         137.00       597.22
  223.37        2961.00           1375         147.00       640.81
  223.40        2961.25           1379         159.00       693.13
  223.43        2961.50           1382         263.00      1146.51
  223.46        2961.75           1385         863.00      3762.41
  223.48        2962.00           1389        2833.00     12354.19
  223.51        2962.25           1392        4756.00     20745.25
  223.54        2962.50           1395        6951.00     30328.37
  223.57        2962.75           1399       10182.00     44444.58
  223.59        2963.00           1402       12456.00     54386.84
  223.62        2963.25           1405       14782.00     64562.59
  223.65        2963.50           1409       18045.00     78848.02
  223.68        2963.75           1412       20234.00     88438.34
  223.71        2964.00           1415       22735.00     99402.35
  223.74        2964.25           1419       25645.00    112168.50
  223.77        2964.50           1422       27771.00    121501.40
  223.80        2964.75           1425       30129.00    131858.90
  223.83        2965.00           1429       33282.00    145718.50
  223.86        2965.25           1432       35670.00    156223.10
  223.88        2965.50           1435       38131.00    167055.70
  223.91        2965.75           1439       40939.00    179424.40
  223.94        2966.00           1442       43230.00    189522.60
  223.97        2966.25           1445       45288.00    198599.10
  223.99        2966.50           1449       47849.00    209900.90
  224.02        2966.75           1452       49066.00    215274.20
  224.05        2967.00           1455       49311.00    216356.20
  224.08        2967.25           1459       49420.00    216837.60
  224.11        2967.50           1462       49283.00    216232.50
  224.13        2967.75           1465       49251.00    216091.20
  224.16        2968.00           1469       48271.00    211763.90
  224.19        2968.25           1472       46557.00    204198.30
  224.22        2968.50           1475       44552.00    195352.50
  224.24        2968.75           1479       41557.00    182147.80
  224.27        2969.00           1482       39279.00    172111.30
  224.30        2969.25           1485       36872.00    161513.10
  224.33        2969.50           1489       33884.00    148366.00
  224.36        2969.75           1492       31890.00    139598.20
  224.38        2970.00           1495       30312.00    132662.90
  224.41        2970.25           1499       27300.00    119433.30
  224.44        2970.50           1502       24913.00    108956.30
  224.47        2970.75           1505       22376.00     97828.09
  224.50        2971.00           1509       19317.00     84420.16
  224.53        2971.25           1512       16906.00     73860.08
  224.56        2971.50           1515       14762.00     64475.07
  224.58        2971.75           1519       11814.00     51579.32
  224.61        2972.00           1522        9501.00     41468.30
  224.64        2972.25           1525        7092.00     30944.15
  224.67        2972.50           1529        4217.00     18392.89
  224.69        2972.75           1532        2335.00     10181.84
  224.72        2973.00           1536         806.00      3513.88
  224.75        2973.25           1539         322.00      1403.72
  224.78        2973.50           1542         180.00       784.67
  224.80        2973.75           1546         144.00       627.74
  224.83        2974.00           1549         142.00       619.02
  224.86        2974.25           1552         138.00       601.58
  224.89        2974.50           1556         125.00       544.91
  224.92        2974.75           1559         122.00       531.83
  224.94        2975.00           1562         117.00       510.03
  224.97        2975.25           1566         123.00       536.19
  225.00        2975.50           1569         115.00       501.32
  225.03        2975.75           1572         111.00       483.88
  225.06        2976.00           1576         109.00       475.16
  225.09        2976.25           1579         107.00       466.44
  225.12        2976.50           1582         111.00       483.88
  225.14        2976.75           1586         115.00       501.32
  225.17        2977.00           1589         103.00       449.00
  225.20        2977.25           1592         111.00       483.88
  225.23        2977.50           1596         116.00       505.67
  225.26        2977.75           1599         113.00       492.60
  225.29        2978.00           1602         102.00       444.64
  225.31        2978.25           1606         104.00       453.36
  225.34        2978.50           1609         109.00       475.16
  225.37        2978.75           1612         120.00       523.11
  225.40        2979.00           1616         110.00       479.52
  225.43        2979.25           1619         105.00       457.72
  225.45        2979.50           1623         103.00       449.00
  225.48        2979.75           1626         103.00       449.00
  225.51        2980.00           1629         112.00       488.24
  225.54        2980.25           1633         111.00       483.88
  225.56        2980.50           1636         102.00       444.64
  225.59        2980.75           1639         104.00       453.36
  225.62        2981.00           1643         101.00       440.28
  225.65        2981.25           1646         106.00       462.08
  225.67        2981.50           1649         109.00       475.16
  225.70        2981.75           1653         104.00       453.36
  225.73        2982.00           1656         104.00       453.36
  225.76        2982.25           1659         105.00       457.72
  225.79        2982.50           1663         101.00       440.28
  225.82        2982.75           1666          87.00       379.25
  225.85        2983.00           1669         100.00       435.93
  225.87        2983.25           1673         111.00       483.88
  225.90        2983.50           1676          97.00       422.85
  225.93        2983.75           1679         100.00       435.93
  225.96        2984.00           1683         103.00       449.00
HS scan finished at 03:46:15
end
