************************************************************
  HS Scan of (1) Internal mercury lamp
************************************************************
Integration time is 0.2294 seconds per sample
dh060418Delft 51.9969-4.3863 2.214056pr1000
************************************************************
Dead Time -------------------------  2.7E-08 
Number of Cycles Used -------------  4 
Starting Wavelength (Angstroms) ---  2950 
Final Wavelength (Angstoms) -------  2984 
Wavelength Increment (Angstroms) --  .25 
Filter Wheel #1 Position ---------- (1) Ground quartz diffuser (ND=2.32)
Filter Wheel #2 Position ---------- (1) Neutral Density 0.494



************************************************************
HS scan start time = 03:48:37
Dark Count =  .1 


Time (GMT)  Wavelength (Ang)  Step Number  Raw Counts  Counts/Second

  229.07        2950.00           1229         134.00       583.71
  229.17        2950.25           1232         138.00       601.14
  229.20        2950.50           1236         133.00       579.35
  229.23        2950.75           1239         132.00       574.99
  229.26        2951.00           1242         136.00       592.42
  229.29        2951.25           1246         144.00       627.30
  229.32        2951.50           1249         139.00       605.50
  229.35        2951.75           1252         142.00       618.58
  229.38        2952.00           1256         139.00       605.50
  229.41        2952.25           1259         122.00       531.39
  229.44        2952.50           1262         136.00       592.42
  229.47        2952.75           1266         130.00       566.27
  229.50        2953.00           1269         125.00       544.47
  229.53        2953.25           1272         131.00       570.63
  229.56        2953.50           1276         131.00       570.63
  229.59        2953.75           1279         129.00       561.91
  229.62        2954.00           1282         130.00       566.27
  229.65        2954.25           1286         132.00       574.99
  229.68        2954.50           1289         144.00       627.30
  229.71        2954.75           1292         133.00       579.35
  229.74        2955.00           1296         127.00       553.19
  229.77        2955.25           1299         138.00       601.14
  229.80        2955.50           1302         132.00       574.99
  229.83        2955.75           1306         132.00       574.99
  229.86        2956.00           1309         137.00       596.78
  229.89        2956.25           1312         122.00       531.39
  229.92        2956.50           1316         129.00       561.91
  229.95        2956.75           1319         136.00       592.42
  229.98        2957.00           1322         133.00       579.35
  230.01        2957.25           1326         132.00       574.99
  230.04        2957.50           1329         136.00       592.42
  230.07        2957.75           1332         132.00       574.99
  230.10        2958.00           1336         131.00       570.63
  230.13        2958.25           1339         134.00       583.71
  230.16        2958.50           1342         127.00       553.19
  230.19        2958.75           1345         123.00       535.75
  230.22        2959.00           1349         129.00       561.91
  230.25        2959.25           1352         127.00       553.19
  230.27        2959.50           1355         132.00       574.99
  230.30        2959.75           1359         129.00       561.91
  230.33        2960.00           1362         128.00       557.55
  230.36        2960.25           1365         132.00       574.99
  230.40        2960.50           1369         138.00       601.14
  230.42        2960.75           1372         140.00       609.86
  230.45        2961.00           1375         153.00       666.53
  230.48        2961.25           1379         151.00       657.81
  230.51        2961.50           1382         220.00       958.61
  230.54        2961.75           1385         599.00      2610.91
  230.57        2962.00           1389        2095.00      9134.34
  230.60        2962.25           1392        3851.00     16794.45
  230.63        2962.50           1395        5683.00     24789.48
  230.66        2962.75           1399        8064.00     35185.55
  230.69        2963.00           1402        9907.00     43236.58
  230.72        2963.25           1405       11895.00     51924.98
  230.75        2963.50           1409       14927.00     65183.94
  230.78        2963.75           1412       17246.00     75331.36
  230.81        2964.00           1415       19146.00     83649.49
  230.84        2964.25           1419       21624.00     94503.69
  230.87        2964.50           1422       23663.00    103439.80
  230.90        2964.75           1425       25841.00    112989.80
  230.93        2965.00           1429       28755.00    125774.70
  230.96        2965.25           1432       30908.00    135226.50
  230.99        2965.50           1435       32509.00    142258.10
  231.02        2965.75           1439       34789.00    152276.50
  231.05        2966.00           1442       36841.00    161297.70
  231.08        2966.25           1445       39310.00    172158.00
  231.11        2966.50           1449       41189.00    180427.40
  231.14        2966.75           1452       42133.00    184583.30
  231.17        2967.00           1455       42725.00    187190.00
  231.20        2967.25           1459       42623.00    186740.80
  231.23        2967.50           1462       42788.00    187467.40
  231.26        2967.75           1465       42786.00    187458.60
  231.29        2968.00           1469       41285.00    180850.00
  231.32        2968.25           1472       40241.00    176254.90
  231.35        2968.50           1475       38984.00    170723.70
  231.38        2968.75           1479       36492.00    159763.10
  231.41        2969.00           1482       34583.00    151371.10
  231.44        2969.25           1485       32251.00    141124.80
  231.47        2969.50           1489       29810.00    130405.60
  231.50        2969.75           1492       27866.00    121873.40
  231.53        2970.00           1495       26149.00    114340.70
  231.56        2970.25           1499       23351.00    102072.10
  231.59        2970.50           1502       21422.00     93618.65
  231.62        2970.75           1505       19038.00     83176.56
  231.65        2971.00           1509       16542.00     72250.23
  231.68        2971.25           1512       14856.00     64873.35
  231.71        2971.50           1515       13145.00     57390.08
  231.74        2971.75           1519       10788.00     47086.42
  231.77        2972.00           1522        8494.00     37063.67
  231.80        2972.25           1525        6536.00     28513.23
  231.83        2972.50           1529        3953.00     17239.50
  231.86        2972.75           1532        2213.00      9648.98
  231.89        2973.00           1535        1130.00      4926.11
  231.92        2973.25           1539         376.00      1638.70
  231.95        2973.50           1542         187.00       814.75
  231.98        2973.75           1546         166.00       723.21
  232.01        2974.00           1549         143.00       622.94
  232.03        2974.25           1552         133.00       579.35
  232.06        2974.50           1556         133.00       579.35
  232.09        2974.75           1559         130.00       566.27
  232.12        2975.00           1562         110.00       479.08
  232.15        2975.25           1566         122.00       531.39
  232.18        2975.50           1569         120.00       522.68
  232.21        2975.75           1572         118.00       513.96
  232.24        2976.00           1576         122.00       531.39
  232.27        2976.25           1579         112.00       487.80
  232.30        2976.50           1582         121.00       527.03
  232.33        2976.75           1586         121.00       527.03
  232.36        2977.00           1589         125.00       544.47
  232.39        2977.25           1592         118.00       513.96
  232.42        2977.50           1596         109.00       474.72
  232.45        2977.75           1599         112.00       487.80
  232.48        2978.00           1602         124.00       540.11
  232.51        2978.25           1606         117.00       509.60
  232.54        2978.50           1609         111.00       483.44
  232.57        2978.75           1612         114.00       496.52
  232.60        2979.00           1616         109.00       474.72
  232.63        2979.25           1619         108.00       470.36
  232.66        2979.50           1622         110.00       479.08
  232.69        2979.75           1626         107.00       466.00
  232.72        2980.00           1629         112.00       487.80
  232.75        2980.25           1632         107.00       466.00
  232.78        2980.50           1636         105.00       457.29
  232.81        2980.75           1639         111.00       483.44
  232.83        2981.00           1642         121.00       527.03
  232.87        2981.25           1646          99.00       431.13
  232.90        2981.50           1649         112.00       487.80
  232.92        2981.75           1653         108.00       470.36
  232.95        2982.00           1656         112.00       487.80
  232.98        2982.25           1659          99.00       431.13
  233.01        2982.50           1663          99.00       431.13
  233.04        2982.75           1666         116.00       505.24
  233.07        2983.00           1669         106.00       461.64
  233.10        2983.25           1673         108.00       470.36
  233.13        2983.50           1676         102.00       444.21
  233.16        2983.75           1679         108.00       470.36
  233.19        2984.00           1683         114.00       496.52
HS scan finished at 03:53:30
end
************************************************************
  HS Scan of (1) Internal mercury lamp
************************************************************
Integration time is 0.2294 seconds per sample
dh060418Delft 51.9969-4.3863 2.750537pr1000
************************************************************
Dead Time -------------------------  2.7E-08 
Number of Cycles Used -------------  4 
Starting Wavelength (Angstroms) ---  2950 
Final Wavelength (Angstoms) -------  2984 
Wavelength Increment (Angstroms) --  .25 
Filter Wheel #1 Position ---------- (1) Ground quartz diffuser (ND=2.32)
Filter Wheel #2 Position ---------- (1) Neutral Density 0.494



************************************************************
HS scan start time = 19:18:42
Dark Count =  0 


Time (GMT)  Wavelength (Ang)  Step Number  Raw Counts  Counts/Second

 1159.16        2950.00           1229         130.00       566.70
 1159.26        2950.25           1232         132.00       575.42
 1159.29        2950.50           1236         130.00       566.70
 1159.32        2950.75           1239         142.00       619.02
 1159.35        2951.00           1242         128.00       557.99
 1159.38        2951.25           1246         125.00       544.91
 1159.41        2951.50           1249         130.00       566.70
 1159.44        2951.75           1252         123.00       536.19
 1159.47        2952.00           1256         116.00       505.67
 1159.49        2952.25           1259         129.00       562.35
 1159.52        2952.50           1262         123.00       536.19
 1159.56        2952.75           1266         128.00       557.99
 1159.58        2953.00           1269         126.00       549.27
 1159.61        2953.25           1272         125.00       544.91
 1159.64        2953.50           1276         125.00       544.91
 1159.67        2953.75           1279         123.00       536.19
 1159.70        2954.00           1282         120.00       523.11
 1159.73        2954.25           1286         124.00       540.55
 1159.76        2954.50           1289         123.00       536.19
 1159.79        2954.75           1292         131.00       571.06
 1159.82        2955.00           1296         114.00       496.96
 1159.85        2955.25           1299         111.00       483.88
 1159.88        2955.50           1302         116.00       505.67
 1159.91        2955.75           1306         118.00       514.39
 1159.94        2956.00           1309         118.00       514.39
 1159.97        2956.25           1312         118.00       514.39
 1160.00        2956.50           1316         124.00       540.55
 1160.03        2956.75           1319         134.00       584.14
 1160.06        2957.00           1322         119.00       518.75
 1160.09        2957.25           1326         118.00       514.39
 1160.12        2957.50           1329         125.00       544.91
 1160.15        2957.75           1332         129.00       562.35
 1160.18        2958.00           1336         120.00       523.11
 1160.21        2958.25           1339         124.00       540.55
 1160.24        2958.50           1342         112.00       488.24
 1160.27        2958.75           1345         117.00       510.03
 1160.30        2959.00           1349         128.00       557.99
 1160.33        2959.25           1352         119.00       518.75
 1160.36        2959.50           1355         118.00       514.39
 1160.39        2959.75           1359         128.00       557.99
 1160.42        2960.00           1362         123.00       536.19
 1160.45        2960.25           1365         120.00       523.11
 1160.48        2960.50           1369         130.00       566.70
 1160.51        2960.75           1372         130.00       566.70
 1160.54        2961.00           1375         136.00       592.86
 1160.57        2961.25           1379         134.00       584.14
 1160.60        2961.50           1382         179.00       780.31
 1160.63        2961.75           1385         567.00      2471.83
 1160.66        2962.00           1389        2244.00      9784.62
 1160.69        2962.25           1392        4502.00     19635.52
 1160.72        2962.50           1395        7051.00     30762.25
 1160.74        2962.75           1399       10722.00     46798.42
 1160.77        2963.00           1402       13564.00     59222.78
 1160.80        2963.25           1405       16264.00     71034.11
 1160.83        2963.50           1409       20357.00     88953.59
 1160.86        2963.75           1412       22830.00     99788.99
 1160.89        2964.00           1415       25160.00    110003.70
 1160.92        2964.25           1419       28541.00    124835.90
 1160.95        2964.50           1422       31144.00    136263.30
 1160.98        2964.75           1425       34026.00    148923.70
 1161.01        2965.00           1429       37633.00    164781.20
 1161.04        2965.25           1432       40021.00    175287.10
 1161.07        2965.50           1435       42448.00    185970.70
 1161.10        2965.75           1439       45894.00    201150.50
 1161.13        2966.00           1442       48955.00    214644.90
 1161.16        2966.25           1445       51444.00    225624.90
 1161.19        2966.50           1449       54207.00    237821.30
 1161.23        2966.75           1452       55778.00    244759.50
 1161.26        2967.00           1455       56403.00    247520.50
 1161.29        2967.25           1459       56489.00    247900.50
 1161.32        2967.50           1462       56847.00    249482.20
 1161.35        2967.75           1465       56600.00    248390.90
 1161.38        2968.00           1469       55453.00    243324.00
 1161.41        2968.25           1472       53706.00    235609.20
 1161.44        2968.50           1475       51793.00    227165.00
 1161.47        2968.75           1479       48157.00    211126.00
 1161.50        2969.00           1482       45791.00    200696.60
 1161.53        2969.25           1485       43446.00    190365.70
 1161.56        2969.50           1489       40348.00    176726.20
 1161.59        2969.75           1492       38155.00    167077.20
 1161.62        2970.00           1495       35201.00    154087.90
 1161.65        2970.25           1499       31639.00    138437.20
 1161.68        2970.50           1502       28738.00    125700.50
 1161.71        2970.75           1505       26057.00    113937.60
 1161.74        2971.00           1509       22678.00     99122.83
 1161.77        2971.25           1512       19887.00     86895.00
 1161.80        2971.50           1515       17391.00     75966.46
 1161.83        2971.75           1519       13837.00     60416.70
 1161.86        2972.00           1522       11288.00     49272.14
 1161.89        2972.25           1525        9000.00     39274.41
 1161.92        2972.50           1529        5820.00     25387.93
 1161.95        2972.75           1532        3702.00     16144.79
 1161.98        2973.00           1535        1723.00      7512.42
 1162.01        2973.25           1539         411.00      1791.72
 1162.04        2973.50           1542         201.00       876.22
 1162.07        2973.75           1546         166.00       723.64
 1162.10        2974.00           1549         142.00       619.02
 1162.13        2974.25           1552         139.00       605.94
 1162.16        2974.50           1556         125.00       544.91
 1162.19        2974.75           1559         141.00       614.66
 1162.22        2975.00           1562         115.00       501.31
 1162.25        2975.25           1566         117.00       510.03
 1162.28        2975.50           1569         107.00       466.44
 1162.31        2975.75           1572         110.00       479.52
 1162.34        2976.00           1576         116.00       505.67
 1162.37        2976.25           1579         107.00       466.44
 1162.40        2976.50           1582         118.00       514.39
 1162.43        2976.75           1586         110.00       479.52
 1162.46        2977.00           1589         103.00       449.00
 1162.49        2977.25           1592         107.00       466.44
 1162.52        2977.50           1596         109.00       475.16
 1162.55        2977.75           1599         121.00       527.47
 1162.58        2978.00           1602         112.00       488.24
 1162.61        2978.25           1606         108.00       470.80
 1162.64        2978.50           1609         107.00       466.44
 1162.67        2978.75           1612         103.00       449.00
 1162.70        2979.00           1616         124.00       540.55
 1162.73        2979.25           1619          98.00       427.21
 1162.76        2979.50           1622         121.00       527.47
 1162.79        2979.75           1626         103.00       449.00
 1162.82        2980.00           1629          99.00       431.57
 1162.85        2980.25           1632          99.00       431.57
 1162.88        2980.50           1636         117.00       510.03
 1162.91        2980.75           1639         109.00       475.16
 1162.94        2981.00           1642         109.00       475.16
 1162.97        2981.25           1646          98.00       427.21
 1163.00        2981.50           1649         106.00       462.08
 1163.03        2981.75           1653         120.00       523.11
 1163.06        2982.00           1656         115.00       501.31
 1163.09        2982.25           1659          99.00       431.57
 1163.12        2982.50           1663         104.00       453.36
 1163.15        2982.75           1666         107.00       466.44
 1163.18        2983.00           1669          97.00       422.85
 1163.21        2983.25           1673         112.00       488.24
 1163.24        2983.50           1676          99.00       431.57
 1163.27        2983.75           1679         105.00       457.72
 1163.30        2984.00           1683         105.00       457.72
HS scan finished at 19:23:36
end
