************************************************************
  HS Scan of (1) Internal mercury lamp
************************************************************
Integration time is 0.2294 seconds per sample
dh080417DelftKZ 51.997-4.386 2.589593pr1000
************************************************************
Dead Time -------------------------  3E-08 
Number of Cycles Used -------------  4 
Starting Wavelength (Angstroms) ---  2950 
Final Wavelength (Angstoms) -------  2984 
Wavelength Increment (Angstroms) --  .25 
Filter Wheel #1 Position ---------- (1) Ground quartz diffuser (ND=2.32)
Filter Wheel #2 Position ---------- (1) Neutral Density 0.494



************************************************************
HS scan start time = 03:25:42
Dark Count =  0 


Time (GMT)  Wavelength (Ang)  Step Number  Raw Counts  Counts/Second

  206.14        2950.00           1229         135.00       588.50
  206.24        2950.25           1232         125.00       544.91
  206.27        2950.50           1236         130.00       566.71
  206.30        2950.75           1239         131.00       571.06
  206.33        2951.00           1242         121.00       527.47
  206.36        2951.25           1246         112.00       488.24
  206.39        2951.50           1249         129.00       562.35
  206.41        2951.75           1252         136.00       592.86
  206.44        2952.00           1255         129.00       562.35
  206.47        2952.25           1259         123.00       536.19
  206.50        2952.50           1262         120.00       523.11
  206.52        2952.75           1265         130.00       566.71
  206.55        2953.00           1269         131.00       571.06
  206.58        2953.25           1272         121.00       527.47
  206.61        2953.50           1275         130.00       566.71
  206.64        2953.75           1279         134.00       584.14
  206.66        2954.00           1282         128.00       557.99
  206.69        2954.25           1285         124.00       540.55
  206.72        2954.50           1289         120.00       523.11
  206.75        2954.75           1292         123.00       536.19
  206.78        2955.00           1295         118.00       514.39
  206.81        2955.25           1299         120.00       523.11
  206.83        2955.50           1302         119.00       518.75
  206.86        2955.75           1305         127.00       553.63
  206.89        2956.00           1309         123.00       536.19
  206.92        2956.25           1312         113.00       492.60
  206.95        2956.50           1315         127.00       553.63
  206.98        2956.75           1319         122.00       531.83
  207.01        2957.00           1322         125.00       544.91
  207.03        2957.25           1325         131.00       571.06
  207.06        2957.50           1329         124.00       540.55
  207.09        2957.75           1332         116.00       505.67
  207.12        2958.00           1335         130.00       566.71
  207.15        2958.25           1339         121.00       527.47
  207.17        2958.50           1342         122.00       531.83
  207.20        2958.75           1345         120.00       523.11
  207.23        2959.00           1349         127.00       553.63
  207.26        2959.25           1352         127.00       553.63
  207.28        2959.50           1355         123.00       536.19
  207.31        2959.75           1359         123.00       536.19
  207.34        2960.00           1362         131.00       571.06
  207.37        2960.25           1365         129.00       562.35
  207.39        2960.50           1369         138.00       601.58
  207.43        2960.75           1372         137.00       597.22
  207.46        2961.00           1375         141.00       614.66
  207.48        2961.25           1379         161.00       701.85
  207.51        2961.50           1382         240.00      1046.24
  207.54        2961.75           1385         809.00      3526.96
  207.57        2962.00           1389        2609.00     11377.03
  207.59        2962.25           1392        4288.00     18702.73
  207.62        2962.50           1395        6465.00     28206.07
  207.65        2962.75           1399        9556.00     41708.65
  207.68        2963.00           1402       12409.00     54181.29
  207.71        2963.25           1405       15232.00     66531.97
  207.73        2963.50           1409       18018.00     78729.76
  207.76        2963.75           1412       20672.00     90357.94
  207.80        2964.00           1415       23451.00    102542.50
  207.83        2964.25           1419       27019.00    118199.60
  207.86        2964.50           1422       30267.00    132465.20
  207.89        2964.75           1425       32544.00    142473.40
  207.92        2965.00           1429       35494.00    155448.60
  207.95        2965.25           1432       38274.00    167685.40
  207.97        2965.50           1435       41028.00    179816.60
  208.00        2965.75           1439       44380.00    194593.90
  208.03        2966.00           1442       46863.00    205548.70
  208.06        2966.25           1445       49946.00    219160.70
  208.09        2966.50           1449       52389.00    229955.00
  208.13        2966.75           1452       53616.00    235379.00
  208.16        2967.00           1455       53979.00    236984.00
  208.19        2967.25           1459       54025.00    237187.40
  208.21        2967.50           1462       54105.00    237541.20
  208.24        2967.75           1465       54128.00    237642.90
  208.27        2968.00           1469       53072.00    232974.00
  208.30        2968.25           1472       51648.00    226680.20
  208.32        2968.50           1475       49292.00    216272.30
  208.35        2968.75           1479       45739.00    200588.80
  208.38        2969.00           1482       43371.00    190144.40
  208.41        2969.25           1485       41325.00    181125.40
  208.44        2969.50           1489       37717.00    165232.90
  208.46        2969.75           1492       35265.00    154441.00
  208.49        2970.00           1495       33102.00    144926.90
  208.52        2970.25           1499       29673.00    129855.40
  208.55        2970.50           1502       27868.00    121927.30
  208.58        2970.75           1505       25482.00    111453.10
  208.61        2971.00           1509       22463.00     98209.59
  208.64        2971.25           1512       19884.00     86904.58
  208.66        2971.50           1515       16963.00     74109.66
  208.69        2971.75           1519       13717.00     59902.68
  208.72        2972.00           1522       10880.00     47495.70
  208.75        2972.25           1525        8380.00     36570.18
  208.77        2972.50           1529        5161.00     22513.02
  208.80        2972.75           1532        2727.00     11891.78
  208.83        2973.00           1536         913.00      3980.42
  208.86        2973.25           1539         409.00      1783.01
  208.89        2973.50           1542         212.00       924.18
  208.91        2973.75           1546         157.00       684.41
  208.94        2974.00           1549         148.00       645.17
  208.97        2974.25           1552         133.00       579.78
  209.00        2974.50           1556         126.00       549.27
  209.02        2974.75           1559         129.00       562.35
  209.05        2975.00           1562         120.00       523.11
  209.08        2975.25           1566         114.00       496.96
  209.11        2975.50           1569         116.00       505.67
  209.13        2975.75           1572         114.00       496.96
  209.16        2976.00           1576         105.00       457.72
  209.19        2976.25           1579         110.00       479.52
  209.22        2976.50           1582         104.00       453.36
  209.25        2976.75           1586         107.00       466.44
  209.28        2977.00           1589         101.00       440.28
  209.31        2977.25           1592          98.00       427.21
  209.33        2977.50           1596         119.00       518.75
  209.36        2977.75           1599         105.00       457.72
  209.39        2978.00           1602          95.00       414.13
  209.42        2978.25           1606         115.00       501.32
  209.45        2978.50           1609         108.00       470.80
  209.48        2978.75           1612         108.00       470.80
  209.51        2979.00           1616         103.00       449.00
  209.54        2979.25           1619         106.00       462.08
  209.57        2979.50           1623         108.00       470.80
  209.60        2979.75           1626         110.00       479.52
  209.62        2980.00           1629          98.00       427.21
  209.65        2980.25           1633         106.00       462.08
  209.68        2980.50           1636         106.00       462.08
  209.71        2980.75           1639         106.00       462.08
  209.73        2981.00           1643         114.00       496.96
  209.76        2981.25           1646          96.00       418.49
  209.79        2981.50           1649         111.00       483.88
  209.82        2981.75           1653         104.00       453.36
  209.85        2982.00           1656         103.00       449.00
  209.87        2982.25           1659         114.00       496.96
  209.90        2982.50           1663         115.00       501.32
  209.93        2982.75           1666         109.00       475.16
  209.95        2983.00           1669         106.00       462.08
  209.98        2983.25           1673         106.00       462.08
  210.01        2983.50           1676         104.00       453.36
  210.04        2983.75           1679         104.00       453.36
  210.07        2984.00           1683         102.00       444.64
HS scan finished at 03:30:22
end
