************************************************************
  HS Scan of (1) Internal mercury lamp
************************************************************
Integration time is 0.2294 seconds per sample
dh060417DelftKZ 51.997-4.386 2.428648pr1000
************************************************************
Dead Time -------------------------  3E-08 
Number of Cycles Used -------------  4 
Starting Wavelength (Angstroms) ---  2950 
Final Wavelength (Angstoms) -------  2984 
Wavelength Increment (Angstroms) --  .25 
Filter Wheel #1 Position ---------- (1) Ground quartz diffuser (ND=2.32)
Filter Wheel #2 Position ---------- (1) Neutral Density 0.494



************************************************************
HS scan start time = 03:32:10
Dark Count =  0 


Time (GMT)  Wavelength (Ang)  Step Number  Raw Counts  Counts/Second

  212.62        2950.00           1229         134.00       584.14
  212.73        2950.25           1232         135.00       588.50
  212.76        2950.50           1236         132.00       575.42
  212.79        2950.75           1239         126.00       549.27
  212.82        2951.00           1242         131.00       571.06
  212.85        2951.25           1246         136.00       592.86
  212.88        2951.50           1249         130.00       566.71
  212.90        2951.75           1252         129.00       562.35
  212.93        2952.00           1255         137.00       597.22
  212.96        2952.25           1259         123.00       536.19
  212.99        2952.50           1262         134.00       584.14
  213.01        2952.75           1265         125.00       544.91
  213.04        2953.00           1269         126.00       549.27
  213.07        2953.25           1272         131.00       571.06
  213.10        2953.50           1275         121.00       527.47
  213.13        2953.75           1279         120.00       523.11
  213.15        2954.00           1282         132.00       575.42
  213.18        2954.25           1285         126.00       549.27
  213.21        2954.50           1289         119.00       518.75
  213.24        2954.75           1292         128.00       557.99
  213.27        2955.00           1295         117.00       510.03
  213.30        2955.25           1299         124.00       540.55
  213.33        2955.50           1302         138.00       601.58
  213.35        2955.75           1305         139.00       605.94
  213.38        2956.00           1309         117.00       510.03
  213.41        2956.25           1312         138.00       601.58
  213.44        2956.50           1315         126.00       549.27
  213.47        2956.75           1319         134.00       584.14
  213.50        2957.00           1322         122.00       531.83
  213.53        2957.25           1325         126.00       549.27
  213.55        2957.50           1329         130.00       566.71
  213.58        2957.75           1332         138.00       601.58
  213.61        2958.00           1335         127.00       553.63
  213.64        2958.25           1339         123.00       536.19
  213.67        2958.50           1342         129.00       562.35
  213.69        2958.75           1345         119.00       518.75
  213.72        2959.00           1349         129.00       562.35
  213.75        2959.25           1352         121.00       527.47
  213.78        2959.50           1355         117.00       510.03
  213.80        2959.75           1359         122.00       531.83
  213.83        2960.00           1362         112.00       488.24
  213.86        2960.25           1365         118.00       514.39
  213.89        2960.50           1369         133.00       579.78
  213.92        2960.75           1372         132.00       575.42
  213.95        2961.00           1375         136.00       592.86
  213.98        2961.25           1379         159.00       693.13
  214.00        2961.50           1382         292.00      1272.93
  214.03        2961.75           1385         940.00      4098.15
  214.06        2962.00           1389        2396.00     10447.91
  214.09        2962.25           1392        4180.00     18231.42
  214.11        2962.50           1395        6130.00     26743.33
  214.14        2962.75           1399        9063.00     39554.32
  214.17        2963.00           1402       11312.00     49384.36
  214.20        2963.25           1405       13377.00     58415.28
  214.22        2963.50           1409       15872.00     69333.25
  214.25        2963.75           1412       18456.00     80648.25
  214.28        2964.00           1415       20990.00     91751.78
  214.31        2964.25           1419       23818.00    104152.30
  214.34        2964.50           1422       26540.00    116096.80
  214.36        2964.75           1425       28951.00    126683.70
  214.39        2965.00           1429       32063.00    140358.80
  214.42        2965.25           1432       34166.00    149606.30
  214.45        2965.50           1435       36387.00    159378.40
  214.47        2965.75           1439       39344.00    172397.60
  214.50        2966.00           1442       41219.00    180658.30
  214.53        2966.25           1445       43064.00    188790.80
  214.56        2966.50           1449       45153.00    198003.60
  214.59        2966.75           1452       46305.00    203086.20
  214.62        2967.00           1455       46565.00    204233.60
  214.64        2967.25           1459       46816.00    205341.30
  214.67        2967.50           1462       46742.00    205014.70
  214.70        2967.75           1465       46558.00    204202.70
  214.73        2968.00           1469       45487.00    199477.00
  214.75        2968.25           1472       44011.00    192966.50
  214.78        2968.50           1475       42132.00    184682.10
  214.81        2968.75           1479       39875.00    174736.60
  214.85        2969.00           1482       37855.00    165840.50
  214.87        2969.25           1485       35861.00    157063.50
  214.90        2969.50           1489       32975.00    144368.50
  214.93        2969.75           1492       30486.00    133427.50
  214.96        2970.00           1495       28400.00    124263.60
  214.98        2970.25           1499       25455.00    111334.60
  215.01        2970.50           1502       23362.00    102152.20
  215.04        2970.75           1505       21293.00     93079.96
  215.07        2971.00           1509       18531.00     80976.78
  215.10        2971.25           1512       16152.00     70558.97
  215.12        2971.50           1515       13884.00     60633.30
  215.15        2971.75           1519       11705.00     51102.70
  215.18        2972.00           1522        9266.00     40441.37
  215.21        2972.25           1525        7247.00     31621.09
  215.24        2972.50           1529        4166.00     18170.32
  215.26        2972.75           1532        1959.00      8541.86
  215.29        2973.00           1536         591.00      2576.49
  215.32        2973.25           1539         268.00      1168.31
  215.35        2973.50           1542         167.00       728.00
  215.37        2973.75           1546         155.00       675.69
  215.40        2974.00           1549         141.00       614.66
  215.43        2974.25           1552         129.00       562.35
  215.46        2974.50           1556         128.00       557.99
  215.48        2974.75           1559         124.00       540.55
  215.51        2975.00           1562         120.00       523.11
  215.54        2975.25           1566         113.00       492.60
  215.57        2975.50           1569         120.00       523.11
  215.59        2975.75           1572         114.00       496.96
  215.62        2976.00           1576         116.00       505.67
  215.65        2976.25           1579         109.00       475.16
  215.68        2976.50           1582         106.00       462.08
  215.70        2976.75           1586         114.00       496.96
  215.73        2977.00           1589         112.00       488.24
  215.76        2977.25           1592         122.00       531.83
  215.79        2977.50           1596         106.00       462.08
  215.82        2977.75           1599         105.00       457.72
  215.84        2978.00           1602         106.00       462.08
  215.87        2978.25           1606         115.00       501.32
  215.90        2978.50           1609         107.00       466.44
  215.93        2978.75           1612         114.00       496.96
  215.96        2979.00           1616         119.00       518.75
  215.99        2979.25           1619         124.00       540.55
  216.02        2979.50           1623         109.00       475.16
  216.05        2979.75           1626         112.00       488.24
  216.08        2980.00           1629         103.00       449.00
  216.10        2980.25           1633         104.00       453.36
  216.13        2980.50           1636         104.00       453.36
  216.16        2980.75           1639          99.00       431.57
  216.19        2981.00           1643         112.00       488.24
  216.21        2981.25           1646         112.00       488.24
  216.24        2981.50           1649         106.00       462.08
  216.27        2981.75           1653          96.00       418.49
  216.30        2982.00           1656         106.00       462.08
  216.32        2982.25           1659          95.00       414.13
  216.35        2982.50           1663         109.00       475.16
  216.38        2982.75           1666         115.00       501.32
  216.41        2983.00           1669         108.00       470.80
  216.44        2983.25           1673         106.00       462.08
  216.46        2983.50           1676         106.00       462.08
  216.49        2983.75           1679         100.00       435.93
  216.52        2984.00           1683         103.00       449.00
HS scan finished at 03:36:49
end
