************************************************************
  HS Scan of (1) Internal mercury lamp
************************************************************
Integration time is 0.2294 seconds per sample
dh090418Delft 51.9969-4.3863 2.589593pr1000
************************************************************
Dead Time -------------------------  2.7E-08 
Number of Cycles Used -------------  4 
Starting Wavelength (Angstroms) ---  2950 
Final Wavelength (Angstoms) -------  2984 
Wavelength Increment (Angstroms) --  .25 
Filter Wheel #1 Position ---------- (1) Ground quartz diffuser (ND=2.32)
Filter Wheel #2 Position ---------- (1) Neutral Density 0.494



************************************************************
HS scan start time = 03:38:56
Dark Count =  .1 


Time (GMT)  Wavelength (Ang)  Step Number  Raw Counts  Counts/Second

  219.39        2950.00           1229         129.00       561.91
  219.49        2950.25           1232         121.00       527.03
  219.52        2950.50           1236         131.00       570.63
  219.55        2950.75           1239         131.00       570.63
  219.58        2951.00           1242         119.00       518.32
  219.61        2951.25           1246         136.00       592.42
  219.64        2951.50           1249         128.00       557.55
  219.67        2951.75           1252         117.00       509.60
  219.70        2952.00           1256         135.00       588.07
  219.73        2952.25           1259         128.00       557.55
  219.76        2952.50           1262         123.00       535.75
  219.78        2952.75           1266         131.00       570.63
  219.81        2953.00           1269         125.00       544.47
  219.84        2953.25           1272         123.00       535.75
  219.87        2953.50           1276         137.00       596.78
  219.90        2953.75           1279         123.00       535.75
  219.93        2954.00           1282         123.00       535.75
  219.96        2954.25           1286         130.00       566.27
  219.99        2954.50           1289         122.00       531.39
  220.02        2954.75           1292         122.00       531.39
  220.05        2955.00           1296         138.00       601.14
  220.08        2955.25           1299         118.00       513.96
  220.11        2955.50           1302         135.00       588.07
  220.14        2955.75           1306         123.00       535.75
  220.17        2956.00           1309         127.00       553.19
  220.20        2956.25           1312         131.00       570.63
  220.23        2956.50           1316         120.00       522.68
  220.26        2956.75           1319         133.00       579.35
  220.29        2957.00           1322         112.00       487.80
  220.32        2957.25           1326         116.00       505.24
  220.35        2957.50           1329         133.00       579.35
  220.38        2957.75           1332         119.00       518.32
  220.41        2958.00           1336         129.00       561.91
  220.44        2958.25           1339         113.00       492.16
  220.47        2958.50           1342         122.00       531.39
  220.50        2958.75           1345         124.00       540.11
  220.53        2959.00           1349         124.00       540.11
  220.56        2959.25           1352         117.00       509.60
  220.59        2959.50           1355         110.00       479.08
  220.62        2959.75           1359         122.00       531.39
  220.65        2960.00           1362         118.00       513.96
  220.68        2960.25           1365         119.00       518.32
  220.71        2960.50           1369         127.00       553.19
  220.74        2960.75           1372         130.00       566.27
  220.77        2961.00           1375         149.00       649.10
  220.80        2961.25           1379         153.00       666.53
  220.82        2961.50           1382         194.00       845.27
  220.86        2961.75           1385         518.00      2257.77
  220.89        2962.00           1389        2341.00     10207.26
  220.92        2962.25           1392        4424.00     19294.71
  220.95        2962.50           1395        6234.00     27194.77
  220.97        2962.75           1399        9285.00     40519.02
  221.00        2963.00           1402       11972.00     52261.58
  221.03        2963.25           1405       14864.00     64908.34
  221.06        2963.50           1409       18765.00     81981.18
  221.09        2963.75           1412       21118.00     92286.78
  221.13        2964.00           1415       23149.00    101186.70
  221.15        2964.25           1419       26618.00    116397.90
  221.18        2964.50           1422       29623.00    129584.70
  221.21        2964.75           1425       32094.00    140435.20
  221.24        2965.00           1429       35552.00    155630.40
  221.27        2965.25           1432       38434.00    168304.00
  221.30        2965.50           1435       40779.00    178622.70
  221.33        2965.75           1439       43965.00    192651.20
  221.36        2966.00           1442       46426.00    203494.70
  221.39        2966.25           1445       49184.00    215654.40
  221.42        2966.50           1449       52115.00    228585.60
  221.45        2966.75           1452       52802.00    231617.90
  221.48        2967.00           1455       53336.00    233975.20
  221.51        2967.25           1459       53672.00    235458.60
  221.54        2967.50           1462       53412.00    234310.70
  221.57        2967.75           1465       53443.00    234447.60
  221.60        2968.00           1469       52305.00    229424.20
  221.63        2968.25           1472       50773.00    222663.80
  221.66        2968.50           1475       49020.00    214931.10
  221.69        2968.75           1479       45737.00    200458.20
  221.72        2969.00           1482       43267.00    189576.90
  221.75        2969.25           1485       41029.00    179723.10
  221.78        2969.50           1489       38153.00    167068.00
  221.81        2969.75           1492       35635.00    155995.20
  221.84        2970.00           1495       33465.00    146458.10
  221.87        2970.25           1499       29952.00    131029.00
  221.90        2970.50           1502       27238.00    119117.90
  221.93        2970.75           1505       24524.00    107214.50
  221.96        2971.00           1509       20886.00     91270.42
  221.99        2971.25           1512       18708.00     81731.61
  222.02        2971.50           1515       16484.00     71996.40
  222.05        2971.75           1519       13094.00     57167.08
  222.08        2972.00           1522       10455.00     45631.17
  222.11        2972.25           1525        8364.00     36495.85
  222.14        2972.50           1529        5830.00     25431.15
  222.17        2972.75           1532        3496.00     15245.60
  222.20        2973.00           1535        1700.00      7411.68
  222.23        2973.25           1539         457.00      1991.82
  222.26        2973.50           1542         204.00       888.86
  222.29        2973.75           1546         164.00       714.49
  222.32        2974.00           1549         144.00       627.30
  222.35        2974.25           1552         131.00       570.63
  222.38        2974.50           1556         140.00       609.86
  222.41        2974.75           1559         122.00       531.39
  222.44        2975.00           1562         122.00       531.39
  222.47        2975.25           1566         124.00       540.11
  222.50        2975.50           1569         110.00       479.08
  222.53        2975.75           1572         116.00       505.24
  222.56        2976.00           1576         116.00       505.24
  222.59        2976.25           1579         116.00       505.24
  222.62        2976.50           1582         112.00       487.80
  222.65        2976.75           1586         117.00       509.60
  222.68        2977.00           1589         111.00       483.44
  222.71        2977.25           1592         111.00       483.44
  222.73        2977.50           1596         103.00       448.57
  222.76        2977.75           1599         114.00       496.52
  222.79        2978.00           1602         117.00       509.60
  222.82        2978.25           1606         114.00       496.52
  222.85        2978.50           1609         114.00       496.52
  222.88        2978.75           1612         101.00       439.85
  222.91        2979.00           1616         118.00       513.96
  222.94        2979.25           1619         111.00       483.44
  222.97        2979.50           1622         108.00       470.36
  223.00        2979.75           1626         108.00       470.36
  223.03        2980.00           1629         111.00       483.44
  223.06        2980.25           1632         110.00       479.08
  223.09        2980.50           1636         121.00       527.03
  223.12        2980.75           1639         115.00       500.88
  223.15        2981.00           1642         103.00       448.57
  223.18        2981.25           1646         106.00       461.64
  223.21        2981.50           1649         112.00       487.80
  223.24        2981.75           1653         105.00       457.29
  223.27        2982.00           1656         110.00       479.08
  223.30        2982.25           1659         111.00       483.44
  223.33        2982.50           1663          99.00       431.13
  223.36        2982.75           1666         111.00       483.44
  223.39        2983.00           1669         108.00       470.36
  223.42        2983.25           1673         108.00       470.36
  223.45        2983.50           1676         116.00       505.24
  223.48        2983.75           1679         103.00       448.57
  223.51        2984.00           1683         106.00       461.64
HS scan finished at 03:43:49
end
************************************************************
  HS Scan of (1) Internal mercury lamp
************************************************************
Integration time is 0.2294 seconds per sample
dh090418Delft 51.9969-4.3863 2.750537pr1000
************************************************************
Dead Time -------------------------  2.7E-08 
Number of Cycles Used -------------  4 
Starting Wavelength (Angstroms) ---  2950 
Final Wavelength (Angstoms) -------  2984 
Wavelength Increment (Angstroms) --  .25 
Filter Wheel #1 Position ---------- (1) Ground quartz diffuser (ND=2.32)
Filter Wheel #2 Position ---------- (1) Neutral Density 0.494



************************************************************
HS scan start time = 19:24:45
Dark Count =  .2 


Time (GMT)  Wavelength (Ang)  Step Number  Raw Counts  Counts/Second

 1165.20        2950.00           1229         127.00       552.75
 1165.30        2950.25           1232         116.00       504.80
 1165.33        2950.50           1236         128.00       557.11
 1165.36        2950.75           1239         126.00       548.40
 1165.39        2951.00           1242         116.00       504.80
 1165.42        2951.25           1246         129.00       561.47
 1165.45        2951.50           1249         132.00       574.55
 1165.48        2951.75           1252         133.00       578.91
 1165.51        2952.00           1256         122.00       530.96
 1165.54        2952.25           1259         128.00       557.11
 1165.57        2952.50           1262         125.00       544.04
 1165.60        2952.75           1266         125.00       544.04
 1165.63        2953.00           1269         122.00       530.96
 1165.66        2953.25           1272         125.00       544.04
 1165.69        2953.50           1276         123.00       535.32
 1165.72        2953.75           1279         127.00       552.75
 1165.75        2954.00           1282         117.00       509.16
 1165.78        2954.25           1286         121.00       526.60
 1165.81        2954.50           1289         124.00       539.68
 1165.84        2954.75           1292         121.00       526.60
 1165.87        2955.00           1296         115.00       500.44
 1165.90        2955.25           1299         123.00       535.32
 1165.93        2955.50           1302         119.00       517.88
 1165.95        2955.75           1306         126.00       548.40
 1165.98        2956.00           1309         129.00       561.47
 1166.01        2956.25           1312         114.00       496.08
 1166.04        2956.50           1316         123.00       535.32
 1166.07        2956.75           1319         121.00       526.60
 1166.10        2957.00           1322         125.00       544.04
 1166.13        2957.25           1326         125.00       544.04
 1166.16        2957.50           1329         119.00       517.88
 1166.19        2957.75           1332         126.00       548.40
 1166.22        2958.00           1336         128.00       557.11
 1166.25        2958.25           1339         134.00       583.27
 1166.28        2958.50           1342         130.00       565.83
 1166.31        2958.75           1345         126.00       548.40
 1166.34        2959.00           1349         123.00       535.32
 1166.37        2959.25           1352         119.00       517.88
 1166.40        2959.50           1355         119.00       517.88
 1166.43        2959.75           1359         130.00       565.83
 1166.46        2960.00           1362         114.00       496.08
 1166.49        2960.25           1365         114.00       496.08
 1166.52        2960.50           1369         120.00       522.24
 1166.55        2960.75           1372         132.00       574.55
 1166.58        2961.00           1375         135.00       587.63
 1166.61        2961.25           1379         147.00       639.94
 1166.64        2961.50           1382         238.00      1036.65
 1166.67        2961.75           1385         766.00      3338.57
 1166.70        2962.00           1389        2450.00     10682.24
 1166.73        2962.25           1392        4292.00     18718.26
 1166.76        2962.50           1395        6452.00     28146.06
 1166.79        2962.75           1399       10107.00     44110.05
 1166.82        2963.00           1402       13429.00     58631.54
 1166.85        2963.25           1405       15918.00     69519.21
 1166.88        2963.50           1409       19342.00     84507.34
 1166.91        2963.75           1412       22006.00     96177.07
 1166.94        2964.00           1415       24801.00    108428.60
 1166.97        2964.25           1419       28642.00    125278.30
 1167.00        2964.50           1422       31312.00    137000.20
 1167.03        2964.75           1425       33733.00    147635.30
 1167.06        2965.00           1429       36924.00    161662.30
 1167.09        2965.25           1432       40279.00    176421.60
 1167.12        2965.50           1435       42949.00    188176.00
 1167.15        2965.75           1439       46039.00    201788.70
 1167.18        2966.00           1442       48946.00    214604.30
 1167.21        2966.25           1445       51882.00    227556.90
 1167.24        2966.50           1449       54688.00    239944.40
 1167.27        2966.75           1452       55678.00    244316.90
 1167.30        2967.00           1455       56115.00    246247.30
 1167.33        2967.25           1459       56253.00    246857.00
 1167.36        2967.50           1462       56363.00    247343.00
 1167.39        2967.75           1465       56235.00    246777.50
 1167.42        2968.00           1469       55068.00    241622.60
 1167.45        2968.25           1472       53383.00    234182.30
 1167.48        2968.50           1475       50896.00    223206.00
 1167.51        2968.75           1479       47517.00    208303.40
 1167.54        2969.00           1482       45380.00    198884.70
 1167.57        2969.25           1485       42952.00    188189.20
 1167.60        2969.50           1489       39380.00    172465.60
 1167.63        2969.75           1492       36800.00    161117.00
 1167.66        2970.00           1495       34046.00    149010.70
 1167.69        2970.25           1499       31077.00    135968.20
 1167.72        2970.50           1502       28551.00    124879.00
 1167.75        2970.75           1505       26069.00    113989.40
 1167.78        2971.00           1509       22509.00     98381.30
 1167.81        2971.25           1512       19816.00     86583.18
 1167.84        2971.50           1515       17160.00     74954.51
 1167.87        2971.75           1519       13722.00     59912.89
 1167.90        2972.00           1522       11046.00     48213.55
 1167.93        2972.25           1525        8756.00     38207.66
 1167.96        2972.50           1529        5439.00     23724.00
 1167.99        2972.75           1532        3044.00     13273.28
 1168.02        2973.00           1535        1459.00      6360.29
 1168.05        2973.25           1539         510.00      2222.45
 1168.08        2973.50           1542         215.00       936.38
 1168.11        2973.75           1546         154.00       670.46
 1168.14        2974.00           1549         149.00       648.66
 1168.17        2974.25           1552         146.00       635.58
 1168.20        2974.50           1556         136.00       591.99
 1168.23        2974.75           1559         131.00       570.19
 1168.26        2975.00           1562         119.00       517.88
 1168.29        2975.25           1566         115.00       500.44
 1168.32        2975.50           1569         101.00       439.41
 1168.35        2975.75           1572         114.00       496.08
 1168.38        2976.00           1576         108.00       469.93
 1168.41        2976.25           1579         120.00       522.24
 1168.44        2976.50           1582         111.00       483.01
 1168.46        2976.75           1586         102.00       443.77
 1168.50        2977.00           1589         104.00       452.49
 1168.52        2977.25           1592         120.00       522.24
 1168.56        2977.50           1596         112.00       487.36
 1168.59        2977.75           1599         105.00       456.85
 1168.61        2978.00           1602         102.00       443.77
 1168.64        2978.25           1606         105.00       456.85
 1168.67        2978.50           1609         107.00       465.57
 1168.70        2978.75           1612         122.00       530.96
 1168.73        2979.00           1616         107.00       465.57
 1168.76        2979.25           1619         116.00       504.80
 1168.79        2979.50           1622         111.00       483.01
 1168.82        2979.75           1626         108.00       469.93
 1168.85        2980.00           1629         114.00       496.08
 1168.88        2980.25           1632         107.00       465.57
 1168.91        2980.50           1636         109.00       474.29
 1168.94        2980.75           1639          98.00       426.33
 1168.97        2981.00           1642         110.00       478.65
 1169.00        2981.25           1646         100.00       435.05
 1169.03        2981.50           1649         102.00       443.77
 1169.06        2981.75           1653         108.00       469.93
 1169.09        2982.00           1656         110.00       478.65
 1169.12        2982.25           1659         103.00       448.13
 1169.15        2982.50           1663         110.00       478.65
 1169.18        2982.75           1666         108.00       469.93
 1169.21        2983.00           1669         101.00       439.41
 1169.24        2983.25           1673         104.00       452.49
 1169.27        2983.50           1676         101.00       439.41
 1169.30        2983.75           1679         101.00       439.41
 1169.33        2984.00           1683         105.00       456.85
HS scan finished at 19:29:38
end
