************************************************************
  HS Scan of (1) Internal mercury lamp
************************************************************
Integration time is 0.2294 seconds per sample
dh310317DelftKZ 51.997-4.386 2.804185pr1000
************************************************************
Dead Time -------------------------  3E-08 
Number of Cycles Used -------------  4 
Starting Wavelength (Angstroms) ---  2950 
Final Wavelength (Angstoms) -------  2984 
Wavelength Increment (Angstroms) --  .25 
Filter Wheel #1 Position ---------- (1) Ground quartz diffuser (ND=2.32)
Filter Wheel #2 Position ---------- (1) Neutral Density 0.494



************************************************************
HS scan start time = 00:32:29
Dark Count =  0 


Time (GMT)  Wavelength (Ang)  Step Number  Raw Counts  Counts/Second

   32.93        2950.00           1229         128.00       557.99
   33.03        2950.25           1232         124.00       540.55
   33.06        2950.50           1236         126.00       549.27
   33.08        2950.75           1239         139.00       605.94
   33.11        2951.00           1242         137.00       597.22
   33.14        2951.25           1246         133.00       579.78
   33.17        2951.50           1249         119.00       518.75
   33.20        2951.75           1252         134.00       584.14
   33.23        2952.00           1255         114.00       496.96
   33.26        2952.25           1259         125.00       544.91
   33.28        2952.50           1262         122.00       531.83
   33.31        2952.75           1265         121.00       527.47
   33.34        2953.00           1269         125.00       544.91
   33.37        2953.25           1272         117.00       510.03
   33.39        2953.50           1275         119.00       518.75
   33.42        2953.75           1279         120.00       523.11
   33.45        2954.00           1282         127.00       553.63
   33.48        2954.25           1285         133.00       579.78
   33.51        2954.50           1289         120.00       523.11
   33.54        2954.75           1292         113.00       492.60
   33.57        2955.00           1295         120.00       523.11
   33.59        2955.25           1299         120.00       523.11
   33.62        2955.50           1302         110.00       479.52
   33.65        2955.75           1305         121.00       527.47
   33.68        2956.00           1309         118.00       514.39
   33.70        2956.25           1312         104.00       453.36
   33.73        2956.50           1315         111.00       483.88
   33.76        2956.75           1319         115.00       501.32
   33.79        2957.00           1322         112.00       488.24
   33.82        2957.25           1325         116.00       505.67
   33.84        2957.50           1329         126.00       549.27
   33.87        2957.75           1332         122.00       531.83
   33.90        2958.00           1335         120.00       523.11
   33.93        2958.25           1339         113.00       492.60
   33.95        2958.50           1342         122.00       531.83
   33.98        2958.75           1345         117.00       510.03
   34.01        2959.00           1349         116.00       505.67
   34.04        2959.25           1352         123.00       536.19
   34.06        2959.50           1355         112.00       488.24
   34.09        2959.75           1359         122.00       531.83
   34.12        2960.00           1362         120.00       523.11
   34.15        2960.25           1365         119.00       518.75
   34.18        2960.50           1369         116.00       505.67
   34.20        2960.75           1372         126.00       549.27
   34.24        2961.00           1375         148.00       645.17
   34.27        2961.25           1379         158.00       688.77
   34.30        2961.50           1382         271.00      1181.38
   34.32        2961.75           1385         883.00      3849.62
   34.35        2962.00           1389        2729.00     11900.50
   34.38        2962.25           1392        5036.00     21967.40
   34.41        2962.50           1395        7646.00     33363.81
   34.44        2962.75           1399       11573.00     50525.53
   34.46        2963.00           1402       14674.00     64089.98
   34.49        2963.25           1405       17085.00     74643.87
   34.52        2963.50           1409       20731.00     90616.53
   34.55        2963.75           1412       24274.00    106152.70
   34.58        2964.00           1415       27435.00    120026.00
   34.61        2964.25           1419       31497.00    137870.70
   34.63        2964.50           1422       35048.00    153486.30
   34.66        2964.75           1425       38228.00    167482.80
   34.69        2965.00           1429       42280.00    185334.50
   34.72        2965.25           1432       45421.00    199185.90
   34.75        2965.50           1435       48621.00    213309.20
   34.77        2965.75           1439       52416.00    230074.30
   34.80        2966.00           1442       54918.00    241136.60
   34.83        2966.25           1445       57120.00    250878.50
   34.86        2966.50           1449       60576.00    266179.90
   34.89        2966.75           1452       62046.00    272692.60
   34.91        2967.00           1455       62654.00    275387.00
   34.94        2967.25           1459       63152.00    277594.20
   34.97        2967.50           1462       63016.00    276991.50
   35.00        2967.75           1465       62760.00    275856.80
   35.02        2968.00           1469       61757.00    271412.00
   35.05        2968.25           1472       59996.00    263611.00
   35.08        2968.50           1475       57316.00    251745.90
   35.11        2968.75           1479       54432.00    238987.20
   35.14        2969.00           1482       51750.00    227130.90
   35.16        2969.25           1485       48927.00    214660.40
   35.19        2969.50           1489       44945.00    197086.00
   35.22        2969.75           1492       41702.00    182786.90
   35.25        2970.00           1495       38929.00    170569.80
   35.27        2970.25           1499       34463.00    150912.80
   35.30        2970.50           1502       32076.00    140415.90
   35.33        2970.75           1505       29688.00    129921.30
   35.36        2971.00           1509       25433.00    111238.10
   35.39        2971.25           1512       22497.00     98358.68
   35.41        2971.50           1515       19764.00     86378.74
   35.44        2971.75           1519       16574.00     72406.46
   35.47        2972.00           1522       13238.00     57807.23
   35.50        2972.25           1525       10175.00     44413.98
   35.52        2972.50           1529        6188.00     26996.58
   35.55        2972.75           1532        3085.00     13453.56
   35.58        2973.00           1536         926.00      4037.11
   35.61        2973.25           1539         375.00      1634.78
   35.64        2973.50           1542         194.00       845.71
   35.66        2973.75           1546         150.00       653.89
   35.69        2974.00           1549         144.00       627.74
   35.72        2974.25           1552         131.00       571.06
   35.75        2974.50           1556         126.00       549.27
   35.77        2974.75           1559         130.00       566.71
   35.80        2975.00           1562         117.00       510.03
   35.83        2975.25           1566         112.00       488.24
   35.86        2975.50           1569         112.00       488.24
   35.89        2975.75           1572         108.00       470.80
   35.91        2976.00           1576         117.00       510.03
   35.94        2976.25           1579         107.00       466.44
   35.97        2976.50           1582         112.00       488.24
   36.00        2976.75           1586          98.00       427.21
   36.02        2977.00           1589         104.00       453.36
   36.05        2977.25           1592         109.00       475.16
   36.08        2977.50           1596         118.00       514.39
   36.11        2977.75           1599         115.00       501.32
   36.13        2978.00           1602          98.00       427.21
   36.16        2978.25           1606         100.00       435.93
   36.19        2978.50           1609         103.00       449.00
   36.22        2978.75           1612         102.00       444.64
   36.25        2979.00           1616         111.00       483.88
   36.28        2979.25           1619         103.00       449.00
   36.31        2979.50           1623         105.00       457.72
   36.34        2979.75           1626         104.00       453.36
   36.36        2980.00           1629         103.00       449.00
   36.39        2980.25           1633         103.00       449.00
   36.42        2980.50           1636         112.00       488.24
   36.45        2980.75           1639         105.00       457.72
   36.47        2981.00           1643         100.00       435.93
   36.50        2981.25           1646          97.00       422.85
   36.53        2981.50           1649         102.00       444.64
   36.56        2981.75           1653         104.00       453.36
   36.58        2982.00           1656         109.00       475.16
   36.61        2982.25           1659         106.00       462.08
   36.64        2982.50           1663         106.00       462.08
   36.67        2982.75           1666         101.00       440.28
   36.69        2983.00           1669         104.00       453.36
   36.72        2983.25           1673         106.00       462.08
   36.75        2983.50           1676         104.00       453.36
   36.78        2983.75           1679          96.00       418.49
   36.81        2984.00           1683          97.00       422.85
HS scan finished at 00:37:06
end
************************************************************
  HS Scan of (1) Internal mercury lamp
************************************************************
Integration time is 0.2294 seconds per sample
dh310317DelftKZ 51.997-4.386 2.750537pr1000
************************************************************
Dead Time -------------------------  3E-08 
Number of Cycles Used -------------  4 
Starting Wavelength (Angstroms) ---  2950 
Final Wavelength (Angstoms) -------  2984 
Wavelength Increment (Angstroms) --  .25 
Filter Wheel #1 Position ---------- (1) Ground quartz diffuser (ND=2.32)
Filter Wheel #2 Position ---------- (1) Neutral Density 0.494



************************************************************
HS scan start time = 03:50:44
Dark Count =  .1 


Time (GMT)  Wavelength (Ang)  Step Number  Raw Counts  Counts/Second

  231.18        2950.00           1229         125.00       544.47
  231.28        2950.25           1232         130.00       566.27
  231.31        2950.50           1236         136.00       592.43
  231.33        2950.75           1239         125.00       544.47
  231.36        2951.00           1242         137.00       596.78
  231.39        2951.25           1246         128.00       557.55
  231.42        2951.50           1249         127.00       553.19
  231.45        2951.75           1252         131.00       570.63
  231.48        2952.00           1255         123.00       535.75
  231.50        2952.25           1259         131.00       570.63
  231.53        2952.50           1262         124.00       540.11
  231.56        2952.75           1265         137.00       596.78
  231.59        2953.00           1269         128.00       557.55
  231.62        2953.25           1272         120.00       522.68
  231.64        2953.50           1275         123.00       535.75
  231.67        2953.75           1279         134.00       583.71
  231.70        2954.00           1282         125.00       544.47
  231.73        2954.25           1285         122.00       531.39
  231.75        2954.50           1289         124.00       540.11
  231.78        2954.75           1292         127.00       553.19
  231.81        2955.00           1295         128.00       557.55
  231.84        2955.25           1299         109.00       474.72
  231.86        2955.50           1302         122.00       531.39
  231.89        2955.75           1305         127.00       553.19
  231.92        2956.00           1309         124.00       540.11
  231.95        2956.25           1312         121.00       527.04
  231.97        2956.50           1315         124.00       540.11
  232.00        2956.75           1319         123.00       535.75
  232.03        2957.00           1322         119.00       518.32
  232.06        2957.25           1325         133.00       579.35
  232.09        2957.50           1329         117.00       509.60
  232.11        2957.75           1332         114.00       496.52
  232.14        2958.00           1335         119.00       518.32
  232.17        2958.25           1339         123.00       535.75
  232.20        2958.50           1342         119.00       518.32
  232.22        2958.75           1345         116.00       505.24
  232.25        2959.00           1349         108.00       470.36
  232.28        2959.25           1352         121.00       527.04
  232.31        2959.50           1355         112.00       487.80
  232.34        2959.75           1359         122.00       531.39
  232.36        2960.00           1362         121.00       527.04
  232.39        2960.25           1365         132.00       574.99
  232.42        2960.50           1369         132.00       574.99
  232.45        2960.75           1372         135.00       588.07
  232.47        2961.00           1375         137.00       596.78
  232.50        2961.25           1379         164.00       714.49
  232.53        2961.50           1382         236.00      1028.37
  232.56        2961.75           1385         775.00      3378.29
  232.58        2962.00           1389        2850.00     12427.91
  232.61        2962.25           1392        4917.00     21447.54
  232.64        2962.50           1395        6907.00     30135.78
  232.67        2962.75           1399       10474.00     45720.48
  232.70        2963.00           1402       13628.00     59512.87
  232.72        2963.25           1405       16237.00     70930.65
  232.75        2963.50           1409       19850.00     86755.15
  232.78        2963.75           1412       23043.00    100752.60
  232.81        2964.00           1415       25963.00    113563.70
  232.83        2964.25           1419       29875.00    130742.40
  232.86        2964.50           1422       32810.00    143642.50
  232.89        2964.75           1425       35976.00    157569.10
  232.92        2965.00           1429       39211.00    171811.40
  232.95        2965.25           1432       41318.00    181094.10
  232.98        2965.50           1435       44095.00    193336.50
  233.01        2965.75           1439       47917.00    210200.60
  233.03        2966.00           1442       50567.00    221903.50
  233.06        2966.25           1445       53199.00    233535.00
  233.09        2966.50           1449       56285.00    247183.20
  233.12        2966.75           1452       57595.00    252980.30
  233.15        2967.00           1455       58294.00    256074.30
  233.17        2967.25           1459       58445.00    256742.80
  233.20        2967.50           1462       58563.00    257265.20
  233.23        2967.75           1465       58491.00    256946.50
  233.26        2968.00           1469       57670.00    253312.20
  233.28        2968.25           1472       56015.00    245988.70
  233.31        2968.50           1475       53919.00    236718.30
  233.34        2968.75           1479       50554.00    221846.00
  233.37        2969.00           1482       47641.00    208982.20
  233.40        2969.25           1485       45002.00    197337.00
  233.44        2969.50           1489       41264.00    180856.10
  233.47        2969.75           1492       38346.00    168002.00
  233.49        2970.00           1495       36101.00    158119.30
  233.52        2970.25           1499       32190.00    140916.60
  233.55        2970.50           1502       29763.00    130250.40
  233.58        2970.75           1505       27971.00    122379.20
  233.61        2971.00           1509       24198.00    105818.80
  233.64        2971.25           1512       21417.00     93623.09
  233.67        2971.50           1515       18367.00     80257.96
  233.69        2971.75           1519       14345.00     62649.90
  233.72        2972.00           1522       11454.00     50004.78
  233.75        2972.25           1525        8871.00     38714.95
  233.78        2972.50           1529        5499.00     23988.05
  233.81        2972.75           1532        3070.00     13387.68
  233.83        2973.00           1536         904.00      3940.75
  233.86        2973.25           1539         323.00      1407.64
  233.89        2973.50           1542         188.00       819.11
  233.92        2973.75           1546         141.00       614.22
  233.94        2974.00           1549         146.00       636.02
  233.97        2974.25           1552         130.00       566.27
  234.00        2974.50           1556         117.00       509.60
  234.03        2974.75           1559         118.00       513.96
  234.06        2975.00           1562         119.00       518.32
  234.09        2975.25           1566         119.00       518.32
  234.12        2975.50           1569         125.00       544.47
  234.14        2975.75           1572         116.00       505.24
  234.17        2976.00           1576         111.00       483.44
  234.20        2976.25           1579         105.00       457.29
  234.23        2976.50           1582         120.00       522.68
  234.25        2976.75           1586         103.00       448.57
  234.28        2977.00           1589          99.00       431.13
  234.31        2977.25           1592         109.00       474.72
  234.34        2977.50           1596         114.00       496.52
  234.37        2977.75           1599         113.00       492.16
  234.40        2978.00           1602         113.00       492.16
  234.43        2978.25           1606         104.00       452.93
  234.46        2978.50           1609         102.00       444.21
  234.49        2978.75           1612         110.00       479.08
  234.52        2979.00           1616         101.00       439.85
  234.54        2979.25           1619         102.00       444.21
  234.57        2979.50           1623         104.00       452.93
  234.60        2979.75           1626         114.00       496.52
  234.63        2980.00           1629         110.00       479.08
  234.66        2980.25           1633         106.00       461.65
  234.68        2980.50           1636         108.00       470.36
  234.71        2980.75           1639         110.00       479.08
  234.74        2981.00           1643         104.00       452.93
  234.77        2981.25           1646         107.00       466.00
  234.80        2981.50           1649          99.00       431.13
  234.83        2981.75           1653         113.00       492.16
  234.85        2982.00           1656         104.00       452.93
  234.88        2982.25           1659          99.00       431.13
  234.91        2982.50           1663         106.00       461.65
  234.94        2982.75           1666          92.00       400.62
  234.96        2983.00           1669         101.00       439.85
  234.99        2983.25           1673          95.00       413.69
  235.02        2983.50           1676         112.00       487.80
  235.05        2983.75           1679         106.00       461.65
  235.08        2984.00           1683         103.00       448.57
HS scan finished at 03:55:22
end
