************************************************************
  HS Scan of (1) Internal mercury lamp
************************************************************
Integration time is 0.2294 seconds per sample
dh110418Delft 51.9969-4.3863 2.750537pr1000
************************************************************
Dead Time -------------------------  2.7E-08 
Number of Cycles Used -------------  4 
Starting Wavelength (Angstroms) ---  2950 
Final Wavelength (Angstoms) -------  2984 
Wavelength Increment (Angstroms) --  .25 
Filter Wheel #1 Position ---------- (1) Ground quartz diffuser (ND=2.32)
Filter Wheel #2 Position ---------- (1) Neutral Density 0.494



************************************************************
HS scan start time = 03:47:25
Dark Count =  .1 


Time (GMT)  Wavelength (Ang)  Step Number  Raw Counts  Counts/Second

  227.88        2950.00           1229         128.00       557.55
  227.98        2950.25           1232         129.00       561.91
  228.01        2950.50           1236         136.00       592.42
  228.04        2950.75           1239         125.00       544.47
  228.07        2951.00           1242         128.00       557.55
  228.10        2951.25           1246         113.00       492.16
  228.13        2951.50           1249         128.00       557.55
  228.16        2951.75           1252         124.00       540.11
  228.19        2952.00           1256         122.00       531.39
  228.22        2952.25           1259         134.00       583.71
  228.25        2952.50           1262         124.00       540.11
  228.28        2952.75           1266         112.00       487.80
  228.31        2953.00           1269         125.00       544.47
  228.34        2953.25           1272         126.00       548.83
  228.37        2953.50           1276         119.00       518.32
  228.40        2953.75           1279         119.00       518.32
  228.43        2954.00           1282         121.00       527.03
  228.46        2954.25           1286         117.00       509.60
  228.49        2954.50           1289         119.00       518.32
  228.51        2954.75           1292         126.00       548.83
  228.55        2955.00           1296         121.00       527.03
  228.58        2955.25           1299         118.00       513.96
  228.61        2955.50           1302         119.00       518.32
  228.64        2955.75           1306         119.00       518.32
  228.66        2956.00           1309         127.00       553.19
  228.69        2956.25           1312         130.00       566.27
  228.72        2956.50           1316         126.00       548.83
  228.75        2956.75           1319         112.00       487.80
  228.78        2957.00           1322         114.00       496.52
  228.81        2957.25           1326         122.00       531.39
  228.84        2957.50           1329         118.00       513.96
  228.87        2957.75           1332         121.00       527.03
  228.90        2958.00           1336         127.00       553.19
  228.93        2958.25           1339         113.00       492.16
  228.96        2958.50           1342         122.00       531.39
  228.99        2958.75           1345         114.00       496.52
  229.02        2959.00           1349         111.00       483.44
  229.05        2959.25           1352         119.00       518.32
  229.08        2959.50           1355         112.00       487.80
  229.11        2959.75           1359         117.00       509.60
  229.14        2960.00           1362         126.00       548.83
  229.17        2960.25           1365         129.00       561.91
  229.20        2960.50           1369         125.00       544.47
  229.23        2960.75           1372         139.00       605.50
  229.26        2961.00           1375         134.00       583.71
  229.29        2961.25           1379         146.00       636.02
  229.32        2961.50           1382         218.00       949.89
  229.35        2961.75           1385         698.00      3042.53
  229.38        2962.00           1389        2529.00     11027.26
  229.41        2962.25           1392        4654.00     20298.40
  229.44        2962.50           1395        7050.00     30757.44
  229.47        2962.75           1399       10563.00     46103.13
  229.50        2963.00           1402       12950.00     56537.42
  229.53        2963.25           1405       15811.00     69051.46
  229.56        2963.50           1409       19709.00     86114.99
  229.59        2963.75           1412       22613.00     98837.52
  229.62        2964.00           1415       25640.00    112108.20
  229.65        2964.25           1419       29429.00    128733.10
  229.68        2964.50           1422       32035.00    140176.00
  229.71        2964.75           1425       34941.00    152944.60
  229.74        2965.00           1429       38636.00    169192.70
  229.77        2965.25           1432       41392.00    181321.00
  229.80        2965.50           1435       43800.00    191924.40
  229.83        2965.75           1439       46933.00    205729.40
  229.86        2966.00           1442       49189.00    215676.50
  229.89        2966.25           1445       51639.00    226485.00
  229.92        2966.50           1449       55316.00    242718.40
  229.95        2966.75           1452       56654.00    248629.00
  229.99        2967.00           1455       57136.00    250758.70
  230.01        2967.25           1459       57021.00    250250.60
  230.04        2967.50           1462       57158.00    250856.00
  230.08        2967.75           1465       57071.00    250471.50
  230.11        2968.00           1469       56130.00    246314.00
  230.14        2968.25           1472       54622.00    239653.40
  230.16        2968.50           1475       52764.00    231450.20
  230.20        2968.75           1479       49658.00    217745.00
  230.22        2969.00           1482       47247.00    207113.60
  230.26        2969.25           1485       44457.00    194818.50
  230.29        2969.50           1489       40578.00    177738.00
  230.31        2969.75           1492       37449.00    163971.50
  230.34        2970.00           1495       34932.00    152905.00
  230.37        2970.25           1499       31654.00    138502.60
  230.41        2970.50           1502       28847.00    126178.50
  230.43        2970.75           1505       25822.00    112906.40
  230.47        2971.00           1509       22381.00     97820.80
  230.49        2971.25           1512       20270.00     88572.07
  230.52        2971.50           1515       17764.00     77598.78
  230.56        2971.75           1519       14275.00     62331.94
  230.59        2972.00           1522       11310.00     49367.86
  230.61        2972.25           1525        8426.00     36766.65
  230.64        2972.50           1529        4987.00     21751.66
  230.68        2972.75           1532        2901.00     12649.92
  230.70        2973.00           1535        1423.00      6203.74
  230.74        2973.25           1539         417.00      1817.44
  230.77        2973.50           1542         201.00       875.78
  230.80        2973.75           1546         162.00       705.77
  230.83        2974.00           1549         155.00       675.25
  230.86        2974.25           1552         143.00       622.94
  230.89        2974.50           1556         131.00       570.63
  230.92        2974.75           1559         123.00       535.75
  230.95        2975.00           1562         121.00       527.03
  230.98        2975.25           1566         105.00       457.29
  231.01        2975.50           1569         113.00       492.16
  231.04        2975.75           1572         113.00       492.16
  231.07        2976.00           1576         114.00       496.52
  231.10        2976.25           1579         108.00       470.36
  231.13        2976.50           1582         111.00       483.44
  231.16        2976.75           1586         105.00       457.29
  231.19        2977.00           1589         109.00       474.72
  231.22        2977.25           1592         109.00       474.72
  231.25        2977.50           1596         107.00       466.00
  231.28        2977.75           1599         113.00       492.16
  231.31        2978.00           1602         111.00       483.44
  231.34        2978.25           1606         116.00       505.24
  231.37        2978.50           1609         109.00       474.72
  231.40        2978.75           1612         107.00       466.00
  231.43        2979.00           1616         109.00       474.72
  231.46        2979.25           1619         114.00       496.52
  231.49        2979.50           1622         108.00       470.36
  231.52        2979.75           1626         105.00       457.29
  231.55        2980.00           1629         113.00       492.16
  231.58        2980.25           1632         108.00       470.36
  231.61        2980.50           1636          96.00       418.05
  231.64        2980.75           1639         109.00       474.72
  231.67        2981.00           1642         102.00       444.21
  231.70        2981.25           1646         119.00       518.32
  231.73        2981.50           1649          95.00       413.69
  231.76        2981.75           1653         100.00       435.49
  231.79        2982.00           1656         107.00       466.00
  231.82        2982.25           1659         107.00       466.00
  231.85        2982.50           1663         100.00       435.49
  231.88        2982.75           1666         107.00       466.00
  231.91        2983.00           1669         108.00       470.36
  231.94        2983.25           1673         103.00       448.57
  231.97        2983.50           1676         108.00       470.36
  232.00        2983.75           1679          92.00       400.61
  232.03        2984.00           1683         103.00       448.57
HS scan finished at 03:52:20
end
************************************************************
  HS Scan of (1) Internal mercury lamp
************************************************************
Integration time is 0.2294 seconds per sample
dh110418Delft 51.9969-4.3863 2.857833pr1000
************************************************************
Dead Time -------------------------  2.7E-08 
Number of Cycles Used -------------  4 
Starting Wavelength (Angstroms) ---  2950 
Final Wavelength (Angstoms) -------  2984 
Wavelength Increment (Angstroms) --  .25 
Filter Wheel #1 Position ---------- (1) Ground quartz diffuser (ND=2.32)
Filter Wheel #2 Position ---------- (1) Neutral Density 0.494



************************************************************
HS scan start time = 19:32:57
Dark Count =  .2 


Time (GMT)  Wavelength (Ang)  Step Number  Raw Counts  Counts/Second

 1173.40        2950.00           1229         124.00       539.68
 1173.50        2950.25           1232         119.00       517.88
 1173.53        2950.50           1236         114.00       496.08
 1173.56        2950.75           1239         113.00       491.72
 1173.59        2951.00           1242         132.00       574.55
 1173.62        2951.25           1246         119.00       517.88
 1173.65        2951.50           1249         114.00       496.08
 1173.68        2951.75           1252         117.00       509.16
 1173.71        2952.00           1256         125.00       544.04
 1173.74        2952.25           1259         122.00       530.96
 1173.77        2952.50           1262         122.00       530.96
 1173.80        2952.75           1266         120.00       522.24
 1173.83        2953.00           1269         104.00       452.49
 1173.86        2953.25           1272         117.00       509.16
 1173.89        2953.50           1276         119.00       517.88
 1173.92        2953.75           1279         121.00       526.60
 1173.95        2954.00           1282         116.00       504.80
 1173.98        2954.25           1286         117.00       509.16
 1174.01        2954.50           1289         120.00       522.24
 1174.04        2954.75           1292         128.00       557.11
 1174.07        2955.00           1296         123.00       535.32
 1174.10        2955.25           1299         116.00       504.80
 1174.13        2955.50           1302         115.00       500.44
 1174.16        2955.75           1306         121.00       526.60
 1174.19        2956.00           1309         115.00       500.44
 1174.22        2956.25           1312         115.00       500.44
 1174.25        2956.50           1316         117.00       509.16
 1174.28        2956.75           1319         112.00       487.36
 1174.31        2957.00           1322         114.00       496.08
 1174.34        2957.25           1326         123.00       535.32
 1174.37        2957.50           1329         122.00       530.96
 1174.40        2957.75           1332         118.00       513.52
 1174.43        2958.00           1336         123.00       535.32
 1174.46        2958.25           1339         109.00       474.29
 1174.49        2958.50           1342         112.00       487.36
 1174.52        2958.75           1345         122.00       530.96
 1174.55        2959.00           1349         116.00       504.80
 1174.58        2959.25           1352         119.00       517.88
 1174.61        2959.50           1355         110.00       478.65
 1174.64        2959.75           1359         113.00       491.72
 1174.67        2960.00           1362         110.00       478.65
 1174.70        2960.25           1365         113.00       491.72
 1174.73        2960.50           1369         124.00       539.68
 1174.76        2960.75           1372         125.00       544.04
 1174.79        2961.00           1375         127.00       552.75
 1174.82        2961.25           1379         144.00       626.86
 1174.85        2961.50           1382         225.00       979.97
 1174.88        2961.75           1385         672.00      2928.74
 1174.91        2962.00           1389        2468.00     10760.76
 1174.94        2962.25           1392        4655.00     20302.32
 1174.97        2962.50           1395        7072.00     30853.07
 1175.00        2962.75           1399       10678.00     46605.25
 1175.03        2963.00           1402       13280.00     57979.97
 1175.06        2963.25           1405       15692.00     68530.35
 1175.09        2963.50           1409       20129.00     87954.06
 1175.12        2963.75           1412       22994.00    100506.90
 1175.15        2964.00           1415       25503.00    111507.00
 1175.18        2964.25           1419       29750.00    130141.80
 1175.21        2964.50           1422       32672.00    142973.70
 1175.24        2964.75           1425       35612.00    155893.70
 1175.27        2965.00           1429       39097.00    171220.40
 1175.30        2965.25           1432       42110.00    184481.60
 1175.33        2965.50           1435       44449.00    194782.80
 1175.36        2965.75           1439       47549.00    208444.50
 1175.39        2966.00           1442       49823.00    218472.40
 1175.42        2966.25           1445       52681.00    231083.40
 1175.45        2966.50           1449       55891.00    245257.80
 1175.48        2966.75           1452       57505.00    252388.90
 1175.51        2967.00           1455       57771.00    253564.40
 1175.54        2967.25           1459       58397.00    256331.10
 1175.57        2967.50           1462       58052.00    254806.30
 1175.60        2967.75           1465       58066.00    254868.20
 1175.63        2968.00           1469       57305.00    251505.10
 1175.66        2968.25           1472       55439.00    243261.20
 1175.69        2968.50           1475       53287.00    233758.50
 1175.72        2968.75           1479       50606.00    221926.50
 1175.75        2969.00           1482       48004.00    210450.50
 1175.78        2969.25           1485       45227.00    198210.50
 1175.81        2969.50           1489       41709.00    182716.10
 1175.84        2969.75           1492       38644.00    169227.40
 1175.87        2970.00           1495       35741.00    156460.80
 1175.90        2970.25           1499       31835.00    139297.10
 1175.93        2970.50           1502       29423.00    128706.30
 1175.96        2970.75           1505       26549.00    116094.80
 1175.99        2971.00           1509       22512.00     98394.44
 1176.02        2971.25           1512       20035.00     87542.34
 1176.05        2971.50           1515       18130.00     79200.58
 1176.08        2971.75           1519       14609.00     63792.44
 1176.11        2972.00           1522       11777.00     51408.71
 1176.14        2972.25           1525        9035.00     39426.43
 1176.17        2972.50           1529        5307.00     23147.85
 1176.20        2972.75           1532        2888.00     12592.77
 1176.23        2973.00           1535        1446.00      6303.60
 1176.26        2973.25           1539         400.00      1742.89
 1176.29        2973.50           1542         192.00       836.11
 1176.32        2973.75           1546         160.00       696.61
 1176.35        2974.00           1549         159.00       692.25
 1176.38        2974.25           1552         138.00       600.71
 1176.41        2974.50           1556         131.00       570.19
 1176.44        2974.75           1559         129.00       561.47
 1176.47        2975.00           1562         120.00       522.24
 1176.50        2975.25           1566         118.00       513.52
 1176.53        2975.50           1569         103.00       448.13
 1176.56        2975.75           1572         112.00       487.36
 1176.59        2976.00           1576         111.00       483.01
 1176.62        2976.25           1579         110.00       478.65
 1176.65        2976.50           1582         113.00       491.72
 1176.68        2976.75           1586         116.00       504.80
 1176.71        2977.00           1589         120.00       522.24
 1176.74        2977.25           1592         101.00       439.41
 1176.77        2977.50           1596         105.00       456.85
 1176.80        2977.75           1599         111.00       483.01
 1176.83        2978.00           1602         108.00       469.93
 1176.86        2978.25           1606          99.00       430.69
 1176.89        2978.50           1609         100.00       435.05
 1176.92        2978.75           1612         100.00       435.05
 1176.95        2979.00           1616         108.00       469.93
 1176.98        2979.25           1619         105.00       456.85
 1177.01        2979.50           1622         114.00       496.08
 1177.03        2979.75           1626         101.00       439.41
 1177.06        2980.00           1629          98.00       426.33
 1177.10        2980.25           1632          98.00       426.33
 1177.12        2980.50           1636         102.00       443.77
 1177.15        2980.75           1639          96.00       417.62
 1177.18        2981.00           1642         100.00       435.05
 1177.21        2981.25           1646         103.00       448.13
 1177.24        2981.50           1649         103.00       448.13
 1177.27        2981.75           1653         100.00       435.05
 1177.30        2982.00           1656          98.00       426.33
 1177.33        2982.25           1659         104.00       452.49
 1177.36        2982.50           1663          98.00       426.33
 1177.39        2982.75           1666          98.00       426.33
 1177.42        2983.00           1669         110.00       478.65
 1177.45        2983.25           1673          95.00       413.26
 1177.48        2983.50           1676          95.00       413.26
 1177.51        2983.75           1679          97.00       421.98
 1177.54        2984.00           1683         109.00       474.29
HS scan finished at 19:37:51
end
