************************************************************
  HS Scan of (1) Internal mercury lamp
************************************************************
Integration time is 0.2294 seconds per sample
dh120417DelftKZ 51.997-4.386 2.482296pr1000
************************************************************
Dead Time -------------------------  3E-08 
Number of Cycles Used -------------  4 
Starting Wavelength (Angstroms) ---  2950 
Final Wavelength (Angstoms) -------  2984 
Wavelength Increment (Angstroms) --  .25 
Filter Wheel #1 Position ---------- (1) Ground quartz diffuser (ND=2.32)
Filter Wheel #2 Position ---------- (1) Neutral Density 0.494



************************************************************
HS scan start time = 03:12:36
Dark Count =  .1 


Time (GMT)  Wavelength (Ang)  Step Number  Raw Counts  Counts/Second

  193.06        2950.00           1229         138.00       601.14
  193.15        2950.25           1232         118.00       513.96
  193.18        2950.50           1236         121.00       527.04
  193.21        2950.75           1239         126.00       548.83
  193.24        2951.00           1242         129.00       561.91
  193.26        2951.25           1246         129.00       561.91
  193.29        2951.50           1249         133.00       579.35
  193.32        2951.75           1252         136.00       592.43
  193.35        2952.00           1255         125.00       544.47
  193.38        2952.25           1259         140.00       609.86
  193.40        2952.50           1262         123.00       535.75
  193.43        2952.75           1265         114.00       496.52
  193.46        2953.00           1269         126.00       548.83
  193.49        2953.25           1272         125.00       544.47
  193.51        2953.50           1275         137.00       596.78
  193.54        2953.75           1279         133.00       579.35
  193.57        2954.00           1282         126.00       548.83
  193.60        2954.25           1285         118.00       513.96
  193.62        2954.50           1289         122.00       531.39
  193.65        2954.75           1292         129.00       561.91
  193.68        2955.00           1295         135.00       588.07
  193.71        2955.25           1299         124.00       540.11
  193.74        2955.50           1302         135.00       588.07
  193.76        2955.75           1305         135.00       588.07
  193.79        2956.00           1309         122.00       531.39
  193.82        2956.25           1312         123.00       535.75
  193.85        2956.50           1315         121.00       527.04
  193.87        2956.75           1319         129.00       561.91
  193.90        2957.00           1322         119.00       518.32
  193.93        2957.25           1325         133.00       579.35
  193.96        2957.50           1329         120.00       522.68
  193.98        2957.75           1332         122.00       531.39
  194.01        2958.00           1335         115.00       500.88
  194.04        2958.25           1339         122.00       531.39
  194.07        2958.50           1342         115.00       500.88
  194.10        2958.75           1345         124.00       540.11
  194.12        2959.00           1349         119.00       518.32
  194.15        2959.25           1352         128.00       557.55
  194.18        2959.50           1355         133.00       579.35
  194.21        2959.75           1359         122.00       531.39
  194.23        2960.00           1362         120.00       522.68
  194.26        2960.25           1365         134.00       583.71
  194.29        2960.50           1369         125.00       544.47
  194.32        2960.75           1372         134.00       583.71
  194.35        2961.00           1375         140.00       609.86
  194.37        2961.25           1379         162.00       705.77
  194.40        2961.50           1382         274.00      1194.03
  194.43        2961.75           1385         854.00      3722.74
  194.46        2962.00           1389        2686.00     11712.48
  194.48        2962.25           1392        4778.00     20840.84
  194.51        2962.50           1395        7195.00     31393.55
  194.54        2962.75           1399        9717.00     42411.82
  194.57        2963.00           1402       11685.00     51014.81
  194.60        2963.25           1405       14236.00     62172.97
  194.62        2963.50           1409       17665.00     77183.31
  194.65        2963.75           1412       19975.00     87302.90
  194.68        2964.00           1415       22892.00    100090.40
  194.71        2964.25           1419       26293.00    115012.10
  194.73        2964.50           1422       28701.00    125585.20
  194.76        2964.75           1425       31338.00    137171.40
  194.79        2965.00           1429       34856.00    152641.10
  194.82        2965.25           1432       36913.00    161693.10
  194.85        2965.50           1435       39331.00    172339.90
  194.87        2965.75           1439       41753.00    183011.20
  194.90        2966.00           1442       44194.00    193773.10
  194.93        2966.25           1445       46346.00    203266.70
  194.96        2966.50           1449       49064.00    215264.90
  194.99        2966.75           1452       50218.00    220361.80
  195.01        2967.00           1455       50483.00    221532.40
  195.04        2967.25           1459       50530.00    221740.00
  195.07        2967.50           1462       50510.00    221651.70
  195.10        2967.75           1465       50424.00    221271.70
  195.12        2968.00           1469       49282.00    216227.60
  195.15        2968.25           1472       47941.00    210306.60
  195.18        2968.50           1475       46267.00    202918.10
  195.21        2968.75           1479       43419.00    190355.60
  195.23        2969.00           1482       41015.00    179758.90
  195.26        2969.25           1485       38628.00    169243.80
  195.29        2969.50           1489       35035.00    153428.70
  195.32        2969.75           1492       32345.00    141598.10
  195.35        2970.00           1495       30393.00    133018.40
  195.39        2970.25           1499       27664.00    121031.10
  195.41        2970.50           1502       25253.00    110447.70
  195.44        2970.75           1505       22821.00     99779.05
  195.47        2971.00           1509       19966.00     87263.46
  195.50        2971.25           1512       17764.00     77616.88
  195.53        2971.50           1515       15327.00     66947.31
  195.55        2971.75           1519       12284.00     53634.18
  195.58        2972.00           1522        9678.00     42241.38
  195.61        2972.25           1525        7032.00     30681.67
  195.64        2972.50           1529        4088.00     17829.50
  195.67        2972.75           1532        2255.00      9832.46
  195.69        2973.00           1536         717.00      3125.40
  195.72        2973.25           1539         277.00      1207.11
  195.75        2973.50           1542         168.00       731.93
  195.78        2973.75           1546         148.00       644.74
  195.80        2974.00           1549         139.00       605.50
  195.83        2974.25           1552         136.00       592.43
  195.86        2974.50           1556         123.00       535.75
  195.89        2974.75           1559         124.00       540.11
  195.91        2975.00           1562         113.00       492.16
  195.94        2975.25           1566         116.00       505.24
  195.97        2975.50           1569         112.00       487.80
  196.00        2975.75           1572         110.00       479.08
  196.02        2976.00           1576         109.00       474.72
  196.05        2976.25           1579         114.00       496.52
  196.08        2976.50           1582         102.00       444.21
  196.11        2976.75           1586         107.00       466.00
  196.14        2977.00           1589         102.00       444.21
  196.16        2977.25           1592         110.00       479.08
  196.19        2977.50           1596         105.00       457.29
  196.22        2977.75           1599         102.00       444.21
  196.25        2978.00           1602         105.00       457.29
  196.27        2978.25           1606         107.00       466.00
  196.30        2978.50           1609         100.00       435.49
  196.33        2978.75           1612         104.00       452.93
  196.36        2979.00           1616          96.00       418.05
  196.39        2979.25           1619         117.00       509.60
  196.42        2979.50           1623         104.00       452.93
  196.45        2979.75           1626         109.00       474.72
  196.48        2980.00           1629         100.00       435.49
  196.51        2980.25           1633         107.00       466.00
  196.54        2980.50           1636         111.00       483.44
  196.57        2980.75           1639         102.00       444.21
  196.60        2981.00           1643         106.00       461.65
  196.62        2981.25           1646         105.00       457.29
  196.65        2981.50           1649         115.00       500.88
  196.68        2981.75           1653         103.00       448.57
  196.71        2982.00           1656         104.00       452.93
  196.73        2982.25           1659         114.00       496.52
  196.76        2982.50           1663          97.00       422.41
  196.80        2982.75           1666         112.00       487.80
  196.83        2983.00           1669          94.00       409.33
  196.86        2983.25           1673         104.00       452.93
  196.89        2983.50           1676         110.00       479.08
  196.91        2983.75           1679         112.00       487.80
  196.94        2984.00           1683         112.00       487.80
HS scan finished at 03:17:14
end
