************************************************************
  HS Scan of (1) Internal mercury lamp
************************************************************
Integration time is 0.2294 seconds per sample
dh190418Delft 51.9969-4.3863 2.857833pr1000
************************************************************
Dead Time -------------------------  2.7E-08 
Number of Cycles Used -------------  4 
Starting Wavelength (Angstroms) ---  2950 
Final Wavelength (Angstoms) -------  2984 
Wavelength Increment (Angstroms) --  .25 
Filter Wheel #1 Position ---------- (1) Ground quartz diffuser (ND=2.32)
Filter Wheel #2 Position ---------- (1) Neutral Density 0.494



************************************************************
HS scan start time = 03:04:22
Dark Count =  .1 


Time (GMT)  Wavelength (Ang)  Step Number  Raw Counts  Counts/Second

  184.82        2950.00           1229         127.00       553.19
  184.92        2950.25           1232         119.00       518.32
  184.95        2950.50           1236         109.00       474.72
  184.98        2950.75           1239         114.00       496.52
  185.01        2951.00           1242         126.00       548.83
  185.04        2951.25           1246         122.00       531.39
  185.07        2951.50           1249         106.00       461.64
  185.10        2951.75           1252         118.00       513.96
  185.13        2952.00           1256         117.00       509.60
  185.16        2952.25           1259         119.00       518.32
  185.19        2952.50           1262         116.00       505.24
  185.22        2952.75           1266         122.00       531.39
  185.25        2953.00           1269         125.00       544.47
  185.28        2953.25           1272         119.00       518.32
  185.31        2953.50           1276         114.00       496.52
  185.34        2953.75           1279         107.00       466.00
  185.37        2954.00           1282         113.00       492.16
  185.40        2954.25           1286         106.00       461.64
  185.43        2954.50           1289         106.00       461.64
  185.46        2954.75           1292         126.00       548.83
  185.49        2955.00           1296         125.00       544.47
  185.51        2955.25           1299         125.00       544.47
  185.54        2955.50           1302         120.00       522.68
  185.57        2955.75           1306         105.00       457.29
  185.60        2956.00           1309         116.00       505.24
  185.63        2956.25           1312         104.00       452.93
  185.66        2956.50           1316         119.00       518.32
  185.69        2956.75           1319         111.00       483.44
  185.72        2957.00           1322         117.00       509.60
  185.75        2957.25           1326         115.00       500.88
  185.78        2957.50           1329         113.00       492.16
  185.81        2957.75           1332         114.00       496.52
  185.84        2958.00           1336         113.00       492.16
  185.87        2958.25           1339         114.00       496.52
  185.90        2958.50           1342         116.00       505.24
  185.93        2958.75           1345         117.00       509.60
  185.96        2959.00           1349         111.00       483.44
  185.99        2959.25           1352         107.00       466.00
  186.02        2959.50           1355         104.00       452.93
  186.05        2959.75           1359         110.00       479.08
  186.08        2960.00           1362         106.00       461.64
  186.11        2960.25           1365         116.00       505.24
  186.14        2960.50           1369         121.00       527.03
  186.17        2960.75           1372         126.00       548.83
  186.20        2961.00           1375         128.00       557.55
  186.23        2961.25           1379         141.00       614.22
  186.26        2961.50           1382         175.00       762.44
  186.29        2961.75           1385         621.00      2706.82
  186.32        2962.00           1389        2118.00      9234.65
  186.35        2962.25           1392        4020.00     17531.84
  186.38        2962.50           1395        6729.00     29355.87
  186.41        2962.75           1399       10212.00     44569.30
  186.44        2963.00           1402       13245.00     57827.37
  186.47        2963.25           1405       16200.00     70753.60
  186.50        2963.50           1409       20230.00     88396.87
  186.53        2963.75           1412       23070.00    100840.50
  186.56        2964.00           1415       26044.00    113880.10
  186.59        2964.25           1419       29686.00    129861.20
  186.62        2964.50           1422       32411.00    141827.60
  186.65        2964.75           1425       34783.00    152250.10
  186.68        2965.00           1429       38091.00    166795.20
  186.71        2965.25           1432       40972.00    179472.20
  186.74        2965.50           1435       43380.00    190074.50
  186.77        2965.75           1439       47335.00    207501.50
  186.80        2966.00           1442       49664.00    217771.50
  186.83        2966.25           1445       52516.00    230355.50
  186.86        2966.50           1449       55440.00    243266.10
  186.89        2966.75           1452       57184.00    250970.80
  186.92        2967.00           1455       57878.00    254037.70
  186.95        2967.25           1459       58208.00    255496.20
  186.98        2967.50           1462       58477.00    256685.20
  187.01        2967.75           1465       58295.00    255880.70
  187.04        2968.00           1469       57449.00    252141.80
  187.07        2968.25           1472       56235.00    246777.90
  187.10        2968.50           1475       53972.00    236783.20
  187.13        2968.75           1479       50319.00    220660.80
  187.16        2969.00           1482       47564.00    208511.00
  187.19        2969.25           1485       45084.00    197580.90
  187.22        2969.50           1489       41644.00    182430.40
  187.25        2969.75           1492       38918.00    170433.30
  187.28        2970.00           1495       36023.00    157701.00
  187.31        2970.25           1499       32854.00    143773.70
  187.34        2970.50           1502       30317.00    132631.50
  187.37        2970.75           1505       27677.00    121044.00
  187.40        2971.00           1509       23867.00    104334.00
  187.43        2971.25           1512       20763.00     90731.59
  187.46        2971.50           1515       17952.00     78421.77
  187.49        2971.75           1519       14455.00     63119.25
  187.52        2972.00           1522       11888.00     51894.37
  187.55        2972.25           1525        9259.00     40405.44
  187.58        2972.50           1529        5939.00     25906.96
  187.60        2972.75           1532        3290.00     14346.88
  187.63        2973.00           1535        1499.00      6535.16
  187.66        2973.25           1539         458.00      1996.18
  187.70        2973.50           1542         221.00       962.97
  187.72        2973.75           1546         165.00       718.85
  187.75        2974.00           1549         154.00       670.89
  187.78        2974.25           1552         133.00       579.35
  187.81        2974.50           1556         122.00       531.39
  187.84        2974.75           1559         122.00       531.39
  187.87        2975.00           1562         118.00       513.96
  187.90        2975.25           1566         109.00       474.72
  187.93        2975.50           1569         104.00       452.93
  187.96        2975.75           1572         104.00       452.93
  187.99        2976.00           1576         104.00       452.93
  188.02        2976.25           1579         109.00       474.72
  188.05        2976.50           1582         107.00       466.00
  188.08        2976.75           1586         110.00       479.08
  188.11        2977.00           1589         109.00       474.72
  188.14        2977.25           1592          98.00       426.77
  188.17        2977.50           1596         102.00       444.21
  188.20        2977.75           1599         108.00       470.36
  188.23        2978.00           1602         108.00       470.36
  188.26        2978.25           1606          99.00       431.13
  188.29        2978.50           1609          98.00       426.77
  188.32        2978.75           1612          99.00       431.13
  188.35        2979.00           1616         102.00       444.21
  188.38        2979.25           1619         108.00       470.36
  188.41        2979.50           1622         104.00       452.93
  188.44        2979.75           1626         106.00       461.64
  188.47        2980.00           1629          94.00       409.33
  188.50        2980.25           1632         109.00       474.72
  188.53        2980.50           1636          98.00       426.77
  188.56        2980.75           1639         101.00       439.85
  188.59        2981.00           1642          91.00       396.26
  188.62        2981.25           1646         105.00       457.29
  188.65        2981.50           1649         102.00       444.21
  188.68        2981.75           1653         101.00       439.85
  188.71        2982.00           1656         100.00       435.49
  188.74        2982.25           1659         102.00       444.21
  188.77        2982.50           1663          93.00       404.97
  188.80        2982.75           1666         102.00       444.21
  188.83        2983.00           1669         107.00       466.00
  188.86        2983.25           1673         104.00       452.93
  188.89        2983.50           1676          95.00       413.69
  188.92        2983.75           1679         101.00       439.85
  188.95        2984.00           1683          99.00       431.13
HS scan finished at 03:09:15
end
************************************************************
  HS Scan of (1) Internal mercury lamp
************************************************************
Integration time is 0.2294 seconds per sample
dh190418Delft 51.9969-4.3863 3.287017pr1000
************************************************************
Dead Time -------------------------  2.7E-08 
Number of Cycles Used -------------  4 
Starting Wavelength (Angstroms) ---  2950 
Final Wavelength (Angstoms) -------  2984 
Wavelength Increment (Angstroms) --  .25 
Filter Wheel #1 Position ---------- (1) Ground quartz diffuser (ND=2.32)
Filter Wheel #2 Position ---------- (1) Neutral Density 0.494



************************************************************
HS scan start time = 19:41:01
Dark Count =  .2 


Time (GMT)  Wavelength (Ang)  Step Number  Raw Counts  Counts/Second

 1181.47        2950.00           1229         100.00       435.05
 1181.57        2950.25           1232         102.00       443.77
 1181.60        2950.50           1236          99.00       430.69
 1181.63        2950.75           1239         110.00       478.65
 1181.66        2951.00           1242         108.00       469.93
 1181.69        2951.25           1246          95.00       413.26
 1181.72        2951.50           1249         103.00       448.13
 1181.75        2951.75           1252         101.00       439.41
 1181.78        2952.00           1256         100.00       435.05
 1181.81        2952.25           1259         109.00       474.29
 1181.84        2952.50           1262          95.00       413.26
 1181.87        2952.75           1266          97.00       421.98
 1181.90        2953.00           1269         105.00       456.85
 1181.93        2953.25           1272         102.00       443.77
 1181.96        2953.50           1276         103.00       448.13
 1181.98        2953.75           1279          94.00       408.90
 1182.01        2954.00           1282         101.00       439.41
 1182.04        2954.25           1286          95.00       413.26
 1182.07        2954.50           1289         103.00       448.13
 1182.10        2954.75           1292          97.00       421.98
 1182.13        2955.00           1296          96.00       417.62
 1182.16        2955.25           1299         100.00       435.05
 1182.19        2955.50           1302         107.00       465.57
 1182.22        2955.75           1306         101.00       439.41
 1182.25        2956.00           1309         106.00       461.21
 1182.28        2956.25           1312          96.00       417.62
 1182.31        2956.50           1316         105.00       456.85
 1182.34        2956.75           1319          90.00       391.46
 1182.37        2957.00           1322         107.00       465.57
 1182.40        2957.25           1326         104.00       452.49
 1182.43        2957.50           1329          94.00       408.90
 1182.46        2957.75           1332         108.00       469.93
 1182.49        2958.00           1336          97.00       421.98
 1182.52        2958.25           1339          99.00       430.69
 1182.55        2958.50           1342          99.00       430.69
 1182.58        2958.75           1345          89.00       387.10
 1182.61        2959.00           1349          91.00       395.82
 1182.64        2959.25           1352          91.00       395.82
 1182.67        2959.50           1355         107.00       465.57
 1182.70        2959.75           1359         101.00       439.41
 1182.73        2960.00           1362          97.00       421.98
 1182.76        2960.25           1365         104.00       452.49
 1182.79        2960.50           1369         107.00       465.57
 1182.82        2960.75           1372         115.00       500.44
 1182.84        2961.00           1375         117.00       509.16
 1182.87        2961.25           1379         128.00       557.11
 1182.90        2961.50           1382         165.00       718.41
 1182.93        2961.75           1385         618.00      2693.31
 1182.96        2962.00           1389        2339.00     10198.10
 1182.99        2962.25           1392        4147.00     18085.55
 1183.02        2962.50           1395        6772.00     29543.18
 1183.05        2962.75           1399       10796.00     47120.94
 1183.08        2963.00           1402       13619.00     59462.44
 1183.11        2963.25           1405       17021.00     74346.13
 1183.14        2963.50           1409       21389.00     93473.62
 1183.17        2963.75           1412       24428.00    106793.10
 1183.20        2964.00           1415       27679.00    121052.40
 1183.23        2964.25           1419       31774.00    139029.20
 1183.26        2964.50           1422       34591.00    151405.80
 1183.29        2964.75           1425       37399.00    163751.20
 1183.32        2965.00           1429       40951.00    179379.40
 1183.35        2965.25           1432       43636.00    191201.60
 1183.38        2965.50           1435       46289.00    202890.40
 1183.41        2965.75           1439       50297.00    220563.30
 1183.44        2966.00           1442       53388.00    234204.30
 1183.47        2966.25           1445       55578.00    243875.20
 1183.50        2966.50           1449       59529.00    261335.40
 1183.53        2966.75           1452       61225.00    268835.40
 1183.56        2967.00           1455       62520.00    274564.10
 1183.59        2967.25           1459       62519.00    274559.70
 1183.62        2967.50           1462       62541.00    274657.00
 1183.65        2967.75           1465       62475.00    274365.00
 1183.68        2968.00           1469       61955.00    272064.50
 1183.71        2968.25           1472       60442.00    265372.40
 1183.74        2968.50           1475       58273.00    255783.10
 1183.77        2968.75           1479       54422.00    238769.80
 1183.80        2969.00           1482       51304.00    225006.20
 1183.83        2969.25           1485       48598.00    213069.70
 1183.86        2969.50           1489       44946.00    196972.40
 1183.89        2969.75           1492       41870.00    183424.90
 1183.92        2970.00           1495       38862.00    170186.50
 1183.95        2970.25           1499       35003.00    153216.70
 1183.98        2970.50           1502       32860.00    143799.60
 1184.01        2970.75           1505       30102.00    131687.10
 1184.04        2971.00           1509       26014.00    113748.10
 1184.07        2971.25           1512       23079.00    100879.50
 1184.10        2971.50           1515       19425.00     84870.82
 1184.13        2971.75           1519       15460.00     67515.30
 1184.16        2972.00           1522       12849.00     56095.36
 1184.19        2972.25           1525       10158.00     44332.90
 1184.22        2972.50           1529        6580.00     28704.89
 1184.25        2972.75           1532        3721.00     16226.81
 1184.28        2973.00           1535        1451.00      6325.41
 1184.31        2973.25           1539         408.00      1777.77
 1184.34        2973.50           1542         223.00       971.25
 1184.37        2973.75           1546         153.00       666.10
 1184.40        2974.00           1549         140.00       609.43
 1184.43        2974.25           1552         132.00       574.55
 1184.46        2974.50           1556         115.00       500.44
 1184.48        2974.75           1559         111.00       483.01
 1184.51        2975.00           1562         105.00       456.85
 1184.54        2975.25           1566         104.00       452.49
 1184.57        2975.50           1569          93.00       404.54
 1184.60        2975.75           1572          85.00       369.66
 1184.63        2976.00           1576          92.00       400.18
 1184.66        2976.25           1579          89.00       387.10
 1184.69        2976.50           1582          91.00       395.82
 1184.72        2976.75           1586          94.00       408.90
 1184.75        2977.00           1589          90.00       391.46
 1184.78        2977.25           1592          84.00       365.30
 1184.81        2977.50           1596          80.00       347.87
 1184.84        2977.75           1599          84.00       365.30
 1184.87        2978.00           1602          84.00       365.30
 1184.90        2978.25           1606          96.00       417.62
 1184.93        2978.50           1609          86.00       374.02
 1184.96        2978.75           1612          92.00       400.18
 1184.99        2979.00           1616          96.00       417.62
 1185.02        2979.25           1619          96.00       417.62
 1185.05        2979.50           1622          91.00       395.82
 1185.08        2979.75           1626          90.00       391.46
 1185.11        2980.00           1629          87.00       378.38
 1185.14        2980.25           1632          86.00       374.02
 1185.17        2980.50           1636          85.00       369.66
 1185.20        2980.75           1639          93.00       404.54
 1185.23        2981.00           1642          96.00       417.62
 1185.26        2981.25           1646          88.00       382.74
 1185.29        2981.50           1649          97.00       421.98
 1185.32        2981.75           1653          88.00       382.74
 1185.35        2982.00           1656          81.00       352.23
 1185.38        2982.25           1659          89.00       387.10
 1185.41        2982.50           1663          91.00       395.82
 1185.43        2982.75           1666          86.00       374.02
 1185.47        2983.00           1669          86.00       374.02
 1185.49        2983.25           1673          89.00       387.10
 1185.52        2983.50           1676          94.00       408.90
 1185.55        2983.75           1679          85.00       369.66
 1185.58        2984.00           1683          90.00       391.46
HS scan finished at 19:45:54
end
