************************************************************
  HS Scan of (1) Internal mercury lamp
************************************************************
Integration time is 0.2294 seconds per sample
dh160418Delft 51.9969-4.3863 2.643241pr1000
************************************************************
Dead Time -------------------------  2.7E-08 
Number of Cycles Used -------------  4 
Starting Wavelength (Angstroms) ---  2950 
Final Wavelength (Angstoms) -------  2984 
Wavelength Increment (Angstroms) --  .25 
Filter Wheel #1 Position ---------- (1) Ground quartz diffuser (ND=2.32)
Filter Wheel #2 Position ---------- (1) Neutral Density 0.494



************************************************************
HS scan start time = 19:35:30
Dark Count =  .2 


Time (GMT)  Wavelength (Ang)  Step Number  Raw Counts  Counts/Second

 1175.95        2950.00           1229         126.00       548.40
 1176.06        2950.25           1232         132.00       574.55
 1176.09        2950.50           1236         127.00       552.75
 1176.11        2950.75           1239         127.00       552.75
 1176.14        2951.00           1242         133.00       578.91
 1176.17        2951.25           1246         129.00       561.47
 1176.20        2951.50           1249         125.00       544.04
 1176.23        2951.75           1252         129.00       561.47
 1176.26        2952.00           1256         126.00       548.40
 1176.29        2952.25           1259         122.00       530.96
 1176.32        2952.50           1262         130.00       565.83
 1176.35        2952.75           1266         121.00       526.60
 1176.38        2953.00           1269         124.00       539.68
 1176.41        2953.25           1272         122.00       530.96
 1176.44        2953.50           1276         128.00       557.11
 1176.47        2953.75           1279         130.00       565.83
 1176.50        2954.00           1282         112.00       487.36
 1176.53        2954.25           1286         116.00       504.80
 1176.56        2954.50           1289         124.00       539.68
 1176.59        2954.75           1292         120.00       522.24
 1176.62        2955.00           1296         119.00       517.88
 1176.65        2955.25           1299         125.00       544.04
 1176.68        2955.50           1302         133.00       578.91
 1176.71        2955.75           1306         118.00       513.52
 1176.74        2956.00           1309         115.00       500.44
 1176.77        2956.25           1312         120.00       522.24
 1176.79        2956.50           1316         125.00       544.04
 1176.82        2956.75           1319         129.00       561.47
 1176.85        2957.00           1322         126.00       548.40
 1176.88        2957.25           1326         129.00       561.47
 1176.91        2957.50           1329         126.00       548.40
 1176.94        2957.75           1332         119.00       517.88
 1176.97        2958.00           1336         119.00       517.88
 1177.00        2958.25           1339         130.00       565.83
 1177.03        2958.50           1342         114.00       496.08
 1177.06        2958.75           1345         122.00       530.96
 1177.09        2959.00           1349         128.00       557.11
 1177.12        2959.25           1352         125.00       544.04
 1177.15        2959.50           1355         114.00       496.08
 1177.18        2959.75           1359         114.00       496.08
 1177.21        2960.00           1362         116.00       504.80
 1177.24        2960.25           1365         126.00       548.40
 1177.27        2960.50           1369         113.00       491.72
 1177.30        2960.75           1372         127.00       552.75
 1177.33        2961.00           1375         142.00       618.14
 1177.36        2961.25           1379         135.00       587.63
 1177.39        2961.50           1382         188.00       818.68
 1177.41        2961.75           1385         559.00      2436.08
 1177.44        2962.00           1389        2258.00      9844.81
 1177.47        2962.25           1392        4147.00     18085.55
 1177.50        2962.50           1395        6113.00     26666.10
 1177.53        2962.75           1399        9099.00     39706.01
 1177.56        2963.00           1402       11643.00     50822.96
 1177.59        2963.25           1405       14502.00     63324.40
 1177.62        2963.50           1409       17954.00     78430.09
 1177.65        2963.75           1412       20631.00     90152.92
 1177.68        2964.00           1415       23490.00    102681.00
 1177.71        2964.25           1419       26678.00    116660.70
 1177.74        2964.50           1422       29569.00    129347.20
 1177.77        2964.75           1425       32086.00    140399.60
 1177.80        2965.00           1429       35241.00    154262.80
 1177.83        2965.25           1432       37825.00    165624.80
 1177.86        2965.50           1435       39877.00    174652.50
 1177.89        2965.75           1439       42767.00    187374.50
 1177.92        2966.00           1442       44989.00    197161.90
 1177.95        2966.25           1445       47508.00    208263.70
 1177.98        2966.50           1449       50682.00    222261.80
 1178.01        2966.75           1452       52093.00    228488.10
 1178.04        2967.00           1455       52699.00    231162.80
 1178.07        2967.25           1459       52910.00    232094.20
 1178.10        2967.50           1462       52728.00    231290.80
 1178.13        2967.75           1465       52819.00    231692.50
 1178.16        2968.00           1469       51901.00    227640.70
 1178.18        2968.25           1472       50950.00    223444.20
 1178.21        2968.50           1475       49207.00    215755.40
 1178.24        2968.75           1479       46228.00    202621.60
 1178.27        2969.00           1482       43946.00    192567.10
 1178.30        2969.25           1485       41259.00    180735.10
 1178.33        2969.50           1489       37694.00    165048.60
 1178.36        2969.75           1492       34816.00    152394.70
 1178.39        2970.00           1495       32870.00    143843.60
 1178.42        2970.25           1499       29489.00    128996.00
 1178.45        2970.50           1502       26810.00    117239.80
 1178.48        2970.75           1505       24211.00    105841.70
 1178.51        2971.00           1509       21280.00     92996.07
 1178.54        2971.25           1512       19014.00     83071.03
 1178.57        2971.50           1515       16586.00     72442.35
 1178.60        2971.75           1519       13424.00     58609.67
 1178.63        2972.00           1522       10503.00     45840.49
 1178.66        2972.25           1525        7943.00     34656.65
 1178.69        2972.50           1529        4958.00     21624.65
 1178.72        2972.75           1532        2911.00     12693.10
 1178.75        2973.00           1535        1439.00      6273.08
 1178.78        2973.25           1539         457.00      1991.39
 1178.81        2973.50           1542         194.00       844.83
 1178.84        2973.75           1546         154.00       670.46
 1178.87        2974.00           1549         160.00       696.61
 1178.89        2974.25           1552         141.00       613.79
 1178.92        2974.50           1556         136.00       591.99
 1178.95        2974.75           1559         127.00       552.75
 1178.98        2975.00           1562         119.00       517.88
 1179.01        2975.25           1566         110.00       478.65
 1179.04        2975.50           1569         124.00       539.68
 1179.07        2975.75           1572         112.00       487.36
 1179.10        2976.00           1576         113.00       491.72
 1179.13        2976.25           1579         109.00       474.29
 1179.16        2976.50           1582         118.00       513.52
 1179.19        2976.75           1586         100.00       435.05
 1179.22        2977.00           1589         104.00       452.49
 1179.25        2977.25           1592         109.00       474.29
 1179.28        2977.50           1596         107.00       465.57
 1179.31        2977.75           1599         111.00       483.01
 1179.34        2978.00           1602         114.00       496.08
 1179.37        2978.25           1606         114.00       496.08
 1179.40        2978.50           1609         109.00       474.29
 1179.43        2978.75           1612         113.00       491.72
 1179.46        2979.00           1616         105.00       456.85
 1179.49        2979.25           1619         109.00       474.29
 1179.52        2979.50           1622         102.00       443.77
 1179.55        2979.75           1626         111.00       483.01
 1179.58        2980.00           1629         105.00       456.85
 1179.61        2980.25           1632         105.00       456.85
 1179.64        2980.50           1636         103.00       448.13
 1179.66        2980.75           1639          98.00       426.33
 1179.69        2981.00           1642         105.00       456.85
 1179.72        2981.25           1646         116.00       504.80
 1179.75        2981.50           1649         105.00       456.85
 1179.78        2981.75           1653         114.00       496.08
 1179.81        2982.00           1656         103.00       448.13
 1179.84        2982.25           1659         104.00       452.49
 1179.87        2982.50           1663         105.00       456.85
 1179.90        2982.75           1666         103.00       448.13
 1179.93        2983.00           1669          93.00       404.54
 1179.96        2983.25           1673         104.00       452.49
 1179.99        2983.50           1676          98.00       426.33
 1180.02        2983.75           1679         107.00       465.57
 1180.05        2984.00           1683          97.00       421.98
HS scan finished at 19:40:21
end
