************************************************************
  HS Scan of (1) Internal mercury lamp
************************************************************
Integration time is 0.2294 seconds per sample
dh130418Delft 51.9969-4.3863 2.535944pr1000
************************************************************
Dead Time -------------------------  2.7E-08 
Number of Cycles Used -------------  4 
Starting Wavelength (Angstroms) ---  2950 
Final Wavelength (Angstoms) -------  2984 
Wavelength Increment (Angstroms) --  .25 
Filter Wheel #1 Position ---------- (1) Ground quartz diffuser (ND=2.32)
Filter Wheel #2 Position ---------- (1) Neutral Density 0.494



************************************************************
HS scan start time = 03:25:36
Dark Count =  .2 


Time (GMT)  Wavelength (Ang)  Step Number  Raw Counts  Counts/Second

  206.06        2950.00           1229         127.00       552.75
  206.16        2950.25           1232         120.00       522.24
  206.19        2950.50           1236         126.00       548.40
  206.22        2950.75           1239         137.00       596.35
  206.25        2951.00           1242         134.00       583.27
  206.28        2951.25           1246         127.00       552.75
  206.31        2951.50           1249         125.00       544.04
  206.34        2951.75           1252         128.00       557.11
  206.37        2952.00           1256         123.00       535.32
  206.40        2952.25           1259         123.00       535.32
  206.43        2952.50           1262         133.00       578.91
  206.46        2952.75           1266         128.00       557.11
  206.49        2953.00           1269         125.00       544.04
  206.52        2953.25           1272         123.00       535.32
  206.55        2953.50           1276         126.00       548.40
  206.58        2953.75           1279         128.00       557.11
  206.61        2954.00           1282         140.00       609.43
  206.64        2954.25           1286         128.00       557.11
  206.67        2954.50           1289         127.00       552.75
  206.70        2954.75           1292         122.00       530.96
  206.73        2955.00           1296         116.00       504.80
  206.76        2955.25           1299         132.00       574.55
  206.79        2955.50           1302         130.00       565.83
  206.82        2955.75           1306         126.00       548.40
  206.85        2956.00           1309         127.00       552.75
  206.88        2956.25           1312         120.00       522.24
  206.91        2956.50           1316         123.00       535.32
  206.94        2956.75           1319         124.00       539.68
  206.97        2957.00           1322         120.00       522.24
  207.00        2957.25           1326         124.00       539.68
  207.03        2957.50           1329         129.00       561.47
  207.06        2957.75           1332         132.00       574.55
  207.09        2958.00           1336         117.00       509.16
  207.12        2958.25           1339         125.00       544.04
  207.15        2958.50           1342         121.00       526.60
  207.18        2958.75           1345         125.00       544.04
  207.21        2959.00           1349         124.00       539.68
  207.24        2959.25           1352         128.00       557.11
  207.27        2959.50           1355         131.00       570.19
  207.30        2959.75           1359         125.00       544.04
  207.33        2960.00           1362         128.00       557.11
  207.36        2960.25           1365         126.00       548.40
  207.39        2960.50           1369         127.00       552.75
  207.42        2960.75           1372         128.00       557.11
  207.45        2961.00           1375         142.00       618.14
  207.48        2961.25           1379         157.00       683.53
  207.51        2961.50           1382         190.00       827.39
  207.54        2961.75           1385         530.00      2309.65
  207.57        2962.00           1389        2088.00      9103.37
  207.60        2962.25           1392        4033.00     17588.13
  207.63        2962.50           1395        5856.00     25544.21
  207.66        2962.75           1399        8785.00     38334.34
  207.69        2963.00           1402       11550.00     50416.45
  207.72        2963.25           1405       14547.00     63521.23
  207.75        2963.50           1409       17864.00     78036.09
  207.78        2963.75           1412       20643.00     90205.49
  207.81        2964.00           1415       23428.00    102409.20
  207.84        2964.25           1419       26465.00    115726.30
  207.87        2964.50           1422       29191.00    127687.90
  207.90        2964.75           1425       31731.00    138840.30
  207.93        2965.00           1429       35208.00    154117.80
  207.96        2965.25           1432       37496.00    164177.80
  207.99        2965.50           1435       39631.00    173570.00
  208.02        2965.75           1439       42512.00    186251.60
  208.05        2966.00           1442       44835.00    196483.40
  208.08        2966.25           1445       47305.00    207368.80
  208.11        2966.50           1449       50708.00    222376.50
  208.14        2966.75           1452       51882.00    227556.90
  208.17        2967.00           1455       52456.00    230090.20
  208.20        2967.25           1459       52823.00    231710.20
  208.23        2967.50           1462       52899.00    232045.60
  208.26        2967.75           1465       52510.00    230328.60
  208.29        2968.00           1469       52018.00    228157.10
  208.32        2968.25           1472       50853.00    223016.30
  208.35        2968.50           1475       48957.00    214652.80
  208.38        2968.75           1479       46105.00    202079.50
  208.41        2969.00           1482       44109.00    193285.10
  208.44        2969.25           1485       41326.00    181030.00
  208.47        2969.50           1489       37653.00    164868.30
  208.50        2969.75           1492       35179.00    153990.30
  208.53        2970.00           1495       33034.00    144564.10
  208.56        2970.25           1499       29688.00    129869.60
  208.58        2970.50           1502       26667.00    116612.40
  208.61        2970.75           1505       24210.00    105837.30
  208.65        2971.00           1509       21386.00     93460.49
  208.68        2971.25           1512       19158.00     83701.60
  208.71        2971.50           1515       16770.00     73247.60
  208.74        2971.75           1519       13422.00     58600.93
  208.77        2972.00           1522       10557.00     46076.47
  208.80        2972.25           1525        8020.00     34992.94
  208.82        2972.50           1529        5078.00     22148.38
  208.85        2972.75           1532        2979.00     12989.74
  208.89        2973.00           1535        1557.00      6787.64
  208.92        2973.25           1539         460.00      2004.47
  208.95        2973.50           1542         193.00       840.47
  208.97        2973.75           1546         178.00       775.08
  209.01        2974.00           1549         136.00       591.99
  209.03        2974.25           1552         140.00       609.43
  209.06        2974.50           1556         140.00       609.43
  209.09        2974.75           1559         126.00       548.40
  209.12        2975.00           1562         120.00       522.24
  209.15        2975.25           1566         121.00       526.60
  209.18        2975.50           1569         117.00       509.16
  209.21        2975.75           1572         112.00       487.36
  209.24        2976.00           1576         111.00       483.01
  209.27        2976.25           1579         119.00       517.88
  209.30        2976.50           1582         112.00       487.36
  209.33        2976.75           1586         112.00       487.36
  209.36        2977.00           1589         114.00       496.08
  209.39        2977.25           1592          98.00       426.33
  209.42        2977.50           1596         112.00       487.36
  209.45        2977.75           1599         110.00       478.65
  209.48        2978.00           1602         128.00       557.11
  209.51        2978.25           1606         107.00       465.57
  209.54        2978.50           1609         106.00       461.21
  209.57        2978.75           1612         112.00       487.36
  209.60        2979.00           1616         107.00       465.57
  209.63        2979.25           1619         111.00       483.01
  209.66        2979.50           1622         101.00       439.41
  209.69        2979.75           1626         115.00       500.44
  209.72        2980.00           1629         109.00       474.29
  209.75        2980.25           1632         126.00       548.40
  209.78        2980.50           1636         105.00       456.85
  209.81        2980.75           1639         105.00       456.85
  209.84        2981.00           1642         107.00       465.57
  209.87        2981.25           1646         105.00       456.85
  209.90        2981.50           1649         109.00       474.29
  209.93        2981.75           1653          98.00       426.33
  209.96        2982.00           1656         105.00       456.85
  209.99        2982.25           1659         105.00       456.85
  210.02        2982.50           1663         109.00       474.29
  210.05        2982.75           1666         104.00       452.49
  210.08        2983.00           1669         100.00       435.05
  210.11        2983.25           1673         105.00       456.85
  210.14        2983.50           1676         100.00       435.05
  210.17        2983.75           1679         108.00       469.93
  210.20        2984.00           1683         104.00       452.49
HS scan finished at 03:30:30
end
************************************************************
  HS Scan of (1) Internal mercury lamp
************************************************************
Integration time is 0.2294 seconds per sample
dh130418Delft 51.9969-4.3863 2.589593pr1000
************************************************************
Dead Time -------------------------  2.7E-08 
Number of Cycles Used -------------  4 
Starting Wavelength (Angstroms) ---  2950 
Final Wavelength (Angstoms) -------  2984 
Wavelength Increment (Angstroms) --  .25 
Filter Wheel #1 Position ---------- (1) Ground quartz diffuser (ND=2.32)
Filter Wheel #2 Position ---------- (1) Neutral Density 0.494



************************************************************
HS scan start time = 19:31:50
Dark Count =  .1 


Time (GMT)  Wavelength (Ang)  Step Number  Raw Counts  Counts/Second

 1172.29        2950.00           1229         120.00       522.68
 1172.39        2950.25           1232         125.00       544.47
 1172.41        2950.50           1236         133.00       579.35
 1172.44        2950.75           1239         137.00       596.78
 1172.48        2951.00           1242         124.00       540.11
 1172.51        2951.25           1246         128.00       557.55
 1172.54        2951.50           1249         133.00       579.35
 1172.56        2951.75           1252         122.00       531.39
 1172.59        2952.00           1256         131.00       570.63
 1172.63        2952.25           1259         136.00       592.42
 1172.65        2952.50           1262         130.00       566.27
 1172.68        2952.75           1266         130.00       566.27
 1172.71        2953.00           1269         132.00       574.99
 1172.74        2953.25           1272         121.00       527.03
 1172.77        2953.50           1276         125.00       544.47
 1172.80        2953.75           1279         128.00       557.55
 1172.83        2954.00           1282         134.00       583.71
 1172.86        2954.25           1286         129.00       561.91
 1172.89        2954.50           1289         123.00       535.75
 1172.92        2954.75           1292         130.00       566.27
 1172.95        2955.00           1296         132.00       574.99
 1172.98        2955.25           1299         120.00       522.68
 1173.01        2955.50           1302         138.00       601.14
 1173.04        2955.75           1306         130.00       566.27
 1173.07        2956.00           1309         115.00       500.88
 1173.10        2956.25           1312         126.00       548.83
 1173.13        2956.50           1316         124.00       540.11
 1173.16        2956.75           1319         112.00       487.80
 1173.19        2957.00           1322         130.00       566.27
 1173.22        2957.25           1326         120.00       522.68
 1173.25        2957.50           1329         119.00       518.32
 1173.28        2957.75           1332         126.00       548.83
 1173.31        2958.00           1336         122.00       531.39
 1173.34        2958.25           1339         124.00       540.11
 1173.37        2958.50           1342         120.00       522.68
 1173.40        2958.75           1345         125.00       544.47
 1173.43        2959.00           1349         124.00       540.11
 1173.46        2959.25           1352         119.00       518.32
 1173.49        2959.50           1355         114.00       496.52
 1173.52        2959.75           1359         115.00       500.88
 1173.55        2960.00           1362         124.00       540.11
 1173.58        2960.25           1365         123.00       535.75
 1173.61        2960.50           1369         127.00       553.19
 1173.64        2960.75           1372         129.00       561.91
 1173.67        2961.00           1375         133.00       579.35
 1173.70        2961.25           1379         146.00       636.02
 1173.73        2961.50           1382         233.00      1015.29
 1173.76        2961.75           1385         668.00      2911.74
 1173.79        2962.00           1389        2149.00      9369.85
 1173.82        2962.25           1392        3878.00     16912.25
 1173.85        2962.50           1395        5957.00     25985.53
 1173.88        2962.75           1399        9565.00     41742.31
 1173.91        2963.00           1402       12380.00     54045.25
 1173.94        2963.25           1405       14803.00     64641.50
 1173.97        2963.50           1409       17919.00     78277.30
 1174.00        2963.75           1412       20644.00     90210.31
 1174.03        2964.00           1415       23235.00    101563.70
 1174.06        2964.25           1419       26861.00    117463.90
 1174.09        2964.50           1422       29282.00    128087.80
 1174.12        2964.75           1425       31642.00    138449.90
 1174.15        2965.00           1429       35031.00    153340.20
 1174.18        2965.25           1432       37814.00    165576.90
 1174.21        2965.50           1435       40212.00    176127.20
 1174.24        2965.75           1439       43445.00    190360.80
 1174.27        2966.00           1442       46088.00    202005.10
 1174.30        2966.25           1445       48529.00    212765.90
 1174.33        2966.50           1449       51378.00    225333.20
 1174.36        2966.75           1452       52435.00    229998.00
 1174.39        2967.00           1455       53031.00    232628.70
 1174.42        2967.25           1459       53200.00    233374.80
 1174.45        2967.50           1462       52993.00    232461.00
 1174.48        2967.75           1465       53049.00    232708.20
 1174.51        2968.00           1469       52158.00    228775.40
 1174.54        2968.25           1472       50359.00    220837.30
 1174.57        2968.50           1475       47913.00    210049.70
 1174.60        2968.75           1479       44936.00    196928.80
 1174.63        2969.00           1482       42929.00    188088.30
 1174.66        2969.25           1485       40583.00    177760.00
 1174.69        2969.50           1489       37413.00    163813.20
 1174.72        2969.75           1492       34928.00    152887.40
 1174.75        2970.00           1495       32448.00    141990.10
 1174.78        2970.25           1499       29479.00    128952.60
 1174.81        2970.50           1502       27031.00    118209.70
 1174.84        2970.75           1505       24784.00    108354.50
 1174.87        2971.00           1509       21300.00     93084.13
 1174.90        2971.25           1512       18813.00     82191.35
 1174.93        2971.50           1515       16413.00     71685.71
 1174.96        2971.75           1519       12969.00     56620.50
 1174.99        2972.00           1522       10776.00     47033.98
 1175.02        2972.25           1525        8400.00     36653.09
 1175.05        2972.50           1529        5353.00     23349.07
 1175.08        2972.75           1532        2985.00     13016.34
 1175.11        2973.00           1535        1601.00      6979.96
 1175.14        2973.25           1539         573.00      2497.55
 1175.17        2973.50           1542         216.00       941.17
 1175.20        2973.75           1546         170.00       740.64
 1175.23        2974.00           1549         159.00       692.69
 1175.26        2974.25           1552         158.00       688.33
 1175.29        2974.50           1556         120.00       522.68
 1175.32        2974.75           1559         123.00       535.75
 1175.35        2975.00           1562         123.00       535.75
 1175.38        2975.25           1566         115.00       500.88
 1175.41        2975.50           1569         114.00       496.52
 1175.44        2975.75           1572         110.00       479.08
 1175.47        2976.00           1576         106.00       461.64
 1175.50        2976.25           1579         119.00       518.32
 1175.53        2976.50           1582         120.00       522.68
 1175.56        2976.75           1586         114.00       496.52
 1175.59        2977.00           1589         114.00       496.52
 1175.62        2977.25           1592         113.00       492.16
 1175.65        2977.50           1596         114.00       496.52
 1175.68        2977.75           1599         119.00       518.32
 1175.71        2978.00           1602         115.00       500.88
 1175.74        2978.25           1606         109.00       474.72
 1175.77        2978.50           1609         100.00       435.49
 1175.80        2978.75           1612         107.00       466.00
 1175.83        2979.00           1616         104.00       452.93
 1175.86        2979.25           1619         102.00       444.21
 1175.89        2979.50           1622          99.00       431.13
 1175.92        2979.75           1626         107.00       466.00
 1175.95        2980.00           1629         102.00       444.21
 1175.98        2980.25           1632         102.00       444.21
 1176.01        2980.50           1636         105.00       457.29
 1176.04        2980.75           1639         105.00       457.29
 1176.07        2981.00           1642         116.00       505.24
 1176.10        2981.25           1646         111.00       483.44
 1176.13        2981.50           1649         104.00       452.93
 1176.16        2981.75           1653         115.00       500.88
 1176.19        2982.00           1656         109.00       474.72
 1176.22        2982.25           1659         111.00       483.44
 1176.25        2982.50           1663         102.00       444.21
 1176.28        2982.75           1666          94.00       409.33
 1176.31        2983.00           1669         104.00       452.93
 1176.34        2983.25           1673         106.00       461.64
 1176.37        2983.50           1676         112.00       487.80
 1176.39        2983.75           1679         104.00       452.93
 1176.43        2984.00           1683          94.00       409.33
HS scan finished at 19:36:44
end
