************************************************************
  HS Scan of (1) Internal mercury lamp
************************************************************
Integration time is 0.2294 seconds per sample
dh110417DelftKZ 51.997-4.386 2.482296pr1000
************************************************************
Dead Time -------------------------  3E-08 
Number of Cycles Used -------------  4 
Starting Wavelength (Angstroms) ---  2950 
Final Wavelength (Angstoms) -------  2984 
Wavelength Increment (Angstroms) --  .25 
Filter Wheel #1 Position ---------- (1) Ground quartz diffuser (ND=2.32)
Filter Wheel #2 Position ---------- (1) Neutral Density 0.494



************************************************************
HS scan start time = 03:15:53
Dark Count =  .1 


Time (GMT)  Wavelength (Ang)  Step Number  Raw Counts  Counts/Second

  196.34        2950.00           1229         134.00       583.71
  196.44        2950.25           1232         122.00       531.39
  196.47        2950.50           1236         132.00       574.99
  196.49        2950.75           1239         119.00       518.32
  196.52        2951.00           1242         126.00       548.83
  196.55        2951.25           1246         130.00       566.27
  196.58        2951.50           1249         123.00       535.75
  196.60        2951.75           1252         130.00       566.27
  196.63        2952.00           1255         119.00       518.32
  196.66        2952.25           1259         130.00       566.27
  196.69        2952.50           1262         134.00       583.71
  196.72        2952.75           1265         125.00       544.47
  196.74        2953.00           1269         142.00       618.58
  196.77        2953.25           1272         130.00       566.27
  196.80        2953.50           1275         123.00       535.75
  196.82        2953.75           1279         125.00       544.47
  196.85        2954.00           1282         116.00       505.24
  196.88        2954.25           1285         125.00       544.47
  196.91        2954.50           1289         129.00       561.91
  196.94        2954.75           1292         126.00       548.83
  196.96        2955.00           1295         116.00       505.24
  196.99        2955.25           1299         129.00       561.91
  197.02        2955.50           1302         128.00       557.55
  197.05        2955.75           1305         139.00       605.50
  197.07        2956.00           1309         120.00       522.68
  197.10        2956.25           1312         126.00       548.83
  197.13        2956.50           1315         128.00       557.55
  197.16        2956.75           1319         123.00       535.75
  197.19        2957.00           1322         131.00       570.63
  197.21        2957.25           1325         121.00       527.04
  197.24        2957.50           1329         123.00       535.75
  197.27        2957.75           1332         116.00       505.24
  197.30        2958.00           1335         130.00       566.27
  197.33        2958.25           1339         126.00       548.83
  197.36        2958.50           1342         122.00       531.39
  197.39        2958.75           1345         123.00       535.75
  197.41        2959.00           1349         122.00       531.39
  197.44        2959.25           1352         138.00       601.14
  197.47        2959.50           1355         122.00       531.39
  197.50        2959.75           1359         127.00       553.19
  197.53        2960.00           1362         123.00       535.75
  197.56        2960.25           1365         114.00       496.52
  197.59        2960.50           1369         138.00       601.14
  197.61        2960.75           1372         135.00       588.07
  197.64        2961.00           1375         145.00       631.66
  197.67        2961.25           1379         152.00       662.18
  197.70        2961.50           1382         216.00       941.18
  197.72        2961.75           1385         630.00      2746.09
  197.75        2962.00           1389        2270.00      9897.88
  197.78        2962.25           1392        4255.00     18558.28
  197.81        2962.50           1395        6563.00     28633.57
  197.84        2962.75           1399        9077.00     39615.06
  197.87        2963.00           1402       11283.00     49257.14
  197.89        2963.25           1405       13579.00     59298.51
  197.92        2963.50           1409       16757.00     73207.25
  197.95        2963.75           1412       19858.00     86790.21
  197.98        2964.00           1415       22188.00     97003.33
  198.01        2964.25           1419       25040.00    109513.10
  198.03        2964.50           1422       27594.00    120723.70
  198.06        2964.75           1425       30103.00    131744.20
  198.09        2965.00           1429       33587.00    147059.30
  198.12        2965.25           1432       35912.00    157287.50
  198.14        2965.50           1435       38591.00    169080.90
  198.17        2965.75           1439       41741.00    182958.30
  198.20        2966.00           1442       44164.00    193640.80
  198.23        2966.25           1445       46767.00    205124.60
  198.25        2966.50           1449       48864.00    214381.80
  198.28        2966.75           1452       50037.00    219562.20
  198.31        2967.00           1455       50526.00    221722.30
  198.34        2967.25           1459       50579.00    221956.50
  198.37        2967.50           1462       50395.00    221143.60
  198.39        2967.75           1465       50178.00    220185.10
  198.42        2968.00           1469       49223.00    215967.10
  198.45        2968.25           1472       47525.00    208470.20
  198.48        2968.50           1475       45750.00    200636.90
  198.50        2968.75           1479       42909.00    188106.90
  198.53        2969.00           1482       40755.00    178613.20
  198.56        2969.25           1485       38319.00    167883.10
  198.59        2969.50           1489       34968.00    153133.90
  198.62        2969.75           1492       32835.00    143752.40
  198.64        2970.00           1495       30995.00    135663.90
  198.67        2970.25           1499       27970.00    122374.80
  198.70        2970.50           1502       26069.00    114028.90
  198.73        2970.75           1505       23638.00    103362.30
  198.75        2971.00           1509       20277.00     88626.34
  198.78        2971.25           1512       17751.00     77559.94
  198.81        2971.50           1515       15565.00     67989.02
  198.84        2971.75           1519       12580.00     54928.72
  198.87        2972.00           1522        9983.00     43574.37
  198.90        2972.25           1525        7565.00     33009.57
  198.93        2972.50           1529        4733.00     20644.43
  198.96        2972.75           1532        2976.00     12977.59
  198.99        2973.00           1536        1073.00      4677.64
  199.01        2973.25           1539         414.00      1804.37
  199.04        2973.50           1542         183.00       797.32
  199.07        2973.75           1546         153.00       666.53
  199.10        2974.00           1549         140.00       609.86
  199.13        2974.25           1552         134.00       583.71
  199.15        2974.50           1556         125.00       544.47
  199.18        2974.75           1559         126.00       548.83
  199.21        2975.00           1562         112.00       487.80
  199.24        2975.25           1566         113.00       492.16
  199.27        2975.50           1569         116.00       505.24
  199.30        2975.75           1572         103.00       448.57
  199.32        2976.00           1576         115.00       500.88
  199.35        2976.25           1579         105.00       457.29
  199.38        2976.50           1582         110.00       479.08
  199.41        2976.75           1586         115.00       500.88
  199.43        2977.00           1589         113.00       492.16
  199.46        2977.25           1592         105.00       457.29
  199.49        2977.50           1596         124.00       540.11
  199.52        2977.75           1599         115.00       500.88
  199.54        2978.00           1602         119.00       518.32
  199.57        2978.25           1606         111.00       483.44
  199.60        2978.50           1609         104.00       452.93
  199.63        2978.75           1612         108.00       470.36
  199.65        2979.00           1616         108.00       470.36
  199.68        2979.25           1619         110.00       479.08
  199.71        2979.50           1623         111.00       483.44
  199.74        2979.75           1626         109.00       474.72
  199.77        2980.00           1629         103.00       448.57
  199.79        2980.25           1633         100.00       435.49
  199.82        2980.50           1636         114.00       496.52
  199.85        2980.75           1639         106.00       461.65
  199.88        2981.00           1643         117.00       509.60
  199.90        2981.25           1646         100.00       435.49
  199.93        2981.50           1649         106.00       461.65
  199.96        2981.75           1653         109.00       474.72
  199.99        2982.00           1656         107.00       466.00
  200.01        2982.25           1659         104.00       452.93
  200.04        2982.50           1663          95.00       413.69
  200.07        2982.75           1666         108.00       470.36
  200.10        2983.00           1669         103.00       448.57
  200.12        2983.25           1673         111.00       483.44
  200.15        2983.50           1676         113.00       492.16
  200.18        2983.75           1679         108.00       470.36
  200.21        2984.00           1683         103.00       448.57
HS scan finished at 03:20:30
end
