************************************************************
  HS Scan of (1) Internal mercury lamp
************************************************************
Integration time is 0.2294 seconds per sample
dh100418Delft 51.9969-4.3863 2.589593pr1000
************************************************************
Dead Time -------------------------  2.7E-08 
Number of Cycles Used -------------  4 
Starting Wavelength (Angstroms) ---  2950 
Final Wavelength (Angstoms) -------  2984 
Wavelength Increment (Angstroms) --  .25 
Filter Wheel #1 Position ---------- (1) Ground quartz diffuser (ND=2.32)
Filter Wheel #2 Position ---------- (1) Neutral Density 0.494



************************************************************
HS scan start time = 03:35:39
Dark Count =  .1 


Time (GMT)  Wavelength (Ang)  Step Number  Raw Counts  Counts/Second

  216.10        2950.00           1229         121.00       527.03
  216.20        2950.25           1232         128.00       557.55
  216.24        2950.50           1236         130.00       566.27
  216.27        2950.75           1239         122.00       531.39
  216.30        2951.00           1242         120.00       522.68
  216.33        2951.25           1246         119.00       518.32
  216.35        2951.50           1249         133.00       579.35
  216.38        2951.75           1252         129.00       561.91
  216.41        2952.00           1256         129.00       561.91
  216.44        2952.25           1259         126.00       548.83
  216.47        2952.50           1262         128.00       557.55
  216.50        2952.75           1266         122.00       531.39
  216.53        2953.00           1269         123.00       535.75
  216.56        2953.25           1272         131.00       570.63
  216.59        2953.50           1276         123.00       535.75
  216.62        2953.75           1279         128.00       557.55
  216.65        2954.00           1282         138.00       601.14
  216.68        2954.25           1286         124.00       540.11
  216.71        2954.50           1289         126.00       548.83
  216.74        2954.75           1292         129.00       561.91
  216.77        2955.00           1296         117.00       509.60
  216.80        2955.25           1299         115.00       500.88
  216.83        2955.50           1302         121.00       527.03
  216.86        2955.75           1306         122.00       531.39
  216.89        2956.00           1309         125.00       544.47
  216.92        2956.25           1312         112.00       487.80
  216.95        2956.50           1316         123.00       535.75
  216.98        2956.75           1319         128.00       557.55
  217.01        2957.00           1322         125.00       544.47
  217.04        2957.25           1326         133.00       579.35
  217.07        2957.50           1329         126.00       548.83
  217.10        2957.75           1332         132.00       574.99
  217.13        2958.00           1336         127.00       553.19
  217.16        2958.25           1339         125.00       544.47
  217.19        2958.50           1342         125.00       544.47
  217.22        2958.75           1345         131.00       570.63
  217.25        2959.00           1349         124.00       540.11
  217.28        2959.25           1352         113.00       492.16
  217.31        2959.50           1355         112.00       487.80
  217.34        2959.75           1359         129.00       561.91
  217.37        2960.00           1362         125.00       544.47
  217.40        2960.25           1365         112.00       487.80
  217.43        2960.50           1369         126.00       548.83
  217.46        2960.75           1372         125.00       544.47
  217.49        2961.00           1375         129.00       561.91
  217.52        2961.25           1379         148.00       644.74
  217.54        2961.50           1382         223.00       971.69
  217.57        2961.75           1385         677.00      2950.98
  217.60        2962.00           1389        2223.00      9692.60
  217.63        2962.25           1392        3885.00     16942.80
  217.66        2962.50           1395        6186.00     26985.22
  217.69        2962.75           1399        9736.00     42489.44
  217.72        2963.00           1402       12264.00     53538.11
  217.75        2963.25           1405       15411.00     67301.35
  217.78        2963.50           1409       18989.00     82962.00
  217.81        2963.75           1412       21861.00     95542.14
  217.84        2964.00           1415       24485.00    107043.50
  217.87        2964.25           1419       27853.00    121816.30
  217.90        2964.50           1422       30740.00    134488.80
  217.93        2964.75           1425       33132.00    144995.00
  217.96        2965.00           1429       35989.00    157551.50
  217.99        2965.25           1432       38382.00    168075.30
  218.02        2965.50           1435       40857.00    178966.00
  218.05        2965.75           1439       44585.00    195382.40
  218.08        2966.00           1442       46712.00    204755.30
  218.11        2966.25           1445       49161.00    215553.00
  218.14        2966.50           1449       52362.00    229675.80
  218.17        2966.75           1452       53672.00    235458.60
  218.20        2967.00           1455       54373.00    238553.80
  218.23        2967.25           1459       54465.00    238960.10
  218.26        2967.50           1462       54374.00    238558.20
  218.29        2967.75           1465       54512.00    239167.60
  218.32        2968.00           1469       53706.00    235608.70
  218.35        2968.25           1472       52581.00    230642.40
  218.38        2968.50           1475       50522.00    221556.40
  218.41        2968.75           1479       47193.00    206875.50
  218.44        2969.00           1482       44508.00    195043.20
  218.47        2969.25           1485       42022.00    184094.60
  218.50        2969.50           1489       38670.00    169342.30
  218.53        2969.75           1492       36092.00    158004.40
  218.56        2970.00           1495       33794.00    147903.80
  218.59        2970.25           1499       30292.00    132521.70
  218.62        2970.50           1502       28239.00    123510.20
  218.65        2970.75           1505       25668.00    112231.00
  218.68        2971.00           1509       22177.00     96926.83
  218.71        2971.25           1512       19425.00     84871.25
  218.74        2971.50           1515       16584.00     72434.03
  218.77        2971.75           1519       13367.00     58360.86
  218.80        2972.00           1522       10965.00     47859.98
  218.83        2972.25           1525        8400.00     36653.09
  218.86        2972.50           1529        5361.00     23383.99
  218.89        2972.75           1532        2972.00     12959.64
  218.92        2973.00           1535        1380.00      6016.24
  218.95        2973.25           1539         442.00      1926.43
  218.98        2973.50           1542         209.00       910.66
  219.01        2973.75           1546         171.00       745.00
  219.04        2974.00           1549         155.00       675.25
  219.07        2974.25           1552         154.00       670.89
  219.10        2974.50           1556         136.00       592.42
  219.13        2974.75           1559         128.00       557.55
  219.16        2975.00           1562         110.00       479.08
  219.19        2975.25           1566         111.00       483.44
  219.22        2975.50           1569         128.00       557.55
  219.25        2975.75           1572         114.00       496.52
  219.28        2976.00           1576         108.00       470.36
  219.31        2976.25           1579         108.00       470.36
  219.34        2976.50           1582         116.00       505.24
  219.37        2976.75           1586         119.00       518.32
  219.39        2977.00           1589         107.00       466.00
  219.42        2977.25           1592         117.00       509.60
  219.45        2977.50           1596         112.00       487.80
  219.48        2977.75           1599         107.00       466.00
  219.51        2978.00           1602         123.00       535.75
  219.54        2978.25           1606         112.00       487.80
  219.57        2978.50           1609         111.00       483.44
  219.60        2978.75           1612         107.00       466.00
  219.63        2979.00           1616         113.00       492.16
  219.66        2979.25           1619         122.00       531.39
  219.69        2979.50           1622         110.00       479.08
  219.72        2979.75           1626         108.00       470.36
  219.75        2980.00           1629         120.00       522.68
  219.78        2980.25           1632         109.00       474.72
  219.81        2980.50           1636         115.00       500.88
  219.84        2980.75           1639         102.00       444.21
  219.87        2981.00           1642         109.00       474.72
  219.90        2981.25           1646         113.00       492.16
  219.93        2981.50           1649         100.00       435.49
  219.96        2981.75           1653         109.00       474.72
  219.99        2982.00           1656         107.00       466.00
  220.02        2982.25           1659         108.00       470.36
  220.05        2982.50           1663         102.00       444.21
  220.08        2982.75           1666         102.00       444.21
  220.11        2983.00           1669          99.00       431.13
  220.14        2983.25           1673         103.00       448.57
  220.17        2983.50           1676         113.00       492.16
  220.20        2983.75           1679          97.00       422.41
  220.23        2984.00           1683         106.00       461.64
HS scan finished at 03:40:32
end
************************************************************
  HS Scan of (1) Internal mercury lamp
************************************************************
Integration time is 0.2294 seconds per sample
dh100418Delft 51.9969-4.3863 2.965129pr1000
************************************************************
Dead Time -------------------------  2.7E-08 
Number of Cycles Used -------------  4 
Starting Wavelength (Angstroms) ---  2950 
Final Wavelength (Angstoms) -------  2984 
Wavelength Increment (Angstroms) --  .25 
Filter Wheel #1 Position ---------- (1) Ground quartz diffuser (ND=2.32)
Filter Wheel #2 Position ---------- (1) Neutral Density 0.494



************************************************************
HS scan start time = 19:31:58
Dark Count =  .1 


Time (GMT)  Wavelength (Ang)  Step Number  Raw Counts  Counts/Second

 1172.43        2950.00           1229         109.00       474.72
 1172.53        2950.25           1232         127.00       553.19
 1172.56        2950.50           1236         119.00       518.32
 1172.59        2950.75           1239         109.00       474.72
 1172.62        2951.00           1242         118.00       513.96
 1172.65        2951.25           1246         113.00       492.16
 1172.68        2951.50           1249         116.00       505.24
 1172.71        2951.75           1252         114.00       496.52
 1172.74        2952.00           1256         112.00       487.80
 1172.77        2952.25           1259         115.00       500.88
 1172.79        2952.50           1262         112.00       487.80
 1172.83        2952.75           1266         121.00       527.03
 1172.85        2953.00           1269         110.00       479.08
 1172.88        2953.25           1272         120.00       522.68
 1172.92        2953.50           1276         125.00       544.47
 1172.94        2953.75           1279         118.00       513.96
 1172.97        2954.00           1282         111.00       483.44
 1173.00        2954.25           1286         106.00       461.64
 1173.03        2954.50           1289         112.00       487.80
 1173.06        2954.75           1292         116.00       505.24
 1173.09        2955.00           1296         106.00       461.64
 1173.12        2955.25           1299         112.00       487.80
 1173.15        2955.50           1302         112.00       487.80
 1173.18        2955.75           1306         115.00       500.88
 1173.21        2956.00           1309         106.00       461.64
 1173.24        2956.25           1312         109.00       474.72
 1173.27        2956.50           1316         116.00       505.24
 1173.30        2956.75           1319         115.00       500.88
 1173.33        2957.00           1322         103.00       448.57
 1173.36        2957.25           1326         106.00       461.64
 1173.39        2957.50           1329         107.00       466.00
 1173.42        2957.75           1332         117.00       509.60
 1173.45        2958.00           1336         110.00       479.08
 1173.48        2958.25           1339         112.00       487.80
 1173.51        2958.50           1342         105.00       457.29
 1173.54        2958.75           1345         110.00       479.08
 1173.57        2959.00           1349         127.00       553.19
 1173.60        2959.25           1352         118.00       513.96
 1173.63        2959.50           1355         113.00       492.16
 1173.66        2959.75           1359         115.00       500.88
 1173.69        2960.00           1362         111.00       483.44
 1173.72        2960.25           1365         118.00       513.96
 1173.75        2960.50           1369         118.00       513.96
 1173.78        2960.75           1372         122.00       531.39
 1173.81        2961.00           1375         125.00       544.47
 1173.84        2961.25           1379         136.00       592.42
 1173.87        2961.50           1382         181.00       788.60
 1173.90        2961.75           1385         653.00      2846.34
 1173.93        2962.00           1389        2551.00     11123.22
 1173.96        2962.25           1392        4495.00     19604.53
 1173.99        2962.50           1395        6555.00     28596.18
 1174.02        2962.75           1399       10164.00     44359.55
 1174.05        2963.00           1402       13083.00     57118.98
 1174.08        2963.25           1405       16212.00     70806.12
 1174.11        2963.50           1409       20526.00     89693.41
 1174.14        2963.75           1412       23318.00    101927.50
 1174.16        2964.00           1415       25812.00    112862.60
 1174.20        2964.25           1419       29747.00    130129.00
 1174.23        2964.50           1422       32944.00    144169.10
 1174.26        2964.75           1425       35954.00    157397.60
 1174.28        2965.00           1429       39562.00    173266.90
 1174.31        2965.25           1432       42020.00    184085.80
 1174.35        2965.50           1435       44846.00    196532.30
 1174.37        2965.75           1439       48777.00    213859.50
 1174.41        2966.00           1442       51476.00    225765.70
 1174.43        2966.25           1445       54216.00    237860.60
 1174.46        2966.50           1449       58175.00    255350.40
 1174.49        2966.75           1452       59899.00    262971.70
 1174.52        2967.00           1455       60618.00    266151.20
 1174.55        2967.25           1459       60285.00    264678.50
 1174.58        2967.50           1462       60292.00    264709.50
 1174.61        2967.75           1465       60176.00    264196.50
 1174.64        2968.00           1469       59485.00    261141.30
 1174.67        2968.25           1472       58011.00    254625.50
 1174.70        2968.50           1475       55768.00    244714.90
 1174.73        2968.75           1479       51968.00    227936.90
 1174.76        2969.00           1482       49377.00    216505.60
 1174.79        2969.25           1485       46605.00    204283.70
 1174.82        2969.50           1489       43210.00    189325.80
 1174.85        2969.75           1492       40131.00    175770.70
 1174.88        2970.00           1495       37232.00    163017.20
 1174.91        2970.25           1499       33625.00    147161.20
 1174.94        2970.50           1502       30951.00    135415.30
 1174.97        2970.75           1505       28437.00    124379.10
 1175.00        2971.00           1509       24781.00    108341.30
 1175.03        2971.25           1512       22178.00     96931.21
 1175.06        2971.50           1515       19283.00     84249.41
 1175.09        2971.75           1519       15502.00     67699.49
 1175.12        2972.00           1522       12751.00     55667.31
 1175.15        2972.25           1525        9653.00     42126.80
 1175.18        2972.50           1529        6146.00     26810.60
 1175.21        2972.75           1532        3735.00     16288.33
 1175.24        2973.00           1535        1752.00      7638.45
 1175.27        2973.25           1539         493.00      2148.77
 1175.30        2973.50           1542         225.00       980.41
 1175.33        2973.75           1546         159.00       692.69
 1175.36        2974.00           1549         155.00       675.25
 1175.39        2974.25           1552         137.00       596.78
 1175.42        2974.50           1556         128.00       557.55
 1175.45        2974.75           1559         132.00       574.99
 1175.48        2975.00           1562         117.00       509.60
 1175.51        2975.25           1566         115.00       500.88
 1175.54        2975.50           1569         108.00       470.36
 1175.57        2975.75           1572         104.00       452.93
 1175.60        2976.00           1576         106.00       461.64
 1175.63        2976.25           1579         105.00       457.29
 1175.66        2976.50           1582         109.00       474.72
 1175.69        2976.75           1586         102.00       444.21
 1175.72        2977.00           1589         107.00       466.00
 1175.75        2977.25           1592         100.00       435.49
 1175.78        2977.50           1596         109.00       474.72
 1175.81        2977.75           1599         106.00       461.64
 1175.83        2978.00           1602         100.00       435.49
 1175.86        2978.25           1606          97.00       422.41
 1175.89        2978.50           1609          99.00       431.13
 1175.92        2978.75           1612         102.00       444.21
 1175.95        2979.00           1616         102.00       444.21
 1175.98        2979.25           1619          95.00       413.69
 1176.01        2979.50           1622         104.00       452.93
 1176.04        2979.75           1626         107.00       466.00
 1176.07        2980.00           1629          91.00       396.26
 1176.10        2980.25           1632          97.00       422.41
 1176.13        2980.50           1636         109.00       474.72
 1176.16        2980.75           1639          93.00       404.97
 1176.19        2981.00           1642         105.00       457.29
 1176.22        2981.25           1646          94.00       409.33
 1176.25        2981.50           1649         102.00       444.21
 1176.28        2981.75           1653          92.00       400.61
 1176.31        2982.00           1656          94.00       409.33
 1176.34        2982.25           1659          96.00       418.05
 1176.37        2982.50           1663          94.00       409.33
 1176.40        2982.75           1666         101.00       439.85
 1176.43        2983.00           1669          99.00       431.13
 1176.46        2983.25           1673          93.00       404.97
 1176.49        2983.50           1676         100.00       435.49
 1176.52        2983.75           1679         100.00       435.49
 1176.55        2984.00           1683          93.00       404.97
HS scan finished at 19:36:51
end
