************************************************************
  HS Scan of (1) Internal mercury lamp
************************************************************
Integration time is 0.2294 seconds per sample
dh150417DelftKZ 51.997-4.386 2.482296pr1000
************************************************************
Dead Time -------------------------  3E-08 
Number of Cycles Used -------------  4 
Starting Wavelength (Angstroms) ---  2950 
Final Wavelength (Angstoms) -------  2984 
Wavelength Increment (Angstroms) --  .25 
Filter Wheel #1 Position ---------- (1) Ground quartz diffuser (ND=2.32)
Filter Wheel #2 Position ---------- (1) Neutral Density 0.494



************************************************************
HS scan start time = 03:02:20
Dark Count =  .1 


Time (GMT)  Wavelength (Ang)  Step Number  Raw Counts  Counts/Second

  182.79        2950.00           1229         136.00       592.43
  182.89        2950.25           1232         135.00       588.07
  182.92        2950.50           1236         121.00       527.04
  182.94        2950.75           1239         134.00       583.71
  182.97        2951.00           1242         122.00       531.39
  183.00        2951.25           1246         131.00       570.63
  183.03        2951.50           1249         130.00       566.27
  183.05        2951.75           1252         129.00       561.91
  183.08        2952.00           1255         123.00       535.75
  183.11        2952.25           1259         128.00       557.55
  183.14        2952.50           1262         133.00       579.35
  183.16        2952.75           1265         127.00       553.19
  183.19        2953.00           1269         133.00       579.35
  183.22        2953.25           1272         119.00       518.32
  183.25        2953.50           1275         121.00       527.04
  183.27        2953.75           1279         131.00       570.63
  183.30        2954.00           1282         128.00       557.55
  183.33        2954.25           1285         120.00       522.68
  183.36        2954.50           1289         127.00       553.19
  183.38        2954.75           1292         129.00       561.91
  183.41        2955.00           1295         123.00       535.75
  183.44        2955.25           1299         132.00       574.99
  183.48        2955.50           1302         140.00       609.86
  183.51        2955.75           1305         125.00       544.47
  183.54        2956.00           1309         122.00       531.39
  183.57        2956.25           1312         125.00       544.47
  183.59        2956.50           1315         133.00       579.35
  183.62        2956.75           1319         130.00       566.27
  183.65        2957.00           1322         118.00       513.96
  183.68        2957.25           1325         125.00       544.47
  183.70        2957.50           1329         146.00       636.02
  183.73        2957.75           1332         116.00       505.24
  183.76        2958.00           1335         115.00       500.88
  183.79        2958.25           1339         120.00       522.68
  183.81        2958.50           1342         109.00       474.72
  183.84        2958.75           1345         120.00       522.68
  183.87        2959.00           1349         114.00       496.52
  183.90        2959.25           1352         130.00       566.27
  183.93        2959.50           1355         129.00       561.91
  183.95        2959.75           1359         127.00       553.19
  183.98        2960.00           1362         128.00       557.55
  184.01        2960.25           1365         122.00       531.39
  184.04        2960.50           1369         137.00       596.78
  184.06        2960.75           1372         135.00       588.07
  184.09        2961.00           1375         161.00       701.41
  184.12        2961.25           1379         151.00       657.82
  184.15        2961.50           1382         258.00      1124.28
  184.18        2961.75           1385         831.00      3622.45
  184.20        2962.00           1389        2568.00     11197.75
  184.23        2962.25           1392        4665.00     20347.64
  184.26        2962.50           1395        6923.00     30205.65
  184.29        2962.75           1399        9294.00     40563.28
  184.31        2963.00           1402       11621.00     50734.97
  184.34        2963.25           1405       13997.00     61127.26
  184.37        2963.50           1409       17144.00     74901.78
  184.40        2963.75           1412       19548.00     85431.84
  184.43        2964.00           1415       22406.00     97959.21
  184.45        2964.25           1419       25617.00    112045.10
  184.48        2964.50           1422       28144.00    123138.90
  184.51        2964.75           1425       30670.00    134235.70
  184.54        2965.00           1429       33927.00    148554.60
  184.56        2965.25           1432       36205.00    158576.90
  184.60        2965.50           1435       38456.00    168486.40
  184.63        2965.75           1439       40865.00    179097.90
  184.65        2966.00           1442       43385.00    190205.60
  184.69        2966.25           1445       45410.00    199136.90
  184.72        2966.50           1449       48147.00    211216.00
  184.75        2966.75           1452       49034.00    215132.50
  184.78        2967.00           1455       49517.00    217265.50
  184.81        2967.25           1459       49807.00    218546.40
  184.83        2967.50           1462       49553.00    217424.50
  184.86        2967.75           1465       49460.00    217013.70
  184.89        2968.00           1469       48681.00    213573.70
  184.92        2968.25           1472       47368.00    207777.20
  184.94        2968.50           1475       45396.00    199075.10
  184.97        2968.75           1479       42717.00    187260.50
  185.00        2969.00           1482       40552.00    177718.80
  185.03        2969.25           1485       38354.00    168037.20
  185.06        2969.50           1489       34445.00    150833.10
  185.08        2969.75           1492       31887.00    139584.60
  185.11        2970.00           1495       30019.00    131375.10
  185.14        2970.25           1499       27153.00    118787.40
  185.17        2970.50           1502       24810.00    108503.90
  185.19        2970.75           1505       22547.00     98577.51
  185.22        2971.00           1509       19807.00     86566.72
  185.25        2971.25           1512       17737.00     77498.65
  185.28        2971.50           1515       15166.00     66242.68
  185.31        2971.75           1519       12165.00     53113.78
  185.33        2972.00           1522        9466.00     41314.91
  185.36        2972.25           1525        7077.00     30878.20
  185.39        2972.50           1529        4144.00     18073.88
  185.42        2972.75           1532        2313.00     10085.44
  185.44        2973.00           1536         766.00      3339.04
  185.47        2973.25           1539         300.00      1307.37
  185.50        2973.50           1542         181.00       788.60
  185.53        2973.75           1546         150.00       653.46
  185.55        2974.00           1549         142.00       618.58
  185.58        2974.25           1552         123.00       535.75
  185.61        2974.50           1556         124.00       540.11
  185.64        2974.75           1559         120.00       522.68
  185.66        2975.00           1562         116.00       505.24
  185.69        2975.25           1566         113.00       492.16
  185.72        2975.50           1569         115.00       500.88
  185.75        2975.75           1572         110.00       479.08
  185.78        2976.00           1576         107.00       466.00
  185.80        2976.25           1579         110.00       479.08
  185.83        2976.50           1582         106.00       461.65
  185.86        2976.75           1586          98.00       426.77
  185.89        2977.00           1589         121.00       527.04
  185.91        2977.25           1592         117.00       509.60
  185.94        2977.50           1596         105.00       457.29
  185.97        2977.75           1599         117.00       509.60
  186.00        2978.00           1602         110.00       479.08
  186.02        2978.25           1606         114.00       496.52
  186.05        2978.50           1609         111.00       483.44
  186.08        2978.75           1612         120.00       522.68
  186.11        2979.00           1616         106.00       461.65
  186.13        2979.25           1619         107.00       466.00
  186.17        2979.50           1623         105.00       457.29
  186.20        2979.75           1626         109.00       474.72
  186.23        2980.00           1629         102.00       444.21
  186.25        2980.25           1633         110.00       479.08
  186.28        2980.50           1636         109.00       474.72
  186.31        2980.75           1639         107.00       466.00
  186.34        2981.00           1643         105.00       457.29
  186.36        2981.25           1646         123.00       535.75
  186.39        2981.50           1649         111.00       483.44
  186.42        2981.75           1653         103.00       448.57
  186.45        2982.00           1656         114.00       496.52
  186.47        2982.25           1659         111.00       483.44
  186.50        2982.50           1663         105.00       457.29
  186.53        2982.75           1666          99.00       431.13
  186.56        2983.00           1669         107.00       466.00
  186.58        2983.25           1673         104.00       452.93
  186.62        2983.50           1676         107.00       466.00
  186.65        2983.75           1679         108.00       470.36
  186.68        2984.00           1683         110.00       479.08
HS scan finished at 03:06:58
end
