************************************************************
  HS Scan of (1) Internal mercury lamp
************************************************************
Integration time is 0.2294 seconds per sample
dh170417DelftKZ 51.997-4.386 2.267704pr1000
************************************************************
Dead Time -------------------------  3E-08 
Number of Cycles Used -------------  4 
Starting Wavelength (Angstroms) ---  2950 
Final Wavelength (Angstoms) -------  2984 
Wavelength Increment (Angstroms) --  .25 
Filter Wheel #1 Position ---------- (1) Ground quartz diffuser (ND=2.32)
Filter Wheel #2 Position ---------- (1) Neutral Density 0.494



************************************************************
HS scan start time = 02:55:21
Dark Count =  .1 


Time (GMT)  Wavelength (Ang)  Step Number  Raw Counts  Counts/Second

  175.80        2950.00           1229         136.00       592.43
  175.90        2950.25           1232         139.00       605.50
  175.93        2950.50           1236         122.00       531.39
  175.96        2950.75           1239         126.00       548.83
  175.99        2951.00           1242         127.00       553.19
  176.01        2951.25           1246         121.00       527.04
  176.05        2951.50           1249         120.00       522.68
  176.08        2951.75           1252         141.00       614.22
  176.10        2952.00           1255         135.00       588.07
  176.13        2952.25           1259         136.00       592.43
  176.16        2952.50           1262         133.00       579.35
  176.19        2952.75           1265         129.00       561.91
  176.21        2953.00           1269         128.00       557.55
  176.24        2953.25           1272         138.00       601.14
  176.27        2953.50           1275         140.00       609.86
  176.30        2953.75           1279         124.00       540.11
  176.33        2954.00           1282         122.00       531.39
  176.35        2954.25           1285         121.00       527.04
  176.38        2954.50           1289         135.00       588.07
  176.41        2954.75           1292         128.00       557.55
  176.44        2955.00           1295         134.00       583.71
  176.46        2955.25           1299         129.00       561.91
  176.49        2955.50           1302         135.00       588.07
  176.52        2955.75           1305         121.00       527.04
  176.55        2956.00           1309         134.00       583.71
  176.57        2956.25           1312         124.00       540.11
  176.60        2956.50           1315         126.00       548.83
  176.63        2956.75           1319         134.00       583.71
  176.66        2957.00           1322         126.00       548.83
  176.68        2957.25           1325         128.00       557.55
  176.71        2957.50           1329         122.00       531.39
  176.74        2957.75           1332         121.00       527.04
  176.77        2958.00           1335         122.00       531.39
  176.79        2958.25           1339         118.00       513.96
  176.82        2958.50           1342         128.00       557.55
  176.85        2958.75           1345         120.00       522.68
  176.88        2959.00           1349         123.00       535.75
  176.91        2959.25           1352         123.00       535.75
  176.94        2959.50           1355         135.00       588.07
  176.97        2959.75           1359         118.00       513.96
  176.99        2960.00           1362         119.00       518.32
  177.02        2960.25           1365         118.00       513.96
  177.05        2960.50           1369         124.00       540.11
  177.09        2960.75           1372         127.00       553.19
  177.12        2961.00           1375         145.00       631.66
  177.15        2961.25           1379         137.00       596.78
  177.18        2961.50           1382         227.00       989.13
  177.21        2961.75           1385         782.00      3408.81
  177.24        2962.00           1389        2008.00      8755.13
  177.27        2962.25           1392        3378.00     14731.44
  177.29        2962.50           1395        5147.00     22451.47
  177.32        2962.75           1399        7580.00     33075.09
  177.35        2963.00           1402        9629.00     42027.24
  177.38        2963.25           1405       11533.00     50350.20
  177.40        2963.50           1409       13837.00     60427.24
  177.43        2963.75           1412       15799.00     69013.28
  177.46        2964.00           1415       18139.00     79259.30
  177.49        2964.25           1419       20727.00     90598.57
  177.51        2964.50           1422       22851.00     99910.62
  177.54        2964.75           1425       25337.00    110816.40
  177.57        2965.00           1429       27843.00    121817.10
  177.60        2965.25           1432       29632.00    129674.80
  177.63        2965.50           1435       31591.00    138283.50
  177.65        2965.75           1439       34216.00    149825.80
  177.68        2966.00           1442       36016.00    157745.20
  177.71        2966.25           1445       37800.00    165597.90
  177.74        2966.50           1449       39450.00    172864.10
  177.76        2966.75           1452       40422.00    177146.00
  177.79        2967.00           1455       40884.00    179181.60
  177.82        2967.25           1459       41203.00    180587.30
  177.85        2967.50           1462       41102.00    180142.20
  177.88        2967.75           1465       40909.00    179291.80
  177.90        2968.00           1469       39929.00    174974.00
  177.93        2968.25           1472       38891.00    170402.00
  177.96        2968.50           1475       37184.00    162886.00
  177.99        2968.75           1479       34749.00    152170.40
  178.01        2969.00           1482       33367.00    146091.80
  178.04        2969.25           1485       31334.00    137153.90
  178.07        2969.50           1489       28950.00    126678.90
  178.10        2969.75           1492       27158.00    118809.40
  178.12        2970.00           1495       25213.00    110272.20
  178.15        2970.25           1499       22698.00     99239.66
  178.18        2970.50           1502       20752.00     90708.15
  178.21        2970.75           1505       18988.00     82978.32
  178.24        2971.00           1509       16556.00     72327.21
  178.26        2971.25           1512       14438.00     63056.84
  178.29        2971.50           1515       12349.00     53918.45
  178.32        2971.75           1519       10233.00     44667.05
  178.35        2972.00           1522        8608.00     37565.86
  178.37        2972.25           1525        6509.00     28397.77
  178.40        2972.50           1529        4044.00     17637.49
  178.43        2972.75           1532        2063.00      8995.02
  178.46        2973.00           1536         615.00      2680.69
  178.49        2973.25           1539         285.00      1241.98
  178.51        2973.50           1542         172.00       749.36
  178.54        2973.75           1546         139.00       605.50
  178.57        2974.00           1549         143.00       622.94
  178.60        2974.25           1552         135.00       588.07
  178.62        2974.50           1556         127.00       553.19
  178.65        2974.75           1559         125.00       544.47
  178.69        2975.00           1562         112.00       487.80
  178.72        2975.25           1566         109.00       474.72
  178.75        2975.50           1569         104.00       452.93
  178.79        2975.75           1572         108.00       470.36
  178.81        2976.00           1576         115.00       500.88
  178.84        2976.25           1579         109.00       474.72
  178.87        2976.50           1582         105.00       457.29
  178.90        2976.75           1586         108.00       470.36
  178.92        2977.00           1589         105.00       457.29
  178.95        2977.25           1592         102.00       444.21
  178.98        2977.50           1596         108.00       470.36
  179.01        2977.75           1599          99.00       431.13
  179.03        2978.00           1602         109.00       474.72
  179.06        2978.25           1606         101.00       439.85
  179.09        2978.50           1609          98.00       426.77
  179.12        2978.75           1612         107.00       466.00
  179.14        2979.00           1616         103.00       448.57
  179.17        2979.25           1619         114.00       496.52
  179.20        2979.50           1623         113.00       492.16
  179.23        2979.75           1626         104.00       452.93
  179.26        2980.00           1629         109.00       474.72
  179.28        2980.25           1633         109.00       474.72
  179.31        2980.50           1636         105.00       457.29
  179.34        2980.75           1639         106.00       461.65
  179.37        2981.00           1643         112.00       487.80
  179.39        2981.25           1646         100.00       435.49
  179.42        2981.50           1649         104.00       452.93
  179.46        2981.75           1653         103.00       448.57
  179.48        2982.00           1656         105.00       457.29
  179.51        2982.25           1659         100.00       435.49
  179.54        2982.50           1663         109.00       474.72
  179.57        2982.75           1666         106.00       461.65
  179.59        2983.00           1669         113.00       492.16
  179.62        2983.25           1673         106.00       461.65
  179.65        2983.50           1676          93.00       404.97
  179.68        2983.75           1679         100.00       435.49
  179.70        2984.00           1683         101.00       439.85
HS scan finished at 03:00:00
end
