************************************************************
  HS Scan of (1) Internal mercury lamp
************************************************************
Integration time is 0.2294 seconds per sample
dh120418Delft 51.9969-4.3863 2.535944pr1000
************************************************************
Dead Time -------------------------  2.7E-08 
Number of Cycles Used -------------  4 
Starting Wavelength (Angstroms) ---  2950 
Final Wavelength (Angstoms) -------  2984 
Wavelength Increment (Angstroms) --  .25 
Filter Wheel #1 Position ---------- (1) Ground quartz diffuser (ND=2.32)
Filter Wheel #2 Position ---------- (1) Neutral Density 0.494



************************************************************
HS scan start time = 03:29:01
Dark Count =  0 


Time (GMT)  Wavelength (Ang)  Step Number  Raw Counts  Counts/Second

  209.47        2950.00           1229         132.00       575.42
  209.57        2950.25           1232         123.00       536.19
  209.60        2950.50           1236         127.00       553.63
  209.63        2950.75           1239         137.00       597.22
  209.66        2951.00           1242         130.00       566.70
  209.69        2951.25           1246         129.00       562.35
  209.72        2951.50           1249         123.00       536.19
  209.75        2951.75           1252         130.00       566.70
  209.78        2952.00           1256         129.00       562.35
  209.81        2952.25           1259         122.00       531.83
  209.84        2952.50           1262         133.00       579.78
  209.87        2952.75           1266         118.00       514.39
  209.90        2953.00           1269         129.00       562.35
  209.93        2953.25           1272         126.00       549.27
  209.96        2953.50           1276         126.00       549.27
  209.99        2953.75           1279         124.00       540.55
  210.02        2954.00           1282         130.00       566.70
  210.05        2954.25           1286         124.00       540.55
  210.08        2954.50           1289         128.00       557.99
  210.11        2954.75           1292         118.00       514.39
  210.14        2955.00           1296         131.00       571.06
  210.17        2955.25           1299         120.00       523.11
  210.20        2955.50           1302         118.00       514.39
  210.23        2955.75           1306         132.00       575.42
  210.26        2956.00           1309         117.00       510.03
  210.29        2956.25           1312         119.00       518.75
  210.32        2956.50           1316         121.00       527.47
  210.35        2956.75           1319         130.00       566.70
  210.38        2957.00           1322         121.00       527.47
  210.41        2957.25           1326         124.00       540.55
  210.44        2957.50           1329         116.00       505.67
  210.47        2957.75           1332         125.00       544.91
  210.50        2958.00           1336         116.00       505.67
  210.53        2958.25           1339         119.00       518.75
  210.56        2958.50           1342         125.00       544.91
  210.59        2958.75           1345         122.00       531.83
  210.62        2959.00           1349         118.00       514.39
  210.65        2959.25           1352         121.00       527.47
  210.68        2959.50           1355         120.00       523.11
  210.71        2959.75           1359         123.00       536.19
  210.74        2960.00           1362         119.00       518.75
  210.77        2960.25           1365         121.00       527.47
  210.80        2960.50           1369         119.00       518.75
  210.83        2960.75           1372         136.00       592.86
  210.86        2961.00           1375         137.00       597.22
  210.89        2961.25           1379         156.00       680.05
  210.92        2961.50           1382         205.00       893.66
  210.95        2961.75           1385         568.00      2476.19
  210.98        2962.00           1389        2243.00      9780.26
  211.01        2962.25           1392        4189.00     18269.69
  211.04        2962.50           1395        6437.00     28081.44
  211.07        2962.75           1399        9799.00     42765.14
  211.10        2963.00           1402       12086.00     52760.37
  211.13        2963.25           1405       14346.00     62642.92
  211.16        2963.50           1409       17870.00     78063.23
  211.18        2963.75           1412       20393.00     89111.27
  211.22        2964.00           1415       23133.00    101117.00
  211.24        2964.25           1419       26275.00    114893.80
  211.28        2964.50           1422       28672.00    125410.90
  211.31        2964.75           1425       31289.00    136900.00
  211.34        2965.00           1429       34582.00    151367.20
  211.37        2965.25           1432       37595.00    164614.10
  211.39        2965.50           1435       39909.00    174794.20
  211.43        2965.75           1439       42586.00    186578.40
  211.45        2966.00           1442       44683.00    195814.60
  211.49        2966.25           1445       47434.00    207938.40
  211.51        2966.50           1449       50535.00    221614.20
  211.55        2966.75           1452       51955.00    227879.90
  211.57        2967.00           1455       52558.00    230541.30
  211.61        2967.25           1459       52669.00    231031.20
  211.63        2967.50           1462       52561.00    230554.60
  211.66        2967.75           1465       52307.00    229433.50
  211.69        2968.00           1469       51391.00    225391.00
  211.72        2968.25           1472       49785.00    218305.70
  211.75        2968.50           1475       47778.00    209454.90
  211.78        2968.75           1479       45552.00    199643.50
  211.82        2969.00           1482       43104.00    188859.40
  211.84        2969.25           1485       40907.00    179186.60
  211.88        2969.50           1489       37086.00    162375.60
  211.91        2969.75           1492       34830.00    152457.10
  211.94        2970.00           1495       32584.00    142588.00
  211.96        2970.25           1499       28995.00    126828.50
  211.99        2970.50           1502       26922.00    117732.00
  212.02        2970.75           1505       24133.00    105500.60
  212.05        2971.00           1509       20815.00     90959.82
  212.09        2971.25           1512       18512.00     80873.88
  212.11        2971.50           1515       16345.00     71388.56
  212.15        2971.75           1519       13569.00     59244.65
  212.17        2972.00           1522       11310.00     49368.30
  212.20        2972.25           1525        8643.00     37714.93
  212.23        2972.50           1529        5385.00     23489.18
  212.26        2972.75           1532        2990.00     13038.59
  212.29        2973.00           1535        1423.00      6204.18
  212.32        2973.25           1539         478.00      2083.81
  212.35        2973.50           1542         209.00       911.09
  212.38        2973.75           1546         154.00       671.33
  212.41        2974.00           1549         146.00       636.45
  212.44        2974.25           1552         135.00       588.50
  212.47        2974.50           1556         134.00       584.14
  212.50        2974.75           1559         113.00       492.60
  212.53        2975.00           1562         132.00       575.42
  212.56        2975.25           1566         129.00       562.35
  212.59        2975.50           1569         112.00       488.24
  212.62        2975.75           1572         123.00       536.19
  212.65        2976.00           1576         123.00       536.19
  212.68        2976.25           1579         111.00       483.88
  212.71        2976.50           1582         123.00       536.19
  212.74        2976.75           1586         111.00       483.88
  212.77        2977.00           1589         110.00       479.52
  212.80        2977.25           1592         110.00       479.52
  212.83        2977.50           1596         110.00       479.52
  212.86        2977.75           1599         104.00       453.36
  212.89        2978.00           1602         110.00       479.52
  212.92        2978.25           1606         109.00       475.16
  212.95        2978.50           1609         118.00       514.39
  212.98        2978.75           1612         116.00       505.67
  213.01        2979.00           1616         120.00       523.11
  213.04        2979.25           1619         113.00       492.60
  213.07        2979.50           1622         123.00       536.19
  213.10        2979.75           1626         115.00       501.31
  213.13        2980.00           1629         112.00       488.24
  213.16        2980.25           1632         110.00       479.52
  213.19        2980.50           1636         106.00       462.08
  213.22        2980.75           1639         119.00       518.75
  213.25        2981.00           1642         112.00       488.24
  213.28        2981.25           1646         113.00       492.60
  213.31        2981.50           1649         109.00       475.16
  213.34        2981.75           1653          99.00       431.57
  213.37        2982.00           1656         110.00       479.52
  213.40        2982.25           1659         107.00       466.44
  213.43        2982.50           1663         111.00       483.88
  213.46        2982.75           1666         114.00       496.96
  213.49        2983.00           1669         108.00       470.80
  213.52        2983.25           1673         109.00       475.16
  213.55        2983.50           1676         106.00       462.08
  213.58        2983.75           1679         106.00       462.08
  213.61        2984.00           1683          98.00       427.21
HS scan finished at 03:33:55
end
************************************************************
  HS Scan of (1) Internal mercury lamp
************************************************************
Integration time is 0.2294 seconds per sample
dh120418Delft 51.9969-4.3863 2.750537pr1000
************************************************************
Dead Time -------------------------  2.7E-08 
Number of Cycles Used -------------  4 
Starting Wavelength (Angstroms) ---  2950 
Final Wavelength (Angstoms) -------  2984 
Wavelength Increment (Angstroms) --  .25 
Filter Wheel #1 Position ---------- (1) Ground quartz diffuser (ND=2.32)
Filter Wheel #2 Position ---------- (1) Neutral Density 0.494



************************************************************
HS scan start time = 19:38:08
Dark Count =  .1 


Time (GMT)  Wavelength (Ang)  Step Number  Raw Counts  Counts/Second

 1178.59        2950.00           1229         128.00       557.55
 1178.69        2950.25           1232         126.00       548.83
 1178.72        2950.50           1236         118.00       513.96
 1178.75        2950.75           1239         115.00       500.88
 1178.78        2951.00           1242         135.00       588.07
 1178.81        2951.25           1246         123.00       535.75
 1178.84        2951.50           1249         124.00       540.11
 1178.87        2951.75           1252         114.00       496.52
 1178.90        2952.00           1256         126.00       548.83
 1178.93        2952.25           1259         122.00       531.39
 1178.96        2952.50           1262         120.00       522.68
 1178.99        2952.75           1266         129.00       561.91
 1179.02        2953.00           1269         117.00       509.60
 1179.05        2953.25           1272         118.00       513.96
 1179.08        2953.50           1276         120.00       522.68
 1179.11        2953.75           1279         117.00       509.60
 1179.14        2954.00           1282         124.00       540.11
 1179.17        2954.25           1286         115.00       500.88
 1179.20        2954.50           1289         117.00       509.60
 1179.23        2954.75           1292         129.00       561.91
 1179.26        2955.00           1296         109.00       474.72
 1179.29        2955.25           1299         118.00       513.96
 1179.32        2955.50           1302         113.00       492.16
 1179.35        2955.75           1306         125.00       544.47
 1179.38        2956.00           1309         120.00       522.68
 1179.41        2956.25           1312         123.00       535.75
 1179.44        2956.50           1316         114.00       496.52
 1179.47        2956.75           1319         116.00       505.24
 1179.50        2957.00           1322         117.00       509.60
 1179.53        2957.25           1326         123.00       535.75
 1179.56        2957.50           1329         113.00       492.16
 1179.59        2957.75           1332         116.00       505.24
 1179.62        2958.00           1336         120.00       522.68
 1179.65        2958.25           1339         110.00       479.08
 1179.68        2958.50           1342         108.00       470.36
 1179.71        2958.75           1345         119.00       518.32
 1179.74        2959.00           1349         108.00       470.36
 1179.77        2959.25           1352         110.00       479.08
 1179.80        2959.50           1355         114.00       496.52
 1179.83        2959.75           1359         120.00       522.68
 1179.86        2960.00           1362         111.00       483.44
 1179.89        2960.25           1365         123.00       535.75
 1179.92        2960.50           1369         127.00       553.19
 1179.95        2960.75           1372         133.00       579.35
 1179.98        2961.00           1375         141.00       614.22
 1180.01        2961.25           1379         147.00       640.38
 1180.04        2961.50           1382         211.00       919.38
 1180.07        2961.75           1385         749.00      3264.89
 1180.10        2962.00           1389        2764.00     12052.31
 1180.13        2962.25           1392        4992.00     21773.48
 1180.16        2962.50           1395        7223.00     31512.85
 1180.19        2962.75           1399       10309.00     44993.17
 1180.22        2963.00           1402       13003.00     56769.17
 1180.25        2963.25           1405       15774.00     68889.57
 1180.28        2963.50           1409       19907.00     86982.16
 1180.31        2963.75           1412       22859.00     99915.66
 1180.34        2964.00           1415       25155.00    109981.30
 1180.37        2964.25           1419       28478.00    124559.00
 1180.40        2964.50           1422       31333.00    137092.80
 1180.43        2964.75           1425       34191.00    149648.30
 1180.46        2965.00           1429       37816.00    165585.60
 1180.49        2965.25           1432       40378.00    176857.80
 1180.52        2965.50           1435       42325.00    185428.60
 1180.55        2965.75           1439       46186.00    202436.90
 1180.58        2966.00           1442       48901.00    214406.30
 1180.61        2966.25           1445       51694.00    226727.70
 1180.64        2966.50           1449       54680.00    239909.50
 1180.67        2966.75           1452       56255.00    246866.20
 1180.70        2967.00           1455       56813.00    249331.50
 1180.73        2967.25           1459       56437.00    247670.30
 1180.76        2967.50           1462       56678.00    248735.10
 1180.79        2967.75           1465       56511.00    247997.20
 1180.82        2968.00           1469       55044.00    241517.10
 1180.85        2968.25           1472       53931.00    236602.10
 1180.88        2968.50           1475       51552.00    226101.00
 1180.91        2968.75           1479       48241.00    211495.90
 1180.94        2969.00           1482       45443.00    199162.70
 1180.97        2969.25           1485       43029.00    188528.70
 1181.00        2969.50           1489       39632.00    173574.90
 1181.03        2969.75           1492       36926.00    161671.50
 1181.06        2970.00           1495       34527.00    151125.00
 1181.09        2970.25           1499       31192.00    136473.60
 1181.12        2970.50           1502       28214.00    123400.40
 1181.15        2970.75           1505       25561.00    111761.80
 1181.18        2971.00           1509       22552.00     98570.19
 1181.21        2971.25           1512       19978.00     87293.12
 1181.24        2971.50           1515       17670.00     77187.29
 1181.27        2971.75           1519       14215.00     62069.50
 1181.30        2972.00           1522       11251.00     49109.98
 1181.33        2972.25           1525        8717.00     38037.74
 1181.36        2972.50           1529        5347.00     23322.88
 1181.39        2972.75           1532        2929.00     12772.06
 1181.42        2973.00           1535        1355.00      5907.22
 1181.45        2973.25           1539         412.00      1795.64
 1181.48        2973.50           1542         193.00       840.91
 1181.51        2973.75           1546         164.00       714.49
 1181.54        2974.00           1549         151.00       657.81
 1181.57        2974.25           1552         137.00       596.78
 1181.60        2974.50           1556         122.00       531.39
 1181.63        2974.75           1559         121.00       527.03
 1181.66        2975.00           1562         105.00       457.29
 1181.69        2975.25           1566         122.00       531.39
 1181.72        2975.50           1569         107.00       466.00
 1181.75        2975.75           1572         110.00       479.08
 1181.78        2976.00           1576         110.00       479.08
 1181.81        2976.25           1579         109.00       474.72
 1181.84        2976.50           1582          99.00       431.13
 1181.87        2976.75           1586         105.00       457.29
 1181.90        2977.00           1589          98.00       426.77
 1181.93        2977.25           1592         103.00       448.57
 1181.96        2977.50           1596         101.00       439.85
 1181.98        2977.75           1599         104.00       452.93
 1182.01        2978.00           1602         107.00       466.00
 1182.04        2978.25           1606         106.00       461.64
 1182.08        2978.50           1609         103.00       448.57
 1182.10        2978.75           1612         109.00       474.72
 1182.14        2979.00           1616         114.00       496.52
 1182.17        2979.25           1619         105.00       457.29
 1182.20        2979.50           1622         111.00       483.44
 1182.23        2979.75           1626         105.00       457.29
 1182.25        2980.00           1629          97.00       422.41
 1182.28        2980.25           1632          97.00       422.41
 1182.31        2980.50           1636         107.00       466.00
 1182.34        2980.75           1639         102.00       444.21
 1182.37        2981.00           1642         100.00       435.49
 1182.40        2981.25           1646         113.00       492.16
 1182.43        2981.50           1649         104.00       452.93
 1182.46        2981.75           1653         107.00       466.00
 1182.49        2982.00           1656         106.00       461.64
 1182.52        2982.25           1659         104.00       452.93
 1182.55        2982.50           1663         108.00       470.36
 1182.58        2982.75           1666          97.00       422.41
 1182.61        2983.00           1669         106.00       461.64
 1182.64        2983.25           1673          97.00       422.41
 1182.67        2983.50           1676          86.00       374.46
 1182.70        2983.75           1679          91.00       396.26
 1182.73        2984.00           1683         113.00       492.16
HS scan finished at 19:43:02
end
