************************************************************
  HS Scan of (1) Internal mercury lamp
************************************************************
Integration time is 0.2294 seconds per sample
dh190417DelftKZ 51.997-4.386 2.214056pr1000
************************************************************
Dead Time -------------------------  3E-08 
Number of Cycles Used -------------  4 
Starting Wavelength (Angstroms) ---  2950 
Final Wavelength (Angstoms) -------  2984 
Wavelength Increment (Angstroms) --  .25 
Filter Wheel #1 Position ---------- (1) Ground quartz diffuser (ND=2.32)
Filter Wheel #2 Position ---------- (1) Neutral Density 0.494



************************************************************
HS scan start time = 02:48:01
Dark Count =  .1 


Time (GMT)  Wavelength (Ang)  Step Number  Raw Counts  Counts/Second

  168.47        2950.00           1229         130.00       566.27
  168.57        2950.25           1232         126.00       548.83
  168.60        2950.50           1236         137.00       596.78
  168.62        2950.75           1239         129.00       561.91
  168.65        2951.00           1242         126.00       548.83
  168.68        2951.25           1246         133.00       579.35
  168.71        2951.50           1249         121.00       527.04
  168.73        2951.75           1252         128.00       557.55
  168.76        2952.00           1255         119.00       518.32
  168.79        2952.25           1259         125.00       544.47
  168.82        2952.50           1262         126.00       548.83
  168.85        2952.75           1265         129.00       561.91
  168.87        2953.00           1269         129.00       561.91
  168.90        2953.25           1272         120.00       522.68
  168.93        2953.50           1275         123.00       535.75
  168.96        2953.75           1279         120.00       522.68
  168.98        2954.00           1282         122.00       531.39
  169.01        2954.25           1285         124.00       540.11
  169.04        2954.50           1289         116.00       505.24
  169.07        2954.75           1292         127.00       553.19
  169.10        2955.00           1295         139.00       605.50
  169.12        2955.25           1299         125.00       544.47
  169.15        2955.50           1302         126.00       548.83
  169.18        2955.75           1305         133.00       579.35
  169.21        2956.00           1309         122.00       531.39
  169.24        2956.25           1312         111.00       483.44
  169.27        2956.50           1315         118.00       513.96
  169.30        2956.75           1319         131.00       570.63
  169.33        2957.00           1322         116.00       505.24
  169.35        2957.25           1325         123.00       535.75
  169.38        2957.50           1329         118.00       513.96
  169.41        2957.75           1332         130.00       566.27
  169.44        2958.00           1335         120.00       522.68
  169.46        2958.25           1339         111.00       483.44
  169.49        2958.50           1342         119.00       518.32
  169.52        2958.75           1345         118.00       513.96
  169.55        2959.00           1349         117.00       509.60
  169.57        2959.25           1352         126.00       548.83
  169.60        2959.50           1355         126.00       548.83
  169.64        2959.75           1359         114.00       496.52
  169.67        2960.00           1362         123.00       535.75
  169.70        2960.25           1365         128.00       557.55
  169.73        2960.50           1369         128.00       557.55
  169.76        2960.75           1372         129.00       561.91
  169.78        2961.00           1375         130.00       566.27
  169.81        2961.25           1379         148.00       644.74
  169.84        2961.50           1382         216.00       941.18
  169.87        2961.75           1385         721.00      3142.84
  169.90        2962.00           1389        2109.00      9195.65
  169.92        2962.25           1392        3729.00     16262.95
  169.95        2962.50           1395        5260.00     22944.73
  169.98        2962.75           1399        7149.00     31192.65
  170.01        2963.00           1402        9012.00     39331.04
  170.04        2963.25           1405       10815.00     47211.11
  170.06        2963.50           1409       13552.00     59180.39
  170.09        2963.75           1412       15478.00     67608.22
  170.12        2964.00           1415       17136.00     74866.75
  170.15        2964.25           1419       19598.00     85650.92
  170.17        2964.50           1422       21312.00     93162.81
  170.20        2964.75           1425       23509.00    102796.50
  170.23        2965.00           1429       25966.00    113576.80
  170.26        2965.25           1432       27688.00    121136.50
  170.29        2965.50           1435       29332.00    128356.90
  170.31        2965.75           1439       32051.00    140305.50
  170.34        2966.00           1442       33960.00    148699.80
  170.37        2966.25           1445       35649.00    156130.20
  170.40        2966.50           1449       37852.00    165826.90
  170.42        2966.75           1452       38446.00    168442.30
  170.45        2967.00           1455       38828.00    170124.60
  170.49        2967.25           1459       38714.00    169622.50
  170.52        2967.50           1462       38819.00    170084.90
  170.55        2967.75           1465       38707.00    169591.70
  170.58        2968.00           1469       37916.00    166108.60
  170.61        2968.25           1472       36642.00    160500.30
  170.63        2968.50           1475       35224.00    154260.20
  170.66        2968.75           1479       32899.00    144033.90
  170.69        2969.00           1482       30925.00    135356.30
  170.72        2969.25           1485       29123.00    127438.80
  170.75        2969.50           1489       26774.00    117123.60
  170.77        2969.75           1492       25159.00    110035.30
  170.80        2970.00           1495       23474.00    102643.00
  170.83        2970.25           1499       21209.00     92711.30
  170.86        2970.50           1502       19507.00     85252.21
  170.89        2970.75           1505       17902.00     78221.27
  170.91        2971.00           1509       15774.00     68903.84
  170.94        2971.25           1512       13692.00     59792.87
  170.97        2971.50           1515       12141.00     53008.82
  171.00        2971.75           1519        9482.00     41384.83
  171.02        2972.00           1522        7620.00     33249.81
  171.05        2972.25           1525        5790.00     25258.45
  171.08        2972.50           1529        3454.00     15063.04
  171.11        2972.75           1532        1969.00      8585.04
  171.13        2973.00           1536         642.00      2798.40
  171.16        2973.25           1539         260.00      1132.99
  171.19        2973.50           1542         165.00       718.85
  171.22        2973.75           1546         135.00       588.07
  171.25        2974.00           1549         127.00       553.19
  171.27        2974.25           1552         123.00       535.75
  171.30        2974.50           1556         128.00       557.55
  171.33        2974.75           1559         121.00       527.04
  171.36        2975.00           1562         110.00       479.08
  171.38        2975.25           1566         120.00       522.68
  171.41        2975.50           1569         109.00       474.72
  171.44        2975.75           1572         104.00       452.93
  171.47        2976.00           1576         120.00       522.68
  171.50        2976.25           1579         104.00       452.93
  171.53        2976.50           1582         111.00       483.44
  171.56        2976.75           1586          98.00       426.77
  171.59        2977.00           1589         102.00       444.21
  171.61        2977.25           1592         110.00       479.08
  171.64        2977.50           1596         102.00       444.21
  171.67        2977.75           1599         104.00       452.93
  171.70        2978.00           1602         103.00       448.57
  171.73        2978.25           1606         101.00       439.85
  171.76        2978.50           1609         112.00       487.80
  171.79        2978.75           1612          99.00       431.13
  171.81        2979.00           1616         104.00       452.93
  171.84        2979.25           1619          98.00       426.77
  171.87        2979.50           1623         100.00       435.49
  171.90        2979.75           1626          96.00       418.05
  171.92        2980.00           1629         111.00       483.44
  171.95        2980.25           1633          99.00       431.13
  171.98        2980.50           1636          99.00       431.13
  172.01        2980.75           1639         102.00       444.21
  172.03        2981.00           1643         109.00       474.72
  172.06        2981.25           1646         104.00       452.93
  172.09        2981.50           1649          99.00       431.13
  172.12        2981.75           1653          97.00       422.41
  172.14        2982.00           1656          94.00       409.33
  172.17        2982.25           1659         103.00       448.57
  172.20        2982.50           1663         101.00       439.85
  172.23        2982.75           1666         108.00       470.36
  172.26        2983.00           1669         101.00       439.85
  172.28        2983.25           1673         100.00       435.49
  172.31        2983.50           1676          98.00       426.77
  172.34        2983.75           1679          93.00       404.97
  172.37        2984.00           1683          98.00       426.77
HS scan finished at 02:52:40
end
