************************************************************
  HS Scan of (1) Internal mercury lamp
************************************************************
Integration time is 0.2294 seconds per sample
dh160417DelftKZ 51.997-4.386 2.428648pr1000
************************************************************
Dead Time -------------------------  3E-08 
Number of Cycles Used -------------  4 
Starting Wavelength (Angstroms) ---  2950 
Final Wavelength (Angstoms) -------  2984 
Wavelength Increment (Angstroms) --  .25 
Filter Wheel #1 Position ---------- (1) Ground quartz diffuser (ND=2.32)
Filter Wheel #2 Position ---------- (1) Neutral Density 0.494



************************************************************
HS scan start time = 02:58:53
Dark Count =  .1 


Time (GMT)  Wavelength (Ang)  Step Number  Raw Counts  Counts/Second

  179.33        2950.00           1229         131.00       570.63
  179.43        2950.25           1232         125.00       544.47
  179.46        2950.50           1236         127.00       553.19
  179.49        2950.75           1239         138.00       601.14
  179.51        2951.00           1242         124.00       540.11
  179.54        2951.25           1246         137.00       596.78
  179.57        2951.50           1249         130.00       566.27
  179.60        2951.75           1252         120.00       522.68
  179.62        2952.00           1255         135.00       588.07
  179.65        2952.25           1259         129.00       561.91
  179.68        2952.50           1262         127.00       553.19
  179.71        2952.75           1265         127.00       553.19
  179.73        2953.00           1269         132.00       574.99
  179.76        2953.25           1272         128.00       557.55
  179.79        2953.50           1275         122.00       531.39
  179.82        2953.75           1279         129.00       561.91
  179.85        2954.00           1282         126.00       548.83
  179.87        2954.25           1285         121.00       527.04
  179.90        2954.50           1289         130.00       566.27
  179.93        2954.75           1292         127.00       553.19
  179.96        2955.00           1295         119.00       518.32
  179.98        2955.25           1299         129.00       561.91
  180.01        2955.50           1302         119.00       518.32
  180.04        2955.75           1305         121.00       527.04
  180.07        2956.00           1309         123.00       535.75
  180.09        2956.25           1312         125.00       544.47
  180.12        2956.50           1315         126.00       548.83
  180.15        2956.75           1319         116.00       505.24
  180.18        2957.00           1322         124.00       540.11
  180.20        2957.25           1325         125.00       544.47
  180.23        2957.50           1329         112.00       487.80
  180.26        2957.75           1332         117.00       509.60
  180.29        2958.00           1335         126.00       548.83
  180.31        2958.25           1339         120.00       522.68
  180.34        2958.50           1342         121.00       527.04
  180.37        2958.75           1345         130.00       566.27
  180.40        2959.00           1349         119.00       518.32
  180.43        2959.25           1352         128.00       557.55
  180.46        2959.50           1355         122.00       531.39
  180.49        2959.75           1359         123.00       535.75
  180.52        2960.00           1362         119.00       518.32
  180.54        2960.25           1365         129.00       561.91
  180.57        2960.50           1369         113.00       492.16
  180.60        2960.75           1372         145.00       631.66
  180.63        2961.00           1375         138.00       601.14
  180.65        2961.25           1379         152.00       662.18
  180.68        2961.50           1382         191.00       832.19
  180.71        2961.75           1385         584.00      2545.53
  180.74        2962.00           1389        2319.00     10111.61
  180.76        2962.25           1392        4143.00     18069.51
  180.79        2962.50           1395        6150.00     26830.22
  180.82        2962.75           1399        9032.00     39418.43
  180.85        2963.00           1402       11486.00     50144.69
  180.88        2963.25           1405       13792.00     60230.36
  180.91        2963.50           1409       16227.00     70886.86
  180.95        2963.75           1412       18613.00     81335.55
  180.97        2964.00           1415       20650.00     90261.09
  181.00        2964.25           1419       23887.00    104454.50
  181.03        2964.50           1422       26452.00    115710.00
  181.06        2964.75           1425       28936.00    126617.40
  181.09        2965.00           1429       31646.00    138525.20
  181.11        2965.25           1432       33881.00    148352.30
  181.14        2965.50           1435       36173.00    158436.10
  181.18        2965.75           1439       39330.00    172335.50
  181.20        2966.00           1442       41542.00    182081.30
  181.23        2966.25           1445       43342.00    190016.00
  181.26        2966.50           1449       45849.00    201073.70
  181.29        2966.75           1452       47080.00    206506.00
  181.31        2967.00           1455       47860.00    209949.00
  181.34        2967.25           1459       47897.00    210112.30
  181.37        2967.50           1462       47854.00    209922.50
  181.40        2967.75           1465       48035.00    210721.60
  181.43        2968.00           1469       47042.00    206338.30
  181.45        2968.25           1472       45626.00    200089.80
  181.48        2968.50           1475       43512.00    190765.60
  181.51        2968.75           1479       40938.00    179419.60
  181.54        2969.00           1482       39116.00    171393.00
  181.56        2969.25           1485       37113.00    162573.40
  181.60        2969.50           1489       33993.00    148845.00
  181.63        2969.75           1492       31818.00    139281.30
  181.66        2970.00           1495       29578.00    129437.60
  181.68        2970.25           1499       26625.00    116469.50
  181.71        2970.50           1502       24748.00    108231.90
  181.74        2970.75           1505       22715.00     99314.21
  181.77        2971.00           1509       19686.00     86036.52
  181.79        2971.25           1512       17290.00     75541.10
  181.83        2971.50           1515       15156.00     66198.91
  181.86        2971.75           1519       12387.00     54084.64
  181.89        2972.00           1522       10117.00     44160.04
  181.91        2972.25           1525        8064.00     35189.27
  181.94        2972.50           1529        5316.00     23189.19
  181.97        2972.75           1532        2908.00     12680.94
  182.00        2973.00           1536         944.00      4115.16
  182.02        2973.25           1539         365.00      1590.75
  182.05        2973.50           1542         193.00       840.91
  182.08        2973.75           1546         149.00       649.10
  182.11        2974.00           1549         137.00       596.78
  182.13        2974.25           1552         126.00       548.83
  182.16        2974.50           1556         122.00       531.39
  182.19        2974.75           1559         120.00       522.68
  182.22        2975.00           1562         117.00       509.60
  182.25        2975.25           1566         114.00       496.52
  182.27        2975.50           1569         113.00       492.16
  182.30        2975.75           1572         120.00       522.68
  182.33        2976.00           1576         110.00       479.08
  182.36        2976.25           1579         110.00       479.08
  182.38        2976.50           1582         108.00       470.36
  182.41        2976.75           1586         104.00       452.93
  182.44        2977.00           1589         117.00       509.60
  182.47        2977.25           1592         106.00       461.65
  182.49        2977.50           1596         100.00       435.49
  182.52        2977.75           1599         108.00       470.36
  182.55        2978.00           1602          99.00       431.13
  182.58        2978.25           1606         121.00       527.04
  182.60        2978.50           1609         114.00       496.52
  182.63        2978.75           1612         112.00       487.80
  182.66        2979.00           1616         104.00       452.93
  182.69        2979.25           1619         107.00       466.00
  182.72        2979.50           1623         112.00       487.80
  182.75        2979.75           1626         106.00       461.65
  182.78        2980.00           1629         103.00       448.57
  182.80        2980.25           1633         117.00       509.60
  182.83        2980.50           1636         105.00       457.29
  182.86        2980.75           1639         113.00       492.16
  182.89        2981.00           1643         113.00       492.16
  182.91        2981.25           1646         101.00       439.85
  182.95        2981.50           1649         107.00       466.00
  182.98        2981.75           1653          95.00       413.69
  183.01        2982.00           1656         105.00       457.29
  183.04        2982.25           1659         110.00       479.08
  183.07        2982.50           1663         105.00       457.29
  183.09        2982.75           1666         104.00       452.93
  183.12        2983.00           1669         103.00       448.57
  183.15        2983.25           1673          97.00       422.41
  183.18        2983.50           1676         108.00       470.36
  183.21        2983.75           1679         102.00       444.21
  183.23        2984.00           1683          98.00       426.77
HS scan finished at 03:03:32
end
