************************************************************
  HS Scan of (1) Internal mercury lamp
************************************************************
Integration time is 0.2294 seconds per sample
dh170418Delft 51.9969-4.3863 2.482296pr1000
************************************************************
Dead Time -------------------------  2.7E-08 
Number of Cycles Used -------------  4 
Starting Wavelength (Angstroms) ---  2950 
Final Wavelength (Angstoms) -------  2984 
Wavelength Increment (Angstroms) --  .25 
Filter Wheel #1 Position ---------- (1) Ground quartz diffuser (ND=2.32)
Filter Wheel #2 Position ---------- (1) Neutral Density 0.494



************************************************************
HS scan start time = 03:11:37
Dark Count =  0 


Time (GMT)  Wavelength (Ang)  Step Number  Raw Counts  Counts/Second

  192.08        2950.00           1229         128.00       557.99
  192.18        2950.25           1232         125.00       544.91
  192.21        2950.50           1236         130.00       566.70
  192.24        2950.75           1239         117.00       510.03
  192.27        2951.00           1242         125.00       544.91
  192.30        2951.25           1246         129.00       562.35
  192.33        2951.50           1249         134.00       584.14
  192.36        2951.75           1252         119.00       518.75
  192.39        2952.00           1256         130.00       566.70
  192.42        2952.25           1259         121.00       527.47
  192.45        2952.50           1262         127.00       553.63
  192.48        2952.75           1266         121.00       527.47
  192.51        2953.00           1269         122.00       531.83
  192.54        2953.25           1272         123.00       536.19
  192.57        2953.50           1276         125.00       544.91
  192.59        2953.75           1279         120.00       523.11
  192.63        2954.00           1282         120.00       523.11
  192.65        2954.25           1286         132.00       575.42
  192.68        2954.50           1289         121.00       527.47
  192.71        2954.75           1292         119.00       518.75
  192.74        2955.00           1296         111.00       483.88
  192.77        2955.25           1299         126.00       549.27
  192.80        2955.50           1302         122.00       531.83
  192.83        2955.75           1306         124.00       540.55
  192.86        2956.00           1309         117.00       510.03
  192.89        2956.25           1312         122.00       531.83
  192.92        2956.50           1316         130.00       566.70
  192.95        2956.75           1319         120.00       523.11
  192.98        2957.00           1322         125.00       544.91
  193.01        2957.25           1326         130.00       566.70
  193.04        2957.50           1329         119.00       518.75
  193.07        2957.75           1332         113.00       492.60
  193.10        2958.00           1336         123.00       536.19
  193.13        2958.25           1339         124.00       540.55
  193.16        2958.50           1342         123.00       536.19
  193.19        2958.75           1345         136.00       592.86
  193.22        2959.00           1349         127.00       553.63
  193.25        2959.25           1352         128.00       557.99
  193.28        2959.50           1355         116.00       505.67
  193.31        2959.75           1359         131.00       571.06
  193.34        2960.00           1362         120.00       523.11
  193.37        2960.25           1365         121.00       527.47
  193.39        2960.50           1369         116.00       505.67
  193.42        2960.75           1372         135.00       588.50
  193.45        2961.00           1375         138.00       601.58
  193.48        2961.25           1379         152.00       662.61
  193.51        2961.50           1382         191.00       832.63
  193.54        2961.75           1385         626.00      2729.06
  193.57        2962.00           1389        2191.00      9553.47
  193.60        2962.25           1392        4023.00     17545.36
  193.63        2962.50           1395        6345.00     27679.79
  193.66        2962.75           1399        9851.00     42992.34
  193.69        2963.00           1402       11990.00     52340.70
  193.72        2963.25           1405       14266.00     62293.01
  193.75        2963.50           1409       17373.00     75887.68
  193.78        2963.75           1412       19848.00     86724.19
  193.81        2964.00           1415       22591.00     98741.54
  193.84        2964.25           1419       25801.00    112814.80
  193.87        2964.50           1422       28180.00    123251.70
  193.90        2964.75           1425       30542.00    133619.80
  193.93        2965.00           1429       34017.00    148884.10
  193.96        2965.25           1432       36345.00    159117.20
  193.99        2965.50           1435       38963.00    170631.70
  194.02        2965.75           1439       41445.00    181554.80
  194.05        2966.00           1442       43774.00    191810.30
  194.08        2966.25           1445       45992.00    201582.40
  194.11        2966.50           1449       49280.00    216078.20
  194.14        2966.75           1452       50403.00    221031.80
  194.17        2967.00           1455       50932.00    223365.70
  194.20        2967.25           1459       50851.00    223008.30
  194.23        2967.50           1462       51331.00    225126.30
  194.26        2967.75           1465       51085.00    224040.80
  194.29        2968.00           1469       49836.00    218530.60
  194.32        2968.25           1472       48176.00    211209.80
  194.35        2968.50           1475       46524.00    203927.10
  194.37        2968.75           1479       44109.00    193285.90
  194.40        2969.00           1482       41843.00    183306.90
  194.43        2969.25           1485       39535.00    173148.50
  194.46        2969.50           1489       36391.00    159319.40
  194.49        2969.75           1492       33505.00    146634.30
  194.52        2970.00           1495       31356.00    137194.30
  194.55        2970.25           1499       28232.00    123479.90
  194.58        2970.50           1502       25696.00    112354.30
  194.61        2970.75           1505       23385.00    102221.60
  194.64        2971.00           1509       19911.00     87000.12
  194.67        2971.25           1512       17808.00     77791.83
  194.70        2971.50           1515       15807.00     69034.40
  194.73        2971.75           1519       12925.00     56428.54
  194.76        2972.00           1522       10876.00     47471.45
  194.79        2972.25           1525        8549.00     37304.34
  194.82        2972.50           1529        5152.00     22472.22
  194.85        2972.75           1532        3054.00     13317.78
  194.88        2973.00           1535        1349.00      5881.49
  194.91        2973.25           1539         419.00      1826.59
  194.94        2973.50           1542         202.00       880.58
  194.97        2973.75           1546         161.00       701.84
  195.00        2974.00           1549         146.00       636.45
  195.03        2974.25           1552         139.00       605.94
  195.06        2974.50           1556         131.00       571.06
  195.09        2974.75           1559         132.00       575.42
  195.12        2975.00           1562         128.00       557.99
  195.15        2975.25           1566         118.00       514.39
  195.18        2975.50           1569         119.00       518.75
  195.20        2975.75           1572         122.00       531.83
  195.23        2976.00           1576         121.00       527.47
  195.26        2976.25           1579         114.00       496.96
  195.29        2976.50           1582         121.00       527.47
  195.32        2976.75           1586         112.00       488.24
  195.35        2977.00           1589         102.00       444.64
  195.38        2977.25           1592         101.00       440.28
  195.41        2977.50           1596         114.00       496.96
  195.44        2977.75           1599         106.00       462.08
  195.47        2978.00           1602         114.00       496.96
  195.50        2978.25           1606         104.00       453.36
  195.53        2978.50           1609         113.00       492.60
  195.56        2978.75           1612         118.00       514.39
  195.59        2979.00           1616         111.00       483.88
  195.62        2979.25           1619         104.00       453.36
  195.65        2979.50           1622         104.00       453.36
  195.68        2979.75           1626         112.00       488.24
  195.71        2980.00           1629         115.00       501.31
  195.74        2980.25           1632         110.00       479.52
  195.77        2980.50           1636         105.00       457.72
  195.80        2980.75           1639         113.00       492.60
  195.83        2981.00           1642         110.00       479.52
  195.86        2981.25           1646         116.00       505.67
  195.88        2981.50           1649         111.00       483.88
  195.91        2981.75           1653         104.00       453.36
  195.94        2982.00           1656         106.00       462.08
  195.97        2982.25           1659          99.00       431.57
  196.00        2982.50           1663         105.00       457.72
  196.03        2982.75           1666         103.00       449.00
  196.06        2983.00           1669         116.00       505.67
  196.09        2983.25           1673         107.00       466.44
  196.12        2983.50           1676         106.00       462.08
  196.15        2983.75           1679         107.00       466.44
  196.18        2984.00           1683         109.00       475.16
HS scan finished at 03:16:29
end
