************************************************************
  HS Scan of (1) Internal mercury lamp
************************************************************
Integration time is 0.2294 seconds per sample
dh140417DelftKZ 51.997-4.386 2.321352pr1000
************************************************************
Dead Time -------------------------  3E-08 
Number of Cycles Used -------------  4 
Starting Wavelength (Angstroms) ---  2950 
Final Wavelength (Angstoms) -------  2984 
Wavelength Increment (Angstroms) --  .25 
Filter Wheel #1 Position ---------- (1) Ground quartz diffuser (ND=2.32)
Filter Wheel #2 Position ---------- (1) Neutral Density 0.494



************************************************************
HS scan start time = 00:30:39
Dark Count =  0 


Time (GMT)  Wavelength (Ang)  Step Number  Raw Counts  Counts/Second

   31.12        2950.00           1229         138.00       601.58
   31.22        2950.25           1232         135.00       588.50
   31.25        2950.50           1236         129.00       562.35
   31.27        2950.75           1239         130.00       566.71
   31.30        2951.00           1242         130.00       566.71
   31.33        2951.25           1246         124.00       540.55
   31.36        2951.50           1249         130.00       566.71
   31.38        2951.75           1252         125.00       544.91
   31.41        2952.00           1255         136.00       592.86
   31.44        2952.25           1259         134.00       584.14
   31.47        2952.50           1262         136.00       592.86
   31.49        2952.75           1265         131.00       571.06
   31.52        2953.00           1269         126.00       549.27
   31.55        2953.25           1272         132.00       575.42
   31.58        2953.50           1275         134.00       584.14
   31.61        2953.75           1279         137.00       597.22
   31.63        2954.00           1282         126.00       549.27
   31.66        2954.25           1285         128.00       557.99
   31.69        2954.50           1289         133.00       579.78
   31.72        2954.75           1292         131.00       571.06
   31.74        2955.00           1295         131.00       571.06
   31.77        2955.25           1299         132.00       575.42
   31.80        2955.50           1302         123.00       536.19
   31.83        2955.75           1305         124.00       540.55
   31.85        2956.00           1309         144.00       627.74
   31.88        2956.25           1312         128.00       557.99
   31.91        2956.50           1315         136.00       592.86
   31.94        2956.75           1319         147.00       640.81
   31.97        2957.00           1322         117.00       510.03
   31.99        2957.25           1325         118.00       514.39
   32.02        2957.50           1329         123.00       536.19
   32.05        2957.75           1332         129.00       562.35
   32.08        2958.00           1335         125.00       544.91
   32.10        2958.25           1339         124.00       540.55
   32.13        2958.50           1342         124.00       540.55
   32.16        2958.75           1345         114.00       496.96
   32.19        2959.00           1349         123.00       536.19
   32.21        2959.25           1352         130.00       566.71
   32.24        2959.50           1355         127.00       553.63
   32.27        2959.75           1359         116.00       505.67
   32.30        2960.00           1362         128.00       557.99
   32.32        2960.25           1365         114.00       496.96
   32.35        2960.50           1369         141.00       614.66
   32.38        2960.75           1372         141.00       614.66
   32.41        2961.00           1375         141.00       614.66
   32.44        2961.25           1379         143.00       623.38
   32.46        2961.50           1382         231.00      1007.01
   32.49        2961.75           1385         723.00      3152.00
   32.52        2962.00           1389        2381.00     10382.48
   32.55        2962.25           1392        4453.00     19422.82
   32.57        2962.50           1395        6535.00     28511.74
   32.60        2962.75           1399        9374.00     40913.31
   32.63        2963.00           1402       11637.00     50805.37
   32.66        2963.25           1405       13979.00     61048.94
   32.68        2963.50           1409       17105.00     74731.45
   32.71        2963.75           1412       19294.00     84319.39
   32.74        2964.00           1415       21331.00     93246.54
   32.77        2964.25           1419       24449.00    106920.50
   32.80        2964.50           1422       26575.00    116250.40
   32.82        2964.75           1425       29074.00    127224.00
   32.85        2965.00           1429       32275.00    141290.70
   32.88        2965.25           1432       34070.00    149184.10
   32.91        2965.50           1435       36311.00    159043.90
   32.93        2965.75           1439       39300.00    172203.80
   32.96        2966.00           1442       41305.00    181037.20
   32.99        2966.25           1445       43848.00    192247.70
   33.02        2966.50           1449       46052.00    201969.90
   33.04        2966.75           1452       47039.00    206325.50
   33.07        2967.00           1455       47658.00    209057.70
   33.10        2967.25           1459       47827.00    209803.70
   33.13        2967.50           1462       47819.00    209768.40
   33.16        2967.75           1465       47635.00    208956.20
   33.18        2968.00           1469       46484.00    203876.10
   33.21        2968.25           1472       45012.00    197381.60
   33.24        2968.50           1475       43304.00    189848.90
   33.27        2968.75           1479       40349.00    176824.80
   33.30        2969.00           1482       38094.00    166892.80
   33.32        2969.25           1485       36132.00    158256.10
   33.35        2969.50           1489       33300.00    145797.60
   33.38        2969.75           1492       31452.00    137672.90
   33.41        2970.00           1495       29351.00    128440.80
   33.43        2970.25           1499       26429.00    115609.50
   33.46        2970.50           1502       23901.00    104516.40
   33.49        2970.75           1505       21895.00     95719.11
   33.52        2971.00           1509       19149.00     83684.11
   33.55        2971.25           1512       16788.00     73343.43
   33.57        2971.50           1515       14593.00     63735.53
   33.60        2971.75           1519       11457.00     50018.33
   33.63        2972.00           1522        9207.00     40183.55
   33.66        2972.25           1525        7137.00     31140.67
   33.68        2972.50           1529        4597.00     20051.29
   33.71        2972.75           1532        2841.00     12389.09
   33.74        2973.00           1536         955.00      4163.55
   33.77        2973.25           1539         317.00      1381.92
   33.80        2973.50           1542         186.00       810.83
   33.82        2973.75           1546         143.00       623.38
   33.85        2974.00           1549         135.00       588.50
   33.89        2974.25           1552         145.00       632.10
   33.91        2974.50           1556         124.00       540.55
   33.94        2974.75           1559         128.00       557.99
   33.97        2975.00           1562         120.00       523.11
   34.00        2975.25           1566         117.00       510.03
   34.03        2975.50           1569         118.00       514.39
   34.05        2975.75           1572         114.00       496.96
   34.08        2976.00           1576         112.00       488.24
   34.11        2976.25           1579         110.00       479.52
   34.14        2976.50           1582         107.00       466.44
   34.16        2976.75           1586         125.00       544.91
   34.19        2977.00           1589         105.00       457.72
   34.22        2977.25           1592         118.00       514.39
   34.25        2977.50           1596         103.00       449.00
   34.27        2977.75           1599         114.00       496.96
   34.30        2978.00           1602         106.00       462.08
   34.33        2978.25           1606         114.00       496.96
   34.37        2978.50           1609         109.00       475.16
   34.39        2978.75           1612         106.00       462.08
   34.42        2979.00           1616         106.00       462.08
   34.45        2979.25           1619         110.00       479.52
   34.48        2979.50           1623         111.00       483.88
   34.50        2979.75           1626         107.00       466.44
   34.53        2980.00           1629         109.00       475.16
   34.56        2980.25           1633         111.00       483.88
   34.59        2980.50           1636         104.00       453.36
   34.61        2980.75           1639         112.00       488.24
   34.64        2981.00           1643         104.00       453.36
   34.67        2981.25           1646         107.00       466.44
   34.70        2981.50           1649          98.00       427.21
   34.73        2981.75           1653         106.00       462.08
   34.75        2982.00           1656         110.00       479.52
   34.78        2982.25           1659         102.00       444.64
   34.81        2982.50           1663         101.00       440.28
   34.84        2982.75           1666         100.00       435.93
   34.86        2983.00           1669         101.00       440.28
   34.89        2983.25           1673         108.00       470.80
   34.92        2983.50           1676         106.00       462.08
   34.95        2983.75           1679          99.00       431.57
   34.97        2984.00           1683          98.00       427.21
HS scan finished at 00:35:16
end
************************************************************
  HS Scan of (1) Internal mercury lamp
************************************************************
Integration time is 0.2294 seconds per sample
dh140417DelftKZ 51.997-4.386 2.428648pr1000
************************************************************
Dead Time -------------------------  3E-08 
Number of Cycles Used -------------  4 
Starting Wavelength (Angstroms) ---  2950 
Final Wavelength (Angstoms) -------  2984 
Wavelength Increment (Angstroms) --  .25 
Filter Wheel #1 Position ---------- (1) Ground quartz diffuser (ND=2.32)
Filter Wheel #2 Position ---------- (1) Neutral Density 0.494



************************************************************
HS scan start time = 03:05:50
Dark Count =  .1 


Time (GMT)  Wavelength (Ang)  Step Number  Raw Counts  Counts/Second

  186.29        2950.00           1229         127.00       553.19
  186.38        2950.25           1232         124.00       540.11
  186.41        2950.50           1236         129.00       561.91
  186.45        2950.75           1239         127.00       553.19
  186.48        2951.00           1242         141.00       614.22
  186.51        2951.25           1246         131.00       570.63
  186.54        2951.50           1249         127.00       553.19
  186.56        2951.75           1252         136.00       592.43
  186.59        2952.00           1255         140.00       609.86
  186.62        2952.25           1259         128.00       557.55
  186.65        2952.50           1262         132.00       574.99
  186.68        2952.75           1265         132.00       574.99
  186.70        2953.00           1269         130.00       566.27
  186.73        2953.25           1272         128.00       557.55
  186.76        2953.50           1275         129.00       561.91
  186.79        2953.75           1279         127.00       553.19
  186.82        2954.00           1282         140.00       609.86
  186.85        2954.25           1285         126.00       548.83
  186.88        2954.50           1289         130.00       566.27
  186.91        2954.75           1292         127.00       553.19
  186.93        2955.00           1295         126.00       548.83
  186.96        2955.25           1299         120.00       522.68
  186.99        2955.50           1302         120.00       522.68
  187.02        2955.75           1305         124.00       540.11
  187.04        2956.00           1309         130.00       566.27
  187.08        2956.25           1312         124.00       540.11
  187.11        2956.50           1315         127.00       553.19
  187.14        2956.75           1319         112.00       487.80
  187.17        2957.00           1322         137.00       596.78
  187.20        2957.25           1325         130.00       566.27
  187.22        2957.50           1329         131.00       570.63
  187.25        2957.75           1332         123.00       535.75
  187.29        2958.00           1335         120.00       522.68
  187.32        2958.25           1339         122.00       531.39
  187.35        2958.50           1342         126.00       548.83
  187.38        2958.75           1345         127.00       553.19
  187.41        2959.00           1349         129.00       561.91
  187.43        2959.25           1352         128.00       557.55
  187.46        2959.50           1355         126.00       548.83
  187.49        2959.75           1359         123.00       535.75
  187.52        2960.00           1362         130.00       566.27
  187.54        2960.25           1365         131.00       570.63
  187.57        2960.50           1369         135.00       588.07
  187.60        2960.75           1372         127.00       553.19
  187.63        2961.00           1375         154.00       670.89
  187.66        2961.25           1379         146.00       636.02
  187.68        2961.50           1382         209.00       910.66
  187.71        2961.75           1385         626.00      2728.65
  187.74        2962.00           1389        2205.00      9614.37
  187.77        2962.25           1392        4096.00     17864.41
  187.80        2962.50           1395        6367.00     27777.72
  187.82        2962.75           1399        9253.00     40384.12
  187.85        2963.00           1402       11374.00     49655.00
  187.88        2963.25           1405       13280.00     57990.51
  187.91        2963.50           1409       16068.00     70190.81
  187.93        2963.75           1412       18624.00     81383.74
  187.96        2964.00           1415       21188.00     92619.24
  187.99        2964.25           1419       24635.00    107736.10
  188.02        2964.50           1422       26902.00    117685.50
  188.04        2964.75           1425       29338.00    128383.20
  188.07        2965.00           1429       32493.00    142248.70
  188.10        2965.25           1432       34958.00    153089.90
  188.13        2965.50           1435       37431.00    163973.40
  188.16        2965.75           1439       40280.00    176520.40
  188.18        2966.00           1442       42105.00    184562.70
  188.21        2966.25           1445       44444.00    194875.70
  188.24        2966.50           1449       47268.00    207335.80
  188.27        2966.75           1452       48379.00    212240.30
  188.31        2967.00           1455       49022.00    215079.50
  188.35        2967.25           1459       49227.00    215984.80
  188.38        2967.50           1462       49276.00    216201.20
  188.42        2967.75           1465       49029.00    215110.40
  188.46        2968.00           1469       48081.00    210924.60
  188.50        2968.25           1472       46743.00    205018.70
  188.53        2968.50           1475       44501.00    195127.10
  188.57        2968.75           1479       42427.00    185982.10
  188.61        2969.00           1482       40299.00    176604.10
  188.65        2969.25           1485       37843.00    165787.20
  188.69        2969.50           1489       34514.00    151136.60
  188.72        2969.75           1492       32101.00    140525.40
  188.74        2970.00           1495       30181.00    132086.90
  188.77        2970.25           1499       27297.00    119419.70
  188.80        2970.50           1502       25114.00    109837.80
  188.83        2970.75           1505       23101.00    101007.00
  188.86        2971.00           1509       19874.00     86860.31
  188.88        2971.25           1512       17446.00     76224.24
  188.91        2971.50           1515       15512.00     67757.04
  188.94        2971.75           1519       12753.00     55685.37
  188.97        2972.00           1522       10563.00     46109.51
  189.01        2972.25           1525        8052.00     35136.85
  189.04        2972.50           1529        4957.00     21622.13
  189.07        2972.75           1532        2720.00     11860.80
  189.10        2973.00           1536         828.00      3609.37
  189.12        2973.25           1539         352.00      1534.07
  189.15        2973.50           1542         197.00       858.35
  189.18        2973.75           1546         140.00       609.86
  189.21        2974.00           1549         138.00       601.14
  189.23        2974.25           1552         136.00       592.43
  189.27        2974.50           1556         135.00       588.07
  189.30        2974.75           1559         115.00       500.88
  189.33        2975.00           1562         112.00       487.80
  189.35        2975.25           1566         108.00       470.36
  189.38        2975.50           1569         109.00       474.72
  189.41        2975.75           1572         118.00       513.96
  189.44        2976.00           1576         115.00       500.88
  189.46        2976.25           1579         110.00       479.08
  189.49        2976.50           1582         114.00       496.52
  189.52        2976.75           1586         112.00       487.80
  189.55        2977.00           1589         112.00       487.80
  189.58        2977.25           1592         105.00       457.29
  189.60        2977.50           1596         115.00       500.88
  189.63        2977.75           1599         107.00       466.00
  189.66        2978.00           1602         106.00       461.65
  189.69        2978.25           1606         113.00       492.16
  189.71        2978.50           1609         104.00       452.93
  189.74        2978.75           1612         107.00       466.00
  189.77        2979.00           1616         110.00       479.08
  189.80        2979.25           1619         105.00       457.29
  189.82        2979.50           1623         105.00       457.29
  189.85        2979.75           1626         104.00       452.93
  189.88        2980.00           1629         104.00       452.93
  189.91        2980.25           1633         112.00       487.80
  189.94        2980.50           1636         117.00       509.60
  189.96        2980.75           1639         110.00       479.08
  189.99        2981.00           1643          96.00       418.05
  190.02        2981.25           1646         107.00       466.00
  190.05        2981.50           1649         108.00       470.36
  190.08        2981.75           1653          98.00       426.77
  190.11        2982.00           1656         125.00       544.47
  190.13        2982.25           1659          93.00       404.97
  190.16        2982.50           1663         100.00       435.49
  190.19        2982.75           1666         110.00       479.08
  190.22        2983.00           1669         108.00       470.36
  190.24        2983.25           1673         104.00       452.93
  190.27        2983.50           1676         102.00       444.21
  190.30        2983.75           1679         113.00       492.16
  190.33        2984.00           1683          92.00       400.62
HS scan finished at 03:10:37
end
