************************************************************
  HS Scan of (1) Internal mercury lamp
************************************************************
Integration time is 0.2294 seconds per sample
dh100417DelftKZ 51.997-4.386 2.589593pr1000
************************************************************
Dead Time -------------------------  3E-08 
Number of Cycles Used -------------  4 
Starting Wavelength (Angstroms) ---  2950 
Final Wavelength (Angstoms) -------  2984 
Wavelength Increment (Angstroms) --  .25 
Filter Wheel #1 Position ---------- (1) Ground quartz diffuser (ND=2.32)
Filter Wheel #2 Position ---------- (1) Neutral Density 0.494



************************************************************
HS scan start time = 03:19:11
Dark Count =  .1 


Time (GMT)  Wavelength (Ang)  Step Number  Raw Counts  Counts/Second

  199.64        2950.00           1229         139.00       605.50
  199.74        2950.25           1232         130.00       566.27
  199.76        2950.50           1236         122.00       531.39
  199.79        2950.75           1239         126.00       548.83
  199.82        2951.00           1242         129.00       561.91
  199.85        2951.25           1246         128.00       557.55
  199.87        2951.50           1249         135.00       588.07
  199.90        2951.75           1252         125.00       544.47
  199.93        2952.00           1255         141.00       614.22
  199.96        2952.25           1259         126.00       548.83
  199.99        2952.50           1262         131.00       570.63
  200.02        2952.75           1265         124.00       540.11
  200.05        2953.00           1269         126.00       548.83
  200.08        2953.25           1272         127.00       553.19
  200.11        2953.50           1275         128.00       557.55
  200.13        2953.75           1279         116.00       505.24
  200.16        2954.00           1282         131.00       570.63
  200.19        2954.25           1285         118.00       513.96
  200.22        2954.50           1289         126.00       548.83
  200.25        2954.75           1292         128.00       557.55
  200.27        2955.00           1295         130.00       566.27
  200.30        2955.25           1299         126.00       548.83
  200.33        2955.50           1302         128.00       557.55
  200.36        2955.75           1305         125.00       544.47
  200.38        2956.00           1309         122.00       531.39
  200.42        2956.25           1312         128.00       557.55
  200.45        2956.50           1315         121.00       527.04
  200.48        2956.75           1319         121.00       527.04
  200.51        2957.00           1322         128.00       557.55
  200.53        2957.25           1325         131.00       570.63
  200.56        2957.50           1329         128.00       557.55
  200.59        2957.75           1332         132.00       574.99
  200.62        2958.00           1335         118.00       513.96
  200.64        2958.25           1339         122.00       531.39
  200.67        2958.50           1342         127.00       553.19
  200.70        2958.75           1345         116.00       505.24
  200.73        2959.00           1349         119.00       518.32
  200.75        2959.25           1352         130.00       566.27
  200.78        2959.50           1355         128.00       557.55
  200.81        2959.75           1359         124.00       540.11
  200.84        2960.00           1362         132.00       574.99
  200.87        2960.25           1365         120.00       522.68
  200.89        2960.50           1369         131.00       570.63
  200.92        2960.75           1372         127.00       553.19
  200.95        2961.00           1375         124.00       540.11
  200.98        2961.25           1379         153.00       666.53
  201.00        2961.50           1382         209.00       910.66
  201.03        2961.75           1385         652.00      2842.00
  201.06        2962.00           1389        2681.00     11690.67
  201.09        2962.25           1392        4669.00     20365.10
  201.11        2962.50           1395        6710.00     29275.49
  201.14        2962.75           1399       10262.00     44793.81
  201.17        2963.00           1402       12890.00     56284.59
  201.20        2963.25           1405       15334.00     66977.96
  201.23        2963.50           1409       18790.00     82110.91
  201.25        2963.75           1412       21544.00     94179.85
  201.28        2964.00           1415       24021.00    105042.40
  201.31        2964.25           1419       26869.00    117540.60
  201.34        2964.50           1422       29356.00    128462.30
  201.36        2964.75           1425       31993.00    140050.60
  201.39        2965.00           1429       35186.00    154093.00
  201.42        2965.25           1432       37994.00    166452.10
  201.45        2965.50           1435       40700.00    178370.90
  201.48        2965.75           1439       43521.00    190805.30
  201.51        2966.00           1442       46072.00    202057.60
  201.54        2966.25           1445       48532.00    212915.80
  201.57        2966.50           1449       51522.00    226122.90
  201.59        2966.75           1452       52647.00    231094.90
  201.62        2967.00           1455       52938.00    232381.20
  201.66        2967.25           1459       53195.00    233517.30
  201.69        2967.50           1462       53098.00    233088.50
  201.71        2967.75           1465       53103.00    233110.60
  201.74        2968.00           1469       52515.00    230511.40
  201.77        2968.25           1472       50835.00    223087.50
  201.80        2968.50           1475       48497.00    212761.30
  201.83        2968.75           1479       45620.00    200063.40
  201.85        2969.00           1482       43254.00    189628.00
  201.88        2969.25           1485       40373.00    176930.10
  201.91        2969.50           1489       37002.00    162084.80
  201.94        2969.75           1492       34887.00    152777.50
  201.97        2970.00           1495       33232.00    145498.10
  202.00        2970.25           1499       30067.00    131586.00
  202.03        2970.50           1502       27638.00    120916.90
  202.05        2970.75           1505       24985.00    109271.70
  202.08        2971.00           1509       21301.00     93114.59
  202.11        2971.25           1512       18798.00     82145.96
  202.14        2971.50           1515       16484.00     72012.00
  202.16        2971.75           1519       13307.00     58108.62
  202.20        2972.00           1522       10861.00     47412.21
  202.23        2972.25           1525        8222.00     35879.49
  202.25        2972.50           1529        4979.00     21718.16
  202.28        2972.75           1532        2907.00     12676.57
  202.31        2973.00           1536        1011.00      4407.30
  202.34        2973.25           1539         424.00      1847.97
  202.37        2973.50           1542         207.00       901.94
  202.39        2973.75           1546         154.00       670.89
  202.42        2974.00           1549         150.00       653.46
  202.45        2974.25           1552         143.00       622.94
  202.48        2974.50           1556         124.00       540.11
  202.50        2974.75           1559         127.00       553.19
  202.53        2975.00           1562         120.00       522.68
  202.56        2975.25           1566         109.00       474.72
  202.59        2975.50           1569         108.00       470.36
  202.61        2975.75           1572         125.00       544.47
  202.64        2976.00           1576         118.00       513.96
  202.67        2976.25           1579         110.00       479.08
  202.70        2976.50           1582         122.00       531.39
  202.72        2976.75           1586         115.00       500.88
  202.75        2977.00           1589         111.00       483.44
  202.78        2977.25           1592         114.00       496.52
  202.81        2977.50           1596         122.00       531.39
  202.83        2977.75           1599         113.00       492.16
  202.86        2978.00           1602         114.00       496.52
  202.89        2978.25           1606         105.00       457.29
  202.92        2978.50           1609         106.00       461.65
  202.95        2978.75           1612         105.00       457.29
  202.97        2979.00           1616         114.00       496.52
  203.00        2979.25           1619         119.00       518.32
  203.03        2979.50           1623         105.00       457.29
  203.06        2979.75           1626         109.00       474.72
  203.08        2980.00           1629          99.00       431.13
  203.11        2980.25           1633         108.00       470.36
  203.14        2980.50           1636         103.00       448.57
  203.17        2980.75           1639         105.00       457.29
  203.20        2981.00           1643         106.00       461.65
  203.22        2981.25           1646         109.00       474.72
  203.25        2981.50           1649         108.00       470.36
  203.28        2981.75           1653          99.00       431.13
  203.31        2982.00           1656          97.00       422.41
  203.33        2982.25           1659          97.00       422.41
  203.36        2982.50           1663         109.00       474.72
  203.39        2982.75           1666         109.00       474.72
  203.42        2983.00           1669         111.00       483.44
  203.46        2983.25           1673         101.00       439.85
  203.48        2983.50           1676         100.00       435.49
  203.51        2983.75           1679         114.00       496.52
  203.54        2984.00           1683          98.00       426.77
HS scan finished at 03:23:50
end
