************************************************************
  HS Scan of (1) Internal mercury lamp
************************************************************
Integration time is 0.2294 seconds per sample
dh240417DelftKZ 51.997-4.386 2.428648pr1000
************************************************************
Dead Time -------------------------  3E-08 
Number of Cycles Used -------------  4 
Starting Wavelength (Angstroms) ---  2950 
Final Wavelength (Angstoms) -------  2984 
Wavelength Increment (Angstroms) --  .25 
Filter Wheel #1 Position ---------- (1) Ground quartz diffuser (ND=2.32)
Filter Wheel #2 Position ---------- (1) Neutral Density 0.494



************************************************************
HS scan start time = 02:28:46
Dark Count =  .1 


Time (GMT)  Wavelength (Ang)  Step Number  Raw Counts  Counts/Second

  149.21        2950.00           1229         134.00       583.71
  149.31        2950.25           1232         141.00       614.22
  149.34        2950.50           1236         126.00       548.83
  149.37        2950.75           1239         143.00       622.94
  149.39        2951.00           1242         130.00       566.27
  149.42        2951.25           1246         125.00       544.47
  149.45        2951.50           1249         129.00       561.91
  149.49        2951.75           1252         124.00       540.11
  149.51        2952.00           1255         130.00       566.27
  149.54        2952.25           1259         125.00       544.47
  149.57        2952.50           1262         133.00       579.35
  149.60        2952.75           1265         136.00       592.43
  149.62        2953.00           1269         132.00       574.99
  149.65        2953.25           1272         125.00       544.47
  149.68        2953.50           1275         134.00       583.71
  149.71        2953.75           1279         123.00       535.75
  149.74        2954.00           1282         122.00       531.39
  149.76        2954.25           1285         121.00       527.04
  149.79        2954.50           1289         121.00       527.04
  149.82        2954.75           1292         128.00       557.55
  149.85        2955.00           1295         132.00       574.99
  149.87        2955.25           1299         128.00       557.55
  149.90        2955.50           1302         120.00       522.68
  149.93        2955.75           1305         127.00       553.19
  149.96        2956.00           1309         138.00       601.14
  149.98        2956.25           1312         116.00       505.24
  150.01        2956.50           1315         123.00       535.75
  150.04        2956.75           1319         130.00       566.27
  150.07        2957.00           1322         118.00       513.96
  150.09        2957.25           1325         135.00       588.07
  150.12        2957.50           1329         128.00       557.55
  150.15        2957.75           1332         117.00       509.60
  150.18        2958.00           1335         124.00       540.11
  150.20        2958.25           1339         127.00       553.19
  150.23        2958.50           1342         130.00       566.27
  150.26        2958.75           1345         126.00       548.83
  150.29        2959.00           1349         117.00       509.60
  150.32        2959.25           1352         126.00       548.83
  150.34        2959.50           1355         130.00       566.27
  150.37        2959.75           1359         133.00       579.35
  150.40        2960.00           1362         125.00       544.47
  150.43        2960.25           1365         122.00       531.39
  150.46        2960.50           1369         113.00       492.16
  150.49        2960.75           1372         134.00       583.71
  150.52        2961.00           1375         129.00       561.91
  150.55        2961.25           1379         143.00       622.94
  150.57        2961.50           1382         282.00      1228.90
  150.61        2961.75           1385         762.00      3321.60
  150.64        2962.00           1389        2197.00      9579.47
  150.66        2962.25           1392        4021.00     17537.12
  150.70        2962.50           1395        6177.00     26948.11
  150.73        2962.75           1399        9017.00     39352.88
  150.76        2963.00           1402       11004.00     48037.36
  150.79        2963.25           1405       12904.00     56345.82
  150.81        2963.50           1409       15922.00     69551.70
  150.84        2963.75           1412       18208.00     79561.52
  150.87        2964.00           1415       20755.00     90721.30
  150.90        2964.25           1419       23780.00    103985.20
  150.93        2964.50           1422       25660.00    112233.90
  150.95        2964.75           1425       27952.00    122295.70
  150.98        2965.00           1429       31235.00    136718.70
  151.01        2965.25           1432       33425.00    146346.90
  151.04        2965.50           1435       35577.00    155813.40
  151.07        2965.75           1439       39101.00    171326.90
  151.09        2966.00           1442       41109.00    180173.10
  151.13        2966.25           1445       43233.00    189535.40
  151.16        2966.50           1449       45305.00    198673.60
  151.19        2966.75           1452       45840.00    201034.00
  151.21        2967.00           1455       46464.00    203787.40
  151.24        2967.25           1459       46366.00    203354.90
  151.27        2967.50           1462       46378.00    203407.90
  151.30        2967.75           1465       46134.00    202331.20
  151.33        2968.00           1469       45070.00    197637.00
  151.35        2968.25           1472       43442.00    190457.00
  151.38        2968.50           1475       41574.00    182222.30
  151.41        2968.75           1479       38946.00    170644.20
  151.44        2969.00           1482       36828.00    161318.90
  151.46        2969.25           1485       34667.00    151809.70
  151.49        2969.50           1489       31689.00    138714.20
  151.52        2969.75           1492       29767.00    130267.90
  151.55        2970.00           1495       28189.00    123336.50
  151.59        2970.25           1499       25552.00    111759.90
  151.62        2970.50           1502       23787.00    104015.90
  151.65        2970.75           1505       21643.00     94613.86
  151.68        2971.00           1509       18426.00     80516.40
  151.71        2971.25           1512       16147.00     70536.65
  151.74        2971.50           1515       13803.00     60278.48
  151.77        2971.75           1519       11298.00     49322.72
  151.79        2972.00           1522        9173.00     40034.54
  151.82        2972.25           1525        7006.00     30568.12
  151.85        2972.50           1529        4193.00     18287.71
  151.88        2972.75           1532        2402.00     10473.65
  151.90        2973.00           1536         914.00      3984.35
  151.94        2973.25           1539         359.00      1564.59
  151.97        2973.50           1542         189.00       823.47
  152.00        2973.75           1546         152.00       662.18
  152.03        2974.00           1549         139.00       605.50
  152.06        2974.25           1552         125.00       544.47
  152.08        2974.50           1556         120.00       522.68
  152.11        2974.75           1559         121.00       527.04
  152.14        2975.00           1562         124.00       540.11
  152.17        2975.25           1566         110.00       479.08
  152.19        2975.50           1569         111.00       483.44
  152.22        2975.75           1572         129.00       561.91
  152.25        2976.00           1576         113.00       492.16
  152.28        2976.25           1579         116.00       505.24
  152.31        2976.50           1582         128.00       557.55
  152.33        2976.75           1586          92.00       400.62
  152.36        2977.00           1589         117.00       509.60
  152.39        2977.25           1592         116.00       505.24
  152.42        2977.50           1596         111.00       483.44
  152.44        2977.75           1599         117.00       509.60
  152.47        2978.00           1602         104.00       452.93
  152.50        2978.25           1606         116.00       505.24
  152.53        2978.50           1609          99.00       431.13
  152.56        2978.75           1612          99.00       431.13
  152.59        2979.00           1616         111.00       483.44
  152.62        2979.25           1619         107.00       466.00
  152.65        2979.50           1623          98.00       426.77
  152.67        2979.75           1626         115.00       500.88
  152.70        2980.00           1629         115.00       500.88
  152.73        2980.25           1633         101.00       439.85
  152.76        2980.50           1636         111.00       483.44
  152.78        2980.75           1639         103.00       448.57
  152.81        2981.00           1643         103.00       448.57
  152.84        2981.25           1646         111.00       483.44
  152.87        2981.50           1649         108.00       470.36
  152.89        2981.75           1653         110.00       479.08
  152.92        2982.00           1656         110.00       479.08
  152.95        2982.25           1659         110.00       479.08
  152.98        2982.50           1663         109.00       474.72
  153.01        2982.75           1666         109.00       474.72
  153.03        2983.00           1669         101.00       439.85
  153.06        2983.25           1673         102.00       444.21
  153.09        2983.50           1676         100.00       435.49
  153.12        2983.75           1679         103.00       448.57
  153.14        2984.00           1683         107.00       466.00
HS scan finished at 02:33:26
end
