************************************************************
  HS Scan of (1) Internal mercury lamp
************************************************************
Integration time is 0.2294 seconds per sample
dh210418Delft 51.9969-4.3863 2.535944pr1000
************************************************************
Dead Time -------------------------  2.7E-08 
Number of Cycles Used -------------  4 
Starting Wavelength (Angstroms) ---  2950 
Final Wavelength (Angstoms) -------  2984 
Wavelength Increment (Angstroms) --  .25 
Filter Wheel #1 Position ---------- (1) Ground quartz diffuser (ND=2.32)
Filter Wheel #2 Position ---------- (1) Neutral Density 0.494



************************************************************
HS scan start time = 00:33:16
Dark Count =  0 


Time (GMT)  Wavelength (Ang)  Step Number  Raw Counts  Counts/Second

   33.73        2950.00           1229         137.00       597.22
   33.83        2950.25           1232         130.00       566.70
   33.86        2950.50           1236         122.00       531.83
   33.89        2950.75           1239         124.00       540.55
   33.92        2951.00           1242         137.00       597.22
   33.95        2951.25           1246         138.00       601.58
   33.98        2951.50           1249         135.00       588.50
   34.01        2951.75           1252         121.00       527.47
   34.04        2952.00           1256         131.00       571.06
   34.07        2952.25           1259         126.00       549.27
   34.10        2952.50           1262         117.00       510.03
   34.13        2952.75           1266         124.00       540.55
   34.16        2953.00           1269         124.00       540.55
   34.19        2953.25           1272         125.00       544.91
   34.22        2953.50           1276         126.00       549.27
   34.25        2953.75           1279         130.00       566.70
   34.28        2954.00           1282         122.00       531.83
   34.31        2954.25           1286         130.00       566.70
   34.34        2954.50           1289         122.00       531.83
   34.37        2954.75           1292         125.00       544.91
   34.39        2955.00           1296         125.00       544.91
   34.42        2955.25           1299         136.00       592.86
   34.45        2955.50           1302         126.00       549.27
   34.48        2955.75           1306         117.00       510.03
   34.51        2956.00           1309         122.00       531.83
   34.54        2956.25           1312         124.00       540.55
   34.57        2956.50           1316         124.00       540.55
   34.60        2956.75           1319         127.00       553.63
   34.63        2957.00           1322         129.00       562.35
   34.66        2957.25           1326         116.00       505.67
   34.69        2957.50           1329         121.00       527.47
   34.72        2957.75           1332         118.00       514.39
   34.75        2958.00           1336         125.00       544.91
   34.78        2958.25           1339         122.00       531.83
   34.81        2958.50           1342         128.00       557.99
   34.84        2958.75           1345         124.00       540.55
   34.87        2959.00           1349         118.00       514.39
   34.90        2959.25           1352         124.00       540.55
   34.93        2959.50           1355         121.00       527.47
   34.96        2959.75           1359         118.00       514.39
   34.99        2960.00           1362         126.00       549.27
   35.02        2960.25           1365         126.00       549.27
   35.05        2960.50           1369         133.00       579.78
   35.08        2960.75           1372         135.00       588.50
   35.11        2961.00           1375         131.00       571.06
   35.14        2961.25           1379         150.00       653.89
   35.17        2961.50           1382         197.00       858.78
   35.20        2961.75           1385         564.00      2458.75
   35.23        2962.00           1389        2311.00     10076.85
   35.26        2962.25           1392        4235.00     18470.41
   35.29        2962.50           1395        6251.00     27269.42
   35.32        2962.75           1399        9154.00     39947.17
   35.35        2963.00           1402       11563.00     50474.15
   35.38        2963.25           1405       14453.00     63110.94
   35.41        2963.50           1409       17705.00     77340.93
   35.44        2963.75           1412       20490.00     89536.16
   35.47        2964.00           1415       23277.00    101748.20
   35.50        2964.25           1419       26561.00    116148.30
   35.53        2964.50           1422       28932.00    126552.00
   35.56        2964.75           1425       31478.00    137730.10
   35.59        2965.00           1429       34800.00    152325.30
   35.62        2965.25           1432       37125.00    162547.10
   35.65        2965.50           1435       39147.00    171441.30
   35.68        2965.75           1439       42073.00    184319.60
   35.71        2966.00           1442       44303.00    194140.50
   35.74        2966.25           1445       46667.00    204557.40
   35.77        2966.50           1449       50036.00    219412.80
   35.80        2966.75           1452       51126.00    224221.70
   35.83        2967.00           1455       51794.00    227169.40
   35.86        2967.25           1459       51942.00    227822.60
   35.89        2967.50           1462       51924.00    227743.10
   35.92        2967.75           1465       51587.00    226255.90
   35.95        2968.00           1469       50946.00    223427.50
   35.98        2968.25           1472       49713.00    217988.10
   36.01        2968.50           1475       47941.00    210173.60
   36.04        2968.75           1479       44919.00    196854.40
   36.07        2969.00           1482       42814.00    187582.40
   36.10        2969.25           1485       40325.00    176625.00
   36.13        2969.50           1489       36849.00    161333.30
   36.16        2969.75           1492       34065.00    149095.10
   36.19        2970.00           1495       32060.00    140286.30
   36.22        2970.25           1499       28743.00    125722.50
   36.25        2970.50           1502       26061.00    113955.10
   36.28        2970.75           1505       23620.00    103251.70
   36.31        2971.00           1509       20752.00     90683.84
   36.34        2971.25           1512       18676.00     81591.93
   36.37        2971.50           1515       16126.00     70430.24
   36.40        2971.75           1519       12949.00     56533.48
   36.43        2972.00           1522       10148.00     44290.07
   36.46        2972.25           1525        7447.00     32491.44
   36.49        2972.50           1529        4728.00     20621.77
   36.52        2972.75           1532        2742.00     11956.78
   36.55        2973.00           1535        1308.00      5702.71
   36.58        2973.25           1539         431.00      1878.91
   36.61        2973.50           1542         217.00       945.97
   36.64        2973.75           1546         156.00       680.05
   36.67        2974.00           1549         146.00       636.45
   36.70        2974.25           1552         141.00       614.66
   36.73        2974.50           1556         136.00       592.86
   36.76        2974.75           1559         127.00       553.63
   36.78        2975.00           1562         122.00       531.83
   36.81        2975.25           1566         106.00       462.08
   36.84        2975.50           1569         113.00       492.60
   36.87        2975.75           1572         112.00       488.24
   36.90        2976.00           1576         113.00       492.60
   36.93        2976.25           1579         118.00       514.39
   36.96        2976.50           1582         119.00       518.75
   36.99        2976.75           1586         106.00       462.08
   37.02        2977.00           1589         107.00       466.44
   37.05        2977.25           1592         105.00       457.72
   37.08        2977.50           1596         111.00       483.88
   37.11        2977.75           1599         108.00       470.80
   37.14        2978.00           1602         110.00       479.52
   37.17        2978.25           1606         110.00       479.52
   37.20        2978.50           1609         109.00       475.16
   37.23        2978.75           1612         104.00       453.36
   37.26        2979.00           1616         106.00       462.08
   37.29        2979.25           1619         109.00       475.16
   37.32        2979.50           1622         117.00       510.03
   37.35        2979.75           1626         108.00       470.80
   37.38        2980.00           1629          97.00       422.85
   37.41        2980.25           1632         108.00       470.80
   37.44        2980.50           1636         108.00       470.80
   37.47        2980.75           1639         102.00       444.64
   37.50        2981.00           1642         106.00       462.08
   37.53        2981.25           1646         109.00       475.16
   37.56        2981.50           1649         100.00       435.92
   37.59        2981.75           1653         111.00       483.88
   37.62        2982.00           1656         115.00       501.31
   37.65        2982.25           1659         107.00       466.44
   37.68        2982.50           1663         103.00       449.00
   37.71        2982.75           1666         113.00       492.60
   37.74        2983.00           1669          99.00       431.57
   37.77        2983.25           1673         107.00       466.44
   37.80        2983.50           1676          97.00       422.85
   37.83        2983.75           1679         108.00       470.80
   37.86        2984.00           1683          94.00       409.77
HS scan finished at 00:38:10
end
************************************************************
  HS Scan of (1) Internal mercury lamp
************************************************************
Integration time is 0.2294 seconds per sample
dh210418Delft 51.9969-4.3863 2.589593pr1000
************************************************************
Dead Time -------------------------  2.7E-08 
Number of Cycles Used -------------  4 
Starting Wavelength (Angstroms) ---  2950 
Final Wavelength (Angstoms) -------  2984 
Wavelength Increment (Angstroms) --  .25 
Filter Wheel #1 Position ---------- (1) Ground quartz diffuser (ND=2.32)
Filter Wheel #2 Position ---------- (1) Neutral Density 0.494



************************************************************
HS scan start time = 02:56:55
Dark Count =  .1 


Time (GMT)  Wavelength (Ang)  Step Number  Raw Counts  Counts/Second

  177.37        2950.00           1229         124.00       540.11
  177.47        2950.25           1232         128.00       557.55
  177.50        2950.50           1236         112.00       487.80
  177.52        2950.75           1239         123.00       535.75
  177.55        2951.00           1242         138.00       601.14
  177.58        2951.25           1246         125.00       544.47
  177.61        2951.50           1249         127.00       553.19
  177.64        2951.75           1252         132.00       574.99
  177.67        2952.00           1256         133.00       579.35
  177.70        2952.25           1259         124.00       540.11
  177.73        2952.50           1262         121.00       527.03
  177.76        2952.75           1266         123.00       535.75
  177.79        2953.00           1269         116.00       505.24
  177.82        2953.25           1272         116.00       505.24
  177.85        2953.50           1276         130.00       566.27
  177.88        2953.75           1279         110.00       479.08
  177.91        2954.00           1282         125.00       544.47
  177.94        2954.25           1286         128.00       557.55
  177.97        2954.50           1289         131.00       570.63
  178.00        2954.75           1292         133.00       579.35
  178.03        2955.00           1296         120.00       522.68
  178.06        2955.25           1299         119.00       518.32
  178.09        2955.50           1302         123.00       535.75
  178.12        2955.75           1306         123.00       535.75
  178.15        2956.00           1309         123.00       535.75
  178.18        2956.25           1312         124.00       540.11
  178.21        2956.50           1316         121.00       527.03
  178.24        2956.75           1319         123.00       535.75
  178.27        2957.00           1322         129.00       561.91
  178.30        2957.25           1326         122.00       531.39
  178.33        2957.50           1329         136.00       592.42
  178.36        2957.75           1332         119.00       518.32
  178.39        2958.00           1336         119.00       518.32
  178.42        2958.25           1339         128.00       557.55
  178.45        2958.50           1342         130.00       566.27
  178.48        2958.75           1345         114.00       496.52
  178.51        2959.00           1349         125.00       544.47
  178.54        2959.25           1352         115.00       500.88
  178.57        2959.50           1355         124.00       540.11
  178.60        2959.75           1359         121.00       527.03
  178.63        2960.00           1362         121.00       527.03
  178.66        2960.25           1365         127.00       553.19
  178.69        2960.50           1369         118.00       513.96
  178.72        2960.75           1372         134.00       583.71
  178.75        2961.00           1375         142.00       618.58
  178.78        2961.25           1379         160.00       697.05
  178.81        2961.50           1382         215.00       936.82
  178.84        2961.75           1385         542.00      2362.40
  178.87        2962.00           1389        2158.00      9409.10
  178.90        2962.25           1392        4147.00     18085.99
  178.93        2962.50           1395        6278.00     27386.85
  178.96        2962.75           1399        9681.00     42249.13
  178.99        2963.00           1402       12403.00     54145.80
  179.02        2963.25           1405       15011.00     65551.41
  179.05        2963.50           1409       18364.00     80225.46
  179.08        2963.75           1412       20990.00     91726.02
  179.11        2964.00           1415       23887.00    104421.70
  179.14        2964.25           1419       26947.00    117841.20
  179.17        2964.50           1422       29294.00    128140.50
  179.20        2964.75           1425       31368.00    137246.50
  179.23        2965.00           1429       34299.00    150123.00
  179.26        2965.25           1432       37058.00    162252.00
  179.29        2965.50           1435       39643.00    173623.30
  179.32        2965.75           1439       42565.00    186485.40
  179.35        2966.00           1442       44756.00    196135.80
  179.38        2966.25           1445       47285.00    207281.10
  179.41        2966.50           1449       49993.00    219222.70
  179.44        2966.75           1452       51395.00    225408.20
  179.47        2967.00           1455       52185.00    228894.60
  179.50        2967.25           1459       52222.00    229057.90
  179.53        2967.50           1462       52144.00    228713.60
  179.56        2967.75           1465       52220.00    229049.00
  179.59        2968.00           1469       51458.00    225686.20
  179.62        2968.25           1472       50341.00    220757.80
  179.65        2968.50           1475       48014.00    210495.00
  179.68        2968.75           1479       44708.00    195924.30
  179.70        2969.00           1482       42618.00    186718.80
  179.73        2969.25           1485       40028.00    175317.40
  179.77        2969.50           1489       36855.00    161359.30
  179.79        2969.75           1492       34247.00    149894.40
  179.82        2970.00           1495       32182.00    140821.70
  179.85        2970.25           1499       29267.00    128022.00
  179.88        2970.50           1502       26976.00    117968.50
  179.91        2970.75           1505       24367.00    106526.10
  179.94        2971.00           1509       20448.00     89351.75
  179.97        2971.25           1512       18079.00     78977.75
  180.00        2971.50           1515       16017.00     69952.85
  180.03        2971.75           1519       12991.00     56716.70
  180.06        2972.00           1522       10552.00     46055.06
  180.09        2972.25           1525        8105.00     35364.62
  180.12        2972.50           1529        5005.00     21830.21
  180.15        2972.75           1532        2825.00     12318.39
  180.18        2973.00           1535        1468.00      6399.97
  180.21        2973.25           1539         494.00      2153.13
  180.24        2973.50           1542         209.00       910.66
  180.27        2973.75           1546         152.00       662.17
  180.30        2974.00           1549         148.00       644.74
  180.33        2974.25           1552         141.00       614.22
  180.36        2974.50           1556         142.00       618.58
  180.39        2974.75           1559         135.00       588.07
  180.42        2975.00           1562         110.00       479.08
  180.45        2975.25           1566         110.00       479.08
  180.48        2975.50           1569         111.00       483.44
  180.51        2975.75           1572         105.00       457.29
  180.54        2976.00           1576         106.00       461.64
  180.57        2976.25           1579         112.00       487.80
  180.60        2976.50           1582         114.00       496.52
  180.63        2976.75           1586         112.00       487.80
  180.66        2977.00           1589         102.00       444.21
  180.69        2977.25           1592         112.00       487.80
  180.72        2977.50           1596         112.00       487.80
  180.75        2977.75           1599         110.00       479.08
  180.78        2978.00           1602         112.00       487.80
  180.81        2978.25           1606         102.00       444.21
  180.84        2978.50           1609         107.00       466.00
  180.87        2978.75           1612         111.00       483.44
  180.90        2979.00           1616          98.00       426.77
  180.93        2979.25           1619         108.00       470.36
  180.96        2979.50           1622         111.00       483.44
  180.99        2979.75           1626         108.00       470.36
  181.02        2980.00           1629         111.00       483.44
  181.05        2980.25           1632         105.00       457.29
  181.08        2980.50           1636         108.00       470.36
  181.11        2980.75           1639         108.00       470.36
  181.14        2981.00           1642         103.00       448.57
  181.17        2981.25           1646         122.00       531.39
  181.20        2981.50           1649         105.00       457.29
  181.23        2981.75           1653         112.00       487.80
  181.26        2982.00           1656         116.00       505.24
  181.29        2982.25           1659         101.00       439.85
  181.32        2982.50           1663         111.00       483.44
  181.34        2982.75           1666         111.00       483.44
  181.37        2983.00           1669          99.00       431.13
  181.40        2983.25           1673         110.00       479.08
  181.43        2983.50           1676         104.00       452.93
  181.46        2983.75           1679         106.00       461.64
  181.49        2984.00           1683         107.00       466.00
HS scan finished at 03:01:48
end
************************************************************
  HS Scan of (1) Internal mercury lamp
************************************************************
Integration time is 0.2294 seconds per sample
dh210418Delft 51.9969-4.3863 3.018777pr1000
************************************************************
Dead Time -------------------------  2.7E-08 
Number of Cycles Used -------------  4 
Starting Wavelength (Angstroms) ---  2950 
Final Wavelength (Angstoms) -------  2984 
Wavelength Increment (Angstroms) --  .25 
Filter Wheel #1 Position ---------- (1) Ground quartz diffuser (ND=2.32)
Filter Wheel #2 Position ---------- (1) Neutral Density 0.494



************************************************************
HS scan start time = 19:44:35
Dark Count =  .1 


Time (GMT)  Wavelength (Ang)  Step Number  Raw Counts  Counts/Second

 1185.04        2950.00           1229         110.00       479.08
 1185.14        2950.25           1232         113.00       492.16
 1185.17        2950.50           1236         110.00       479.08
 1185.20        2950.75           1239         110.00       479.08
 1185.23        2951.00           1242         118.00       513.96
 1185.26        2951.25           1246         113.00       492.16
 1185.29        2951.50           1249         115.00       500.88
 1185.32        2951.75           1252         113.00       492.16
 1185.35        2952.00           1256         115.00       500.88
 1185.38        2952.25           1259         109.00       474.72
 1185.41        2952.50           1262         109.00       474.72
 1185.44        2952.75           1266         111.00       483.44
 1185.47        2953.00           1269         123.00       535.75
 1185.50        2953.25           1272         110.00       479.08
 1185.53        2953.50           1276         102.00       444.21
 1185.56        2953.75           1279         107.00       466.00
 1185.59        2954.00           1282         113.00       492.16
 1185.62        2954.25           1286         111.00       483.44
 1185.65        2954.50           1289         109.00       474.72
 1185.68        2954.75           1292          95.00       413.69
 1185.71        2955.00           1296         109.00       474.72
 1185.73        2955.25           1299         101.00       439.85
 1185.77        2955.50           1302         104.00       452.93
 1185.80        2955.75           1306         107.00       466.00
 1185.82        2956.00           1309         112.00       487.80
 1185.85        2956.25           1312         119.00       518.32
 1185.88        2956.50           1316         106.00       461.64
 1185.91        2956.75           1319         101.00       439.85
 1185.94        2957.00           1322         105.00       457.29
 1185.97        2957.25           1326         103.00       448.57
 1186.00        2957.50           1329         109.00       474.72
 1186.03        2957.75           1332         113.00       492.16
 1186.06        2958.00           1336         114.00       496.52
 1186.09        2958.25           1339         112.00       487.80
 1186.12        2958.50           1342         104.00       452.93
 1186.15        2958.75           1345         105.00       457.29
 1186.18        2959.00           1349         107.00       466.00
 1186.21        2959.25           1352         112.00       487.80
 1186.24        2959.50           1355         100.00       435.49
 1186.27        2959.75           1359         118.00       513.96
 1186.30        2960.00           1362         110.00       479.08
 1186.33        2960.25           1365         106.00       461.64
 1186.36        2960.50           1369         113.00       492.16
 1186.39        2960.75           1372         116.00       505.24
 1186.42        2961.00           1375         127.00       553.19
 1186.45        2961.25           1379         133.00       579.35
 1186.48        2961.50           1382         196.00       853.99
 1186.51        2961.75           1385         580.00      2528.07
 1186.54        2962.00           1389        2343.00     10215.98
 1186.57        2962.25           1392        4655.00     20302.76
 1186.60        2962.50           1395        6927.00     30220.38
 1186.63        2962.75           1399       11194.00     48860.85
 1186.66        2963.00           1402       14165.00     61850.81
 1186.69        2963.25           1405       16877.00     73716.33
 1186.72        2963.50           1409       21169.00     92510.21
 1186.75        2963.75           1412       24138.00    105522.10
 1186.78        2964.00           1415       27135.00    118666.00
 1186.81        2964.25           1419       30590.00    133830.10
 1186.84        2964.50           1422       32936.00    144133.90
 1186.87        2964.75           1425       35703.00    156294.20
 1186.90        2965.00           1429       39399.00    172549.60
 1186.93        2965.25           1432       42483.00    186124.40
 1186.96        2965.50           1435       45221.00    198184.50
 1186.99        2965.75           1439       48362.00    212029.50
 1187.02        2966.00           1442       51143.00    224296.30
 1187.05        2966.25           1445       53856.00    236271.00
 1187.08        2966.50           1449       57366.00    251775.10
 1187.11        2966.75           1452       58945.00    258754.00
 1187.14        2967.00           1455       59581.00    261565.70
 1187.17        2967.25           1459       60083.00    263785.30
 1187.19        2967.50           1462       59888.00    262923.10
 1187.22        2967.75           1465       59785.00    262467.70
 1187.26        2968.00           1469       59214.00    259943.10
 1187.28        2968.25           1472       57861.00    253962.60
 1187.31        2968.50           1475       54998.00    241313.90
 1187.34        2968.75           1479       51544.00    226065.70
 1187.37        2969.00           1482       49050.00    215063.40
 1187.40        2969.25           1485       46247.00    202705.80
 1187.43        2969.50           1489       42286.00    185256.90
 1187.46        2969.75           1492       40002.00    175203.00
 1187.49        2970.00           1495       37413.00    163813.20
 1187.52        2970.25           1499       34080.00    149160.60
 1187.55        2970.50           1502       31252.00    136737.10
 1187.58        2970.75           1505       28085.00    122834.40
 1187.61        2971.00           1509       23711.00    103650.20
 1187.64        2971.25           1512       20956.00     91577.07
 1187.67        2971.50           1515       18263.00     79783.28
 1187.70        2971.75           1519       14778.00     64532.14
 1187.73        2972.00           1522       12335.00     53848.51
 1187.76        2972.25           1525        9471.00     41331.63
 1187.79        2972.50           1529        5655.00     24667.25
 1187.82        2972.75           1532        3471.00     15136.53
 1187.85        2973.00           1535        1654.00      7211.08
 1187.88        2973.25           1539         491.00      2140.05
 1187.91        2973.50           1542         229.00       997.85
 1187.94        2973.75           1546         164.00       714.49
 1187.97        2974.00           1549         128.00       557.55
 1188.00        2974.25           1552         131.00       570.63
 1188.03        2974.50           1556         125.00       544.47
 1188.06        2974.75           1559         119.00       518.32
 1188.09        2975.00           1562         130.00       566.27
 1188.12        2975.25           1566         106.00       461.64
 1188.15        2975.50           1569         102.00       444.21
 1188.18        2975.75           1572         101.00       439.85
 1188.21        2976.00           1576         102.00       444.21
 1188.24        2976.25           1579         100.00       435.49
 1188.27        2976.50           1582          96.00       418.05
 1188.30        2976.75           1586          96.00       418.05
 1188.33        2977.00           1589         102.00       444.21
 1188.36        2977.25           1592         105.00       457.29
 1188.39        2977.50           1596          94.00       409.33
 1188.42        2977.75           1599          95.00       413.69
 1188.45        2978.00           1602         108.00       470.36
 1188.48        2978.25           1606         104.00       452.93
 1188.51        2978.50           1609          88.00       383.18
 1188.54        2978.75           1612         105.00       457.29
 1188.57        2979.00           1616          93.00       404.97
 1188.60        2979.25           1619          96.00       418.05
 1188.63        2979.50           1622         110.00       479.08
 1188.66        2979.75           1626         105.00       457.29
 1188.69        2980.00           1629         102.00       444.21
 1188.72        2980.25           1632          97.00       422.41
 1188.75        2980.50           1636         109.00       474.72
 1188.77        2980.75           1639         102.00       444.21
 1188.81        2981.00           1642          91.00       396.26
 1188.83        2981.25           1646         104.00       452.93
 1188.86        2981.50           1649         100.00       435.49
 1188.89        2981.75           1653          97.00       422.41
 1188.92        2982.00           1656         103.00       448.57
 1188.95        2982.25           1659          94.00       409.33
 1188.98        2982.50           1663          85.00       370.10
 1189.01        2982.75           1666          88.00       383.18
 1189.04        2983.00           1669          87.00       378.82
 1189.07        2983.25           1673          89.00       387.54
 1189.10        2983.50           1676          96.00       418.05
 1189.13        2983.75           1679          96.00       418.05
 1189.16        2984.00           1683          97.00       422.41
HS scan finished at 19:49:28
end
