************************************************************
  HS Scan of (1) Internal mercury lamp
************************************************************
Integration time is 0.2294 seconds per sample
dh290418Delft 51.9969-4.3863 2.589593pr1000
************************************************************
Dead Time -------------------------  2.7E-08 
Number of Cycles Used -------------  4 
Starting Wavelength (Angstroms) ---  2950 
Final Wavelength (Angstoms) -------  2984 
Wavelength Increment (Angstroms) --  .25 
Filter Wheel #1 Position ---------- (1) Ground quartz diffuser (ND=2.32)
Filter Wheel #2 Position ---------- (1) Neutral Density 0.494



************************************************************
HS scan start time = 02:24:07
Dark Count =  .2 


Time (GMT)  Wavelength (Ang)  Step Number  Raw Counts  Counts/Second

  144.57        2950.00           1229         125.00       544.04
  144.68        2950.25           1232         132.00       574.55
  144.70        2950.50           1236         125.00       544.04
  144.73        2950.75           1239         121.00       526.60
  144.76        2951.00           1242         116.00       504.80
  144.79        2951.25           1246         120.00       522.24
  144.82        2951.50           1249         125.00       544.04
  144.85        2951.75           1252         129.00       561.47
  144.88        2952.00           1256         135.00       587.63
  144.91        2952.25           1259         115.00       500.44
  144.94        2952.50           1262         129.00       561.47
  144.97        2952.75           1266         125.00       544.04
  145.00        2953.00           1269         118.00       513.52
  145.03        2953.25           1272         126.00       548.40
  145.06        2953.50           1276         121.00       526.60
  145.09        2953.75           1279         134.00       583.27
  145.12        2954.00           1282         118.00       513.52
  145.15        2954.25           1286         118.00       513.52
  145.18        2954.50           1289         123.00       535.32
  145.21        2954.75           1292         129.00       561.47
  145.24        2955.00           1296         122.00       530.96
  145.27        2955.25           1299         117.00       509.16
  145.30        2955.50           1302         114.00       496.08
  145.33        2955.75           1306         125.00       544.04
  145.36        2956.00           1309         130.00       565.83
  145.39        2956.25           1312         121.00       526.60
  145.42        2956.50           1316         115.00       500.44
  145.45        2956.75           1319         112.00       487.36
  145.48        2957.00           1322         126.00       548.40
  145.51        2957.25           1326         122.00       530.96
  145.54        2957.50           1329         118.00       513.52
  145.57        2957.75           1332         117.00       509.16
  145.60        2958.00           1336         122.00       530.96
  145.63        2958.25           1339         113.00       491.72
  145.66        2958.50           1342         120.00       522.24
  145.69        2958.75           1345         122.00       530.96
  145.72        2959.00           1349         112.00       487.36
  145.75        2959.25           1352         116.00       504.80
  145.78        2959.50           1355         120.00       522.24
  145.81        2959.75           1359         128.00       557.11
  145.84        2960.00           1362         118.00       513.52
  145.87        2960.25           1365         118.00       513.52
  145.90        2960.50           1369         123.00       535.32
  145.93        2960.75           1372         126.00       548.40
  145.96        2961.00           1375         135.00       587.63
  145.99        2961.25           1379         141.00       613.79
  146.01        2961.50           1382         199.00       866.63
  146.04        2961.75           1385         617.00      2688.95
  146.07        2962.00           1389        2381.00     10381.29
  146.10        2962.25           1392        4186.00     18255.73
  146.14        2962.50           1395        6015.00     26238.29
  146.16        2962.75           1399        9191.00     40107.93
  146.19        2963.00           1402       12068.00     52680.81
  146.22        2963.25           1405       14594.00     63726.82
  146.25        2963.50           1409       18333.00     80089.31
  146.28        2963.75           1412       21129.00     92334.53
  146.31        2964.00           1415       23733.00    103746.20
  146.34        2964.25           1419       27089.00    118463.80
  146.38        2964.50           1422       29898.00    130791.50
  146.40        2964.75           1425       32223.00    141001.40
  146.43        2965.00           1429       35404.00    154979.30
  146.46        2965.25           1432       37569.00    164498.90
  146.49        2965.50           1435       39844.00    174507.30
  146.52        2965.75           1439       42749.00    187295.20
  146.55        2966.00           1442       45096.00    197633.30
  146.58        2966.25           1445       47786.00    209489.30
  146.61        2966.50           1449       50760.00    222606.00
  146.64        2966.75           1452       52103.00    228532.20
  146.67        2967.00           1455       52971.00    232363.50
  146.70        2967.25           1459       52768.00    231467.40
  146.73        2967.50           1462       52857.00    231860.20
  146.76        2967.75           1465       52918.00    232129.50
  146.79        2968.00           1469       52134.00    228669.00
  146.82        2968.25           1472       51013.00    223722.20
  146.85        2968.50           1475       49188.00    215671.60
  146.88        2968.75           1479       46302.00    202947.70
  146.91        2969.00           1482       43977.00    192703.60
  146.94        2969.25           1485       41115.00    180101.20
  146.97        2969.50           1489       37569.00    164498.90
  147.00        2969.75           1492       35203.00    154095.80
  147.03        2970.00           1495       32853.00    143768.90
  147.06        2970.25           1499       29228.00    127850.40
  147.09        2970.50           1502       26740.00    116932.70
  147.12        2970.75           1505       24698.00    107976.90
  147.15        2971.00           1509       21397.00     93508.68
  147.18        2971.25           1512       19012.00     83062.28
  147.21        2971.50           1515       16600.00     72503.62
  147.24        2971.75           1519       13102.00     57201.62
  147.27        2972.00           1522       10328.00     45075.76
  147.30        2972.25           1525        8008.00     34940.53
  147.33        2972.50           1529        5233.00     22824.87
  147.36        2972.75           1532        3004.00     13098.79
  147.39        2973.00           1535        1414.00      6164.06
  147.42        2973.25           1539         393.00      1712.37
  147.45        2973.50           1542         191.00       831.75
  147.48        2973.75           1546         152.00       661.74
  147.51        2974.00           1549         153.00       666.10
  147.54        2974.25           1552         155.00       674.82
  147.57        2974.50           1556         134.00       583.27
  147.60        2974.75           1559         115.00       500.44
  147.63        2975.00           1562         120.00       522.24
  147.66        2975.25           1566         104.00       452.49
  147.69        2975.50           1569         112.00       487.36
  147.72        2975.75           1572         108.00       469.93
  147.75        2976.00           1576         109.00       474.29
  147.78        2976.25           1579         108.00       469.93
  147.81        2976.50           1582         111.00       483.01
  147.84        2976.75           1586         107.00       465.57
  147.87        2977.00           1589         114.00       496.08
  147.90        2977.25           1592         106.00       461.21
  147.93        2977.50           1596         104.00       452.49
  147.96        2977.75           1599         109.00       474.29
  147.99        2978.00           1602         104.00       452.49
  148.02        2978.25           1606         103.00       448.13
  148.05        2978.50           1609         120.00       522.24
  148.08        2978.75           1612          97.00       421.98
  148.11        2979.00           1616         103.00       448.13
  148.14        2979.25           1619         107.00       465.57
  148.17        2979.50           1622         114.00       496.08
  148.20        2979.75           1626         105.00       456.85
  148.23        2980.00           1629         104.00       452.49
  148.26        2980.25           1632         105.00       456.85
  148.29        2980.50           1636         105.00       456.85
  148.32        2980.75           1639         100.00       435.05
  148.35        2981.00           1642         108.00       469.93
  148.38        2981.25           1646          94.00       408.90
  148.41        2981.50           1649         104.00       452.49
  148.44        2981.75           1653         102.00       443.77
  148.47        2982.00           1656         100.00       435.05
  148.50        2982.25           1659         103.00       448.13
  148.53        2982.50           1663         102.00       443.77
  148.56        2982.75           1666         102.00       443.77
  148.59        2983.00           1669         108.00       469.93
  148.62        2983.25           1673         103.00       448.13
  148.65        2983.50           1676         104.00       452.49
  148.68        2983.75           1679          95.00       413.26
  148.71        2984.00           1683          99.00       430.69
HS scan finished at 02:29:01
end
************************************************************
  HS Scan of (1) Internal mercury lamp
************************************************************
Integration time is 0.2294 seconds per sample
dh290418Delft 51.9969-4.3863 2.535944pr1000
************************************************************
Dead Time -------------------------  2.7E-08 
Number of Cycles Used -------------  4 
Starting Wavelength (Angstroms) ---  2950 
Final Wavelength (Angstoms) -------  2984 
Wavelength Increment (Angstroms) --  .25 
Filter Wheel #1 Position ---------- (1) Ground quartz diffuser (ND=2.32)
Filter Wheel #2 Position ---------- (1) Neutral Density 0.494



************************************************************
HS scan start time = 20:00:30
Dark Count =  .1 


Time (GMT)  Wavelength (Ang)  Step Number  Raw Counts  Counts/Second

 1200.95        2950.00           1229         119.00       518.32
 1201.05        2950.25           1232         120.00       522.68
 1201.08        2950.50           1236         137.00       596.78
 1201.11        2950.75           1239         134.00       583.71
 1201.14        2951.00           1242         131.00       570.63
 1201.17        2951.25           1246         123.00       535.75
 1201.20        2951.50           1249         140.00       609.86
 1201.23        2951.75           1252         131.00       570.63
 1201.26        2952.00           1256         116.00       505.24
 1201.29        2952.25           1259         125.00       544.47
 1201.32        2952.50           1262         127.00       553.19
 1201.35        2952.75           1266         125.00       544.47
 1201.38        2953.00           1269         133.00       579.35
 1201.41        2953.25           1272         128.00       557.55
 1201.44        2953.50           1276         126.00       548.83
 1201.46        2953.75           1279         133.00       579.35
 1201.49        2954.00           1282         128.00       557.55
 1201.52        2954.25           1286         130.00       566.27
 1201.55        2954.50           1289         122.00       531.39
 1201.58        2954.75           1292         123.00       535.75
 1201.61        2955.00           1296         130.00       566.27
 1201.64        2955.25           1299         128.00       557.55
 1201.67        2955.50           1302         120.00       522.68
 1201.70        2955.75           1306         124.00       540.11
 1201.73        2956.00           1309         127.00       553.19
 1201.76        2956.25           1312         120.00       522.68
 1201.79        2956.50           1316         122.00       531.39
 1201.82        2956.75           1319         132.00       574.99
 1201.85        2957.00           1322         120.00       522.68
 1201.88        2957.25           1326         124.00       540.11
 1201.91        2957.50           1329         115.00       500.88
 1201.94        2957.75           1332         129.00       561.91
 1201.97        2958.00           1336         120.00       522.68
 1202.00        2958.25           1339         130.00       566.27
 1202.03        2958.50           1342         131.00       570.63
 1202.06        2958.75           1345         117.00       509.60
 1202.09        2959.00           1349         118.00       513.96
 1202.12        2959.25           1352         116.00       505.24
 1202.15        2959.50           1355         120.00       522.68
 1202.18        2959.75           1359         122.00       531.39
 1202.21        2960.00           1362         127.00       553.19
 1202.24        2960.25           1365         121.00       527.03
 1202.27        2960.50           1369         125.00       544.47
 1202.30        2960.75           1372         131.00       570.63
 1202.33        2961.00           1375         137.00       596.78
 1202.36        2961.25           1379         146.00       636.02
 1202.39        2961.50           1382         250.00      1089.40
 1202.42        2961.75           1385         790.00      3443.65
 1202.45        2962.00           1389        2299.00     10024.07
 1202.48        2962.25           1392        3903.00     17021.33
 1202.51        2962.50           1395        6053.00     26404.61
 1202.54        2962.75           1399        9228.00     40270.01
 1202.57        2963.00           1402       11687.00     51015.74
 1202.60        2963.25           1405       14470.00     63184.86
 1202.63        2963.50           1409       17845.00     77953.35
 1202.66        2963.75           1412       20238.00     88431.91
 1202.69        2964.00           1415       22588.00     98727.96
 1202.72        2964.25           1419       25869.00    113112.60
 1202.74        2964.50           1422       28329.00    123905.10
 1202.77        2964.75           1425       30529.00    133562.30
 1202.80        2965.00           1429       33112.00    144907.20
 1202.83        2965.25           1432       35262.00    154355.60
 1202.86        2965.50           1435       37578.00    164538.90
 1202.89        2965.75           1439       40631.00    177971.30
 1202.92        2966.00           1442       42779.00    187427.80
 1202.95        2966.25           1445       45359.00    198792.60
 1202.98        2966.50           1449       47983.00    210358.30
 1203.01        2966.75           1452       49080.00    215195.70
 1203.04        2967.00           1455       49318.00    216245.40
 1203.07        2967.25           1459       49638.00    217656.80
 1203.10        2967.50           1462       49447.00    216814.40
 1203.13        2967.75           1465       49317.00    216241.00
 1203.16        2968.00           1469       48732.00    213661.00
 1203.19        2968.25           1472       47576.00    208563.90
 1203.22        2968.50           1475       45658.00    200110.10
 1203.25        2968.75           1479       42441.00    185939.40
 1203.28        2969.00           1482       40055.00    175436.30
 1203.31        2969.25           1485       37654.00    164873.10
 1203.34        2969.50           1489       34931.00    152900.60
 1203.37        2969.75           1492       32676.00    142991.70
 1203.40        2970.00           1495       30416.00    133066.20
 1203.43        2970.25           1499       27078.00    118415.90
 1203.46        2970.50           1502       25295.00    110595.20
 1203.49        2970.75           1505       22971.00    100406.50
 1203.52        2971.00           1509       19671.00     85948.57
 1203.55        2971.25           1512       17249.00     75344.50
 1203.58        2971.50           1515       14656.00     63998.47
 1203.61        2971.75           1519       11607.00     50666.04
 1203.64        2972.00           1522        9266.00     40436.02
 1203.67        2972.25           1525        7255.00     31652.59
 1203.70        2972.50           1529        4487.00     19569.62
 1203.73        2972.75           1532        2465.00     10748.11
 1203.76        2973.00           1535        1027.00      4477.00
 1203.79        2973.25           1539         328.00      1429.44
 1203.82        2973.50           1542         193.00       840.91
 1203.85        2973.75           1546         159.00       692.69
 1203.88        2974.00           1549         143.00       622.94
 1203.91        2974.25           1552         133.00       579.35
 1203.94        2974.50           1556         127.00       553.19
 1203.97        2974.75           1559         130.00       566.27
 1204.00        2975.00           1562         116.00       505.24
 1204.03        2975.25           1566         121.00       527.03
 1204.06        2975.50           1569         118.00       513.96
 1204.09        2975.75           1572         113.00       492.16
 1204.12        2976.00           1576         116.00       505.24
 1204.15        2976.25           1579         113.00       492.16
 1204.18        2976.50           1582         108.00       470.36
 1204.21        2976.75           1586         111.00       483.44
 1204.24        2977.00           1589         109.00       474.72
 1204.27        2977.25           1592         107.00       466.00
 1204.30        2977.50           1596         105.00       457.29
 1204.33        2977.75           1599         111.00       483.44
 1204.36        2978.00           1602         120.00       522.68
 1204.39        2978.25           1606         104.00       452.93
 1204.42        2978.50           1609         108.00       470.36
 1204.45        2978.75           1612         105.00       457.29
 1204.48        2979.00           1616         102.00       444.21
 1204.51        2979.25           1619         107.00       466.00
 1204.54        2979.50           1622          96.00       418.05
 1204.57        2979.75           1626         111.00       483.44
 1204.60        2980.00           1629         113.00       492.16
 1204.63        2980.25           1632         110.00       479.08
 1204.66        2980.50           1636         101.00       439.85
 1204.69        2980.75           1639         103.00       448.57
 1204.72        2981.00           1642         106.00       461.64
 1204.75        2981.25           1646         108.00       470.36
 1204.78        2981.50           1649          96.00       418.05
 1204.81        2981.75           1653          99.00       431.13
 1204.84        2982.00           1656         108.00       470.36
 1204.87        2982.25           1659         104.00       452.93
 1204.90        2982.50           1663         108.00       470.36
 1204.93        2982.75           1666         107.00       466.00
 1204.96        2983.00           1669         108.00       470.36
 1204.99        2983.25           1673         104.00       452.93
 1205.02        2983.50           1676         110.00       479.08
 1205.05        2983.75           1679          96.00       418.05
 1205.08        2984.00           1683          95.00       413.69
HS scan finished at 20:05:23
end
