************************************************************
  HS Scan of (1) Internal mercury lamp
************************************************************
Integration time is 0.2294 seconds per sample
dh250418Delft 51.9969-4.3863 2.643241pr1000
************************************************************
Dead Time -------------------------  2.7E-08 
Number of Cycles Used -------------  4 
Starting Wavelength (Angstroms) ---  2950 
Final Wavelength (Angstoms) -------  2984 
Wavelength Increment (Angstroms) --  .25 
Filter Wheel #1 Position ---------- (1) Ground quartz diffuser (ND=2.32)
Filter Wheel #2 Position ---------- (1) Neutral Density 0.494



************************************************************
HS scan start time = 03:02:51
Dark Count =  .1 


Time (GMT)  Wavelength (Ang)  Step Number  Raw Counts  Counts/Second

  183.30        2950.00           1229         130.00       566.27
  183.40        2950.25           1232         115.00       500.88
  183.43        2950.50           1236         121.00       527.03
  183.46        2950.75           1239         124.00       540.11
  183.49        2951.00           1242         120.00       522.68
  183.52        2951.25           1246         114.00       496.52
  183.55        2951.50           1249         125.00       544.47
  183.58        2951.75           1252         128.00       557.55
  183.61        2952.00           1256         116.00       505.24
  183.64        2952.25           1259         124.00       540.11
  183.67        2952.50           1262         128.00       557.55
  183.70        2952.75           1266         124.00       540.11
  183.73        2953.00           1269         126.00       548.83
  183.76        2953.25           1272         130.00       566.27
  183.79        2953.50           1276         126.00       548.83
  183.82        2953.75           1279         125.00       544.47
  183.85        2954.00           1282         125.00       544.47
  183.88        2954.25           1286         116.00       505.24
  183.91        2954.50           1289         126.00       548.83
  183.94        2954.75           1292         115.00       500.88
  183.97        2955.00           1296         112.00       487.80
  184.00        2955.25           1299         116.00       505.24
  184.03        2955.50           1302         120.00       522.68
  184.06        2955.75           1306         117.00       509.60
  184.09        2956.00           1309         128.00       557.55
  184.12        2956.25           1312         117.00       509.60
  184.15        2956.50           1316         137.00       596.78
  184.18        2956.75           1319         115.00       500.88
  184.21        2957.00           1322         125.00       544.47
  184.24        2957.25           1326         123.00       535.75
  184.27        2957.50           1329         124.00       540.11
  184.30        2957.75           1332         117.00       509.60
  184.33        2958.00           1336         116.00       505.24
  184.36        2958.25           1339         112.00       487.80
  184.39        2958.50           1342         119.00       518.32
  184.42        2958.75           1345         113.00       492.16
  184.45        2959.00           1349         125.00       544.47
  184.48        2959.25           1352         116.00       505.24
  184.51        2959.50           1355         123.00       535.75
  184.54        2959.75           1359         112.00       487.80
  184.57        2960.00           1362         115.00       500.88
  184.60        2960.25           1365         116.00       505.24
  184.63        2960.50           1369         123.00       535.75
  184.66        2960.75           1372         135.00       588.07
  184.69        2961.00           1375         137.00       596.78
  184.72        2961.25           1379         149.00       649.10
  184.75        2961.50           1382         188.00       819.11
  184.78        2961.75           1385         599.00      2610.91
  184.81        2962.00           1389        2325.00     10137.47
  184.84        2962.25           1392        4200.00     18317.25
  184.87        2962.50           1395        5932.00     25876.40
  184.90        2962.75           1399        9296.00     40567.08
  184.93        2963.00           1402       12225.00     53367.61
  184.96        2963.25           1405       14689.00     64142.82
  184.99        2963.50           1409       18494.00     80794.63
  185.02        2963.75           1412       21424.00     93627.41
  185.05        2964.00           1415       24078.00    105259.10
  185.08        2964.25           1419       27526.00    120381.50
  185.11        2964.50           1422       30196.00    132100.20
  185.14        2964.75           1425       32996.00    144397.50
  185.17        2965.00           1429       35726.00    156395.30
  185.20        2965.25           1432       37949.00    166170.60
  185.23        2965.50           1435       40271.00    176386.90
  185.26        2965.75           1439       43610.00    191087.60
  185.29        2966.00           1442       45872.00    201053.10
  185.32        2966.25           1445       48599.00    213074.50
  185.35        2966.50           1449       51602.00    226321.70
  185.38        2966.75           1452       52838.00    231776.80
  185.41        2967.00           1455       53611.00    235189.30
  185.44        2967.25           1459       53701.00    235586.60
  185.47        2967.50           1462       54000.00    236906.80
  185.50        2967.75           1465       53791.00    235984.00
  185.53        2968.00           1469       52904.00    232068.10
  185.56        2968.25           1472       51786.00    227133.70
  185.59        2968.50           1475       49708.00    217965.60
  185.62        2968.75           1479       46885.00    205517.80
  185.64        2969.00           1482       44433.00    194712.80
  185.67        2969.25           1485       41648.00    182448.00
  185.70        2969.50           1489       38197.00    167261.50
  185.73        2969.75           1492       35873.00    157041.50
  185.76        2970.00           1495       33573.00    146932.70
  185.79        2970.25           1499       29566.00    129334.50
  185.82        2970.50           1502       27098.00    118503.70
  185.86        2970.75           1505       25189.00    110130.40
  185.89        2971.00           1509       21946.00     95914.59
  185.92        2971.25           1512       19309.00     84363.26
  185.94        2971.50           1515       16819.00     73462.48
  185.97        2971.75           1519       13314.00     58129.09
  186.00        2972.00           1522       10530.00     45958.92
  186.03        2972.25           1525        8294.00     36190.10
  186.06        2972.50           1529        5259.00     22938.79
  186.09        2972.75           1532        3099.00     13513.65
  186.12        2973.00           1535        1455.00      6343.28
  186.15        2973.25           1539         396.00      1725.89
  186.18        2973.50           1542         199.00       867.06
  186.21        2973.75           1546         156.00       679.61
  186.24        2974.00           1549         142.00       618.58
  186.27        2974.25           1552         135.00       588.07
  186.30        2974.50           1556         124.00       540.11
  186.33        2974.75           1559         116.00       505.24
  186.36        2975.00           1562         124.00       540.11
  186.39        2975.25           1566         112.00       487.80
  186.42        2975.50           1569         103.00       448.57
  186.45        2975.75           1572         100.00       435.49
  186.48        2976.00           1576         113.00       492.16
  186.51        2976.25           1579         108.00       470.36
  186.54        2976.50           1582         110.00       479.08
  186.57        2976.75           1586         112.00       487.80
  186.60        2977.00           1589         107.00       466.00
  186.63        2977.25           1592         116.00       505.24
  186.66        2977.50           1596         107.00       466.00
  186.69        2977.75           1599         109.00       474.72
  186.72        2978.00           1602         116.00       505.24
  186.75        2978.25           1606         106.00       461.64
  186.78        2978.50           1609         103.00       448.57
  186.81        2978.75           1612          97.00       422.41
  186.84        2979.00           1616         104.00       452.93
  186.87        2979.25           1619         114.00       496.52
  186.90        2979.50           1622         105.00       457.29
  186.93        2979.75           1626         103.00       448.57
  186.96        2980.00           1629         107.00       466.00
  186.99        2980.25           1632         114.00       496.52
  187.02        2980.50           1636         107.00       466.00
  187.05        2980.75           1639         107.00       466.00
  187.08        2981.00           1642         110.00       479.08
  187.11        2981.25           1646         101.00       439.85
  187.14        2981.50           1649         103.00       448.57
  187.17        2981.75           1653         111.00       483.44
  187.20        2982.00           1656         112.00       487.80
  187.23        2982.25           1659         100.00       435.49
  187.26        2982.50           1663         106.00       461.64
  187.29        2982.75           1666         106.00       461.64
  187.32        2983.00           1669          98.00       426.77
  187.35        2983.25           1673         116.00       505.24
  187.38        2983.50           1676         106.00       461.64
  187.41        2983.75           1679         111.00       483.44
  187.44        2984.00           1683          93.00       404.97
HS scan finished at 03:07:45
end
************************************************************
  HS Scan of (1) Internal mercury lamp
************************************************************
Integration time is 0.2294 seconds per sample
dh250418Delft 51.9969-4.3863 2.589593pr1000
************************************************************
Dead Time -------------------------  2.7E-08 
Number of Cycles Used -------------  4 
Starting Wavelength (Angstroms) ---  2950 
Final Wavelength (Angstoms) -------  2984 
Wavelength Increment (Angstroms) --  .25 
Filter Wheel #1 Position ---------- (1) Ground quartz diffuser (ND=2.32)
Filter Wheel #2 Position ---------- (1) Neutral Density 0.494



************************************************************
HS scan start time = 19:58:44
Dark Count =  0 


Time (GMT)  Wavelength (Ang)  Step Number  Raw Counts  Counts/Second

 1199.18        2950.00           1229         116.00       505.67
 1199.28        2950.25           1232         119.00       518.75
 1199.31        2950.50           1236         131.00       571.06
 1199.34        2950.75           1239         123.00       536.19
 1199.37        2951.00           1242         126.00       549.27
 1199.40        2951.25           1246         129.00       562.35
 1199.43        2951.50           1249         117.00       510.03
 1199.46        2951.75           1252         135.00       588.50
 1199.49        2952.00           1256         116.00       505.67
 1199.52        2952.25           1259         131.00       571.06
 1199.55        2952.50           1262         130.00       566.70
 1199.58        2952.75           1266         114.00       496.96
 1199.61        2953.00           1269         131.00       571.06
 1199.64        2953.25           1272         118.00       514.39
 1199.67        2953.50           1276         126.00       549.27
 1199.70        2953.75           1279         124.00       540.55
 1199.73        2954.00           1282         133.00       579.78
 1199.76        2954.25           1286         124.00       540.55
 1199.79        2954.50           1289         126.00       549.27
 1199.82        2954.75           1292         137.00       597.22
 1199.85        2955.00           1296         117.00       510.03
 1199.88        2955.25           1299         129.00       562.35
 1199.91        2955.50           1302         114.00       496.96
 1199.93        2955.75           1306         118.00       514.39
 1199.97        2956.00           1309         126.00       549.27
 1199.99        2956.25           1312         120.00       523.11
 1200.02        2956.50           1316         123.00       536.19
 1200.05        2956.75           1319         122.00       531.83
 1200.08        2957.00           1322         124.00       540.55
 1200.11        2957.25           1326         133.00       579.78
 1200.14        2957.50           1329         120.00       523.11
 1200.17        2957.75           1332         116.00       505.67
 1200.20        2958.00           1336         126.00       549.27
 1200.23        2958.25           1339         130.00       566.70
 1200.26        2958.50           1342         109.00       475.16
 1200.29        2958.75           1345         121.00       527.47
 1200.32        2959.00           1349         121.00       527.47
 1200.35        2959.25           1352         125.00       544.91
 1200.38        2959.50           1355         121.00       527.47
 1200.41        2959.75           1359         113.00       492.60
 1200.44        2960.00           1362         117.00       510.03
 1200.47        2960.25           1365         117.00       510.03
 1200.50        2960.50           1369         123.00       536.19
 1200.53        2960.75           1372         137.00       597.22
 1200.56        2961.00           1375         133.00       579.78
 1200.59        2961.25           1379         148.00       645.17
 1200.62        2961.50           1382         217.00       945.97
 1200.65        2961.75           1385         706.00      3077.85
 1200.68        2962.00           1389        2378.00     10369.08
 1200.71        2962.25           1392        3988.00     17392.65
 1200.73        2962.50           1395        5802.00     25309.36
 1200.76        2962.75           1399        8959.00     39095.30
 1200.79        2963.00           1402       11646.00     50836.95
 1200.82        2963.25           1405       14630.00     63885.17
 1200.85        2963.50           1409       17797.00     77743.68
 1200.88        2963.75           1412       20076.00     87722.78
 1200.91        2964.00           1415       22713.00     99276.21
 1200.94        2964.25           1419       25991.00    113648.10
 1200.97        2964.50           1422       29015.00    126916.30
 1201.00        2964.75           1425       31552.00    138055.10
 1201.03        2965.00           1429       34245.00    149886.10
 1201.06        2965.25           1432       36709.00    160717.70
 1201.09        2965.50           1435       39069.00    171098.10
 1201.12        2965.75           1439       42509.00    186239.30
 1201.15        2966.00           1442       44533.00    195153.80
 1201.18        2966.25           1445       47239.00    207078.70
 1201.21        2966.50           1449       50321.00    220670.10
 1201.24        2966.75           1452       51493.00    225841.10
 1201.27        2967.00           1455       52184.00    228890.60
 1201.30        2967.25           1459       52235.00    229115.70
 1201.33        2967.50           1462       52190.00    228917.10
 1201.36        2967.75           1465       51889.00    227588.70
 1201.39        2968.00           1469       51091.00    224067.30
 1201.42        2968.25           1472       49728.00    218054.20
 1201.45        2968.50           1475       47625.00    208780.40
 1201.48        2968.75           1479       44551.00    195233.10
 1201.51        2969.00           1482       42243.00    185068.10
 1201.54        2969.25           1485       39901.00    174759.00
 1201.57        2969.50           1489       36851.00    161342.10
 1201.60        2969.75           1492       34270.00    149996.00
 1201.63        2970.00           1495       31871.00    139456.10
 1201.65        2970.25           1499       28302.00    123787.10
 1201.68        2970.50           1502       26324.00    115108.70
 1201.71        2970.75           1505       24384.00    106601.10
 1201.74        2971.00           1509       21005.00     91792.16
 1201.77        2971.25           1512       18784.00     82064.81
 1201.80        2971.50           1515       16221.00     70845.94
 1201.83        2971.75           1519       13141.00     57373.03
 1201.86        2972.00           1522       10438.00     45557.32
 1201.89        2972.25           1525        8085.00     35277.70
 1201.92        2972.50           1529        5335.00     23270.94
 1201.95        2972.75           1532        2909.00     12685.25
 1201.98        2973.00           1535        1370.00      5973.06
 1202.01        2973.25           1539         447.00      1948.66
 1202.04        2973.50           1542         235.00      1024.44
 1202.07        2973.75           1546         148.00       645.17
 1202.10        2974.00           1549         157.00       684.41
 1202.13        2974.25           1552         138.00       601.58
 1202.16        2974.50           1556         135.00       588.50
 1202.19        2974.75           1559         128.00       557.99
 1202.22        2975.00           1562         115.00       501.31
 1202.25        2975.25           1566         114.00       496.96
 1202.28        2975.50           1569         112.00       488.24
 1202.31        2975.75           1572         106.00       462.08
 1202.34        2976.00           1576         109.00       475.16
 1202.37        2976.25           1579         110.00       479.52
 1202.40        2976.50           1582         113.00       492.60
 1202.43        2976.75           1586         108.00       470.80
 1202.46        2977.00           1589         108.00       470.80
 1202.48        2977.25           1592         107.00       466.44
 1202.51        2977.50           1596         106.00       462.08
 1202.54        2977.75           1599         108.00       470.80
 1202.57        2978.00           1602         109.00       475.16
 1202.60        2978.25           1606         113.00       492.60
 1202.63        2978.50           1609         108.00       470.80
 1202.66        2978.75           1612         108.00       470.80
 1202.69        2979.00           1616         111.00       483.88
 1202.72        2979.25           1619         108.00       470.80
 1202.75        2979.50           1622         112.00       488.24
 1202.78        2979.75           1626          99.00       431.57
 1202.81        2980.00           1629         103.00       449.00
 1202.84        2980.25           1632         104.00       453.36
 1202.87        2980.50           1636         108.00       470.80
 1202.90        2980.75           1639         109.00       475.16
 1202.93        2981.00           1642         104.00       453.36
 1202.96        2981.25           1646         103.00       449.00
 1202.99        2981.50           1649         105.00       457.72
 1203.02        2981.75           1653          98.00       427.21
 1203.05        2982.00           1656         110.00       479.52
 1203.08        2982.25           1659         108.00       470.80
 1203.10        2982.50           1663          97.00       422.85
 1203.13        2982.75           1666         108.00       470.80
 1203.16        2983.00           1669          92.00       401.05
 1203.19        2983.25           1673         102.00       444.64
 1203.22        2983.50           1676         109.00       475.16
 1203.25        2983.75           1679         103.00       449.00
 1203.28        2984.00           1683         103.00       449.00
HS scan finished at 20:03:35
end
