************************************************************
  HS Scan of (1) Internal mercury lamp
************************************************************
Integration time is 0.2294 seconds per sample
dh260417DelftKZ 51.997-4.386 2.321352pr1000
************************************************************
Dead Time -------------------------  3E-08 
Number of Cycles Used -------------  4 
Starting Wavelength (Angstroms) ---  2950 
Final Wavelength (Angstoms) -------  2984 
Wavelength Increment (Angstroms) --  .25 
Filter Wheel #1 Position ---------- (1) Ground quartz diffuser (ND=2.32)
Filter Wheel #2 Position ---------- (1) Neutral Density 0.494



************************************************************
HS scan start time = 02:20:33
Dark Count =  .1 


Time (GMT)  Wavelength (Ang)  Step Number  Raw Counts  Counts/Second

  141.01        2950.00           1229         138.00       601.14
  141.10        2950.25           1232         123.00       535.75
  141.13        2950.50           1236         121.00       527.04
  141.16        2950.75           1239         130.00       566.27
  141.19        2951.00           1242         130.00       566.27
  141.21        2951.25           1246         127.00       553.19
  141.25        2951.50           1249         124.00       540.11
  141.28        2951.75           1252         127.00       553.19
  141.31        2952.00           1255         125.00       544.47
  141.33        2952.25           1259         129.00       561.91
  141.36        2952.50           1262         129.00       561.91
  141.39        2952.75           1265         133.00       579.35
  141.42        2953.00           1269         127.00       553.19
  141.44        2953.25           1272         120.00       522.68
  141.47        2953.50           1275         133.00       579.35
  141.50        2953.75           1279         120.00       522.68
  141.53        2954.00           1282         122.00       531.39
  141.55        2954.25           1285         117.00       509.60
  141.58        2954.50           1289         121.00       527.04
  141.61        2954.75           1292         128.00       557.55
  141.64        2955.00           1295         122.00       531.39
  141.66        2955.25           1299         129.00       561.91
  141.69        2955.50           1302         136.00       592.43
  141.72        2955.75           1305         115.00       500.88
  141.75        2956.00           1309         133.00       579.35
  141.78        2956.25           1312         124.00       540.11
  141.80        2956.50           1315         127.00       553.19
  141.83        2956.75           1319         119.00       518.32
  141.86        2957.00           1322         128.00       557.55
  141.89        2957.25           1325         131.00       570.63
  141.91        2957.50           1329         132.00       574.99
  141.94        2957.75           1332         126.00       548.83
  141.97        2958.00           1335         131.00       570.63
  142.00        2958.25           1339         119.00       518.32
  142.03        2958.50           1342         116.00       505.24
  142.05        2958.75           1345         117.00       509.60
  142.08        2959.00           1349         124.00       540.11
  142.11        2959.25           1352         116.00       505.24
  142.14        2959.50           1355         123.00       535.75
  142.16        2959.75           1359         111.00       483.44
  142.19        2960.00           1362         142.00       618.58
  142.22        2960.25           1365         127.00       553.19
  142.25        2960.50           1369         119.00       518.32
  142.28        2960.75           1372         135.00       588.07
  142.30        2961.00           1375         138.00       601.14
  142.33        2961.25           1379         144.00       627.30
  142.36        2961.50           1382         225.00       980.41
  142.39        2961.75           1385         698.00      3042.56
  142.41        2962.00           1389        2187.00      9535.86
  142.44        2962.25           1392        3959.00     17266.57
  142.47        2962.50           1395        5931.00     25874.04
  142.50        2962.75           1399        8576.00     37426.05
  142.53        2963.00           1402       10406.00     45423.24
  142.55        2963.25           1405       12003.00     52405.35
  142.58        2963.50           1409       14782.00     64562.16
  142.61        2963.75           1412       16732.00     73097.79
  142.64        2964.00           1415       19249.00     84121.80
  142.66        2964.25           1419       22150.00     96836.71
  142.69        2964.50           1422       23816.00    104143.10
  142.72        2964.75           1425       26000.00    113726.10
  142.75        2965.00           1429       28794.00    125993.60
  142.78        2965.25           1432       31005.00    135707.90
  142.80        2965.50           1435       33316.00    145867.50
  142.83        2965.75           1439       35642.00    156099.40
  142.86        2966.00           1442       37250.00    163176.50
  142.89        2966.25           1445       39197.00    171749.70
  142.91        2966.50           1449       41900.00    183659.10
  142.94        2966.75           1452       42589.00    186696.20
  142.97        2967.00           1455       43153.00    189182.70
  143.00        2967.25           1459       43419.00    190355.60
  143.03        2967.50           1462       43195.00    189367.90
  143.05        2967.75           1465       43090.00    188904.90
  143.08        2968.00           1469       42033.00    184245.30
  143.11        2968.25           1472       40871.00    179124.30
  143.14        2968.50           1475       39209.00    171802.60
  143.17        2968.75           1479       36970.00    161944.00
  143.19        2969.00           1482       35228.00    154277.80
  143.22        2969.25           1485       33138.00    145084.80
  143.25        2969.50           1489       30211.00    132218.70
  143.28        2969.75           1492       28190.00    123340.90
  143.30        2970.00           1495       26156.00    114410.80
  143.33        2970.25           1499       23872.00    104388.70
  143.36        2970.50           1502       21964.00     96021.19
  143.39        2970.75           1505       19907.00     87004.91
  143.42        2971.00           1509       17201.00     75151.38
  143.44        2971.25           1512       15094.00     65927.56
  143.47        2971.50           1515       13428.00     58637.94
  143.50        2971.75           1519       10854.00     47381.60
  143.53        2972.00           1522        9220.00     40239.92
  143.55        2972.25           1525        6936.00     30262.42
  143.58        2972.50           1529        4166.00     18169.89
  143.61        2972.75           1532        2185.00      9527.13
  143.64        2973.00           1536         653.00      2846.36
  143.67        2973.25           1539         283.00      1233.26
  143.70        2973.50           1542         168.00       731.93
  143.73        2973.75           1546         147.00       640.38
  143.76        2974.00           1549         127.00       553.19
  143.80        2974.25           1552         120.00       522.68
  143.83        2974.50           1556         118.00       513.96
  143.85        2974.75           1559         129.00       561.91
  143.88        2975.00           1562         121.00       527.04
  143.91        2975.25           1566         111.00       483.44
  143.95        2975.50           1569         110.00       479.08
  143.97        2975.75           1572         107.00       466.00
  144.00        2976.00           1576         108.00       470.36
  144.03        2976.25           1579         114.00       496.52
  144.06        2976.50           1582         114.00       496.52
  144.08        2976.75           1586         115.00       500.88
  144.11        2977.00           1589         119.00       518.32
  144.14        2977.25           1592         104.00       452.93
  144.17        2977.50           1596         111.00       483.44
  144.19        2977.75           1599         104.00       452.93
  144.22        2978.00           1602         110.00       479.08
  144.25        2978.25           1606         116.00       505.24
  144.28        2978.50           1609         107.00       466.00
  144.30        2978.75           1612         110.00       479.08
  144.33        2979.00           1616         107.00       466.00
  144.36        2979.25           1619         113.00       492.16
  144.39        2979.50           1623         108.00       470.36
  144.42        2979.75           1626         107.00       466.00
  144.45        2980.00           1629          98.00       426.77
  144.48        2980.25           1633         104.00       452.93
  144.51        2980.50           1636          96.00       418.05
  144.53        2980.75           1639         104.00       452.93
  144.56        2981.00           1643         109.00       474.72
  144.59        2981.25           1646         105.00       457.29
  144.62        2981.50           1649         106.00       461.65
  144.64        2981.75           1653         110.00       479.08
  144.67        2982.00           1656         101.00       439.85
  144.70        2982.25           1659          95.00       413.69
  144.73        2982.50           1663         102.00       444.21
  144.75        2982.75           1666         103.00       448.57
  144.78        2983.00           1669         106.00       461.65
  144.81        2983.25           1673         102.00       444.21
  144.84        2983.50           1676         104.00       452.93
  144.86        2983.75           1679         102.00       444.21
  144.89        2984.00           1683         103.00       448.57
HS scan finished at 02:25:11
end
