************************************************************
  HS Scan of (1) Internal mercury lamp
************************************************************
Integration time is 0.2294 seconds per sample
dh220418Delft 51.9969-4.3863 2.750537pr1000
************************************************************
Dead Time -------------------------  2.7E-08 
Number of Cycles Used -------------  4 
Starting Wavelength (Angstroms) ---  2950 
Final Wavelength (Angstoms) -------  2984 
Wavelength Increment (Angstroms) --  .25 
Filter Wheel #1 Position ---------- (1) Ground quartz diffuser (ND=2.32)
Filter Wheel #2 Position ---------- (1) Neutral Density 0.494



************************************************************
HS scan start time = 02:53:06
Dark Count =  0 


Time (GMT)  Wavelength (Ang)  Step Number  Raw Counts  Counts/Second

  173.55        2950.00           1229         120.00       523.11
  173.65        2950.25           1232         114.00       496.96
  173.68        2950.50           1236         120.00       523.11
  173.71        2950.75           1239         123.00       536.19
  173.74        2951.00           1242         122.00       531.83
  173.77        2951.25           1246         115.00       501.31
  173.80        2951.50           1249         117.00       510.03
  173.83        2951.75           1252         117.00       510.03
  173.86        2952.00           1256         121.00       527.47
  173.89        2952.25           1259         131.00       571.06
  173.92        2952.50           1262         111.00       483.88
  173.95        2952.75           1266         120.00       523.11
  173.98        2953.00           1269         124.00       540.55
  174.01        2953.25           1272         131.00       571.06
  174.04        2953.50           1276         115.00       501.31
  174.07        2953.75           1279         121.00       527.47
  174.10        2954.00           1282         115.00       501.31
  174.13        2954.25           1286         123.00       536.19
  174.16        2954.50           1289         116.00       505.67
  174.19        2954.75           1292         116.00       505.67
  174.22        2955.00           1296         122.00       531.83
  174.25        2955.25           1299         129.00       562.35
  174.28        2955.50           1302         119.00       518.75
  174.31        2955.75           1306         110.00       479.52
  174.34        2956.00           1309         114.00       496.96
  174.37        2956.25           1312         120.00       523.11
  174.40        2956.50           1316         107.00       466.44
  174.43        2956.75           1319         124.00       540.55
  174.46        2957.00           1322         117.00       510.03
  174.49        2957.25           1326         125.00       544.91
  174.52        2957.50           1329         114.00       496.96
  174.55        2957.75           1332         120.00       523.11
  174.58        2958.00           1336         118.00       514.39
  174.61        2958.25           1339         117.00       510.03
  174.64        2958.50           1342         116.00       505.67
  174.67        2958.75           1345         122.00       531.83
  174.70        2959.00           1349         122.00       531.83
  174.73        2959.25           1352         119.00       518.75
  174.76        2959.50           1355         117.00       510.03
  174.78        2959.75           1359         115.00       501.31
  174.81        2960.00           1362         108.00       470.80
  174.84        2960.25           1365         116.00       505.67
  174.87        2960.50           1369         116.00       505.67
  174.90        2960.75           1372         137.00       597.22
  174.93        2961.00           1375         142.00       619.02
  174.96        2961.25           1379         141.00       614.66
  174.99        2961.50           1382         263.00      1146.50
  175.02        2961.75           1385         727.00      3169.41
  175.05        2962.00           1389        2279.00      9937.28
  175.08        2962.25           1392        4204.00     18335.14
  175.11        2962.50           1395        6571.00     28666.47
  175.14        2962.75           1399       10479.00     45736.48
  175.17        2963.00           1402       13018.00     56835.19
  175.20        2963.25           1405       15424.00     67358.66
  175.23        2963.50           1409       19080.00     83360.91
  175.26        2963.75           1412       22059.00     96410.19
  175.29        2964.00           1415       25174.00    110065.10
  175.32        2964.25           1419       28734.00    125683.00
  175.35        2964.50           1422       31246.00    136711.20
  175.38        2964.75           1425       33591.00    147012.20
  175.41        2965.00           1429       37414.00    163818.00
  175.44        2965.25           1432       40187.00    176017.60
  175.47        2965.50           1435       42351.00    185543.60
  175.50        2965.75           1439       46344.00    203133.70
  175.53        2966.00           1442       49075.00    215174.10
  175.56        2966.25           1445       51654.00    226551.60
  175.59        2966.50           1449       54457.00    238925.20
  175.62        2966.75           1452       55592.00    243937.90
  175.65        2967.00           1455       55944.00    245492.80
  175.68        2967.25           1459       56022.00    245837.40
  175.71        2967.50           1462       55901.00    245302.90
  175.74        2967.75           1465       55841.00    245037.80
  175.77        2968.00           1469       54643.00    239746.60
  175.80        2968.25           1472       52990.00    232448.20
  175.83        2968.50           1475       50595.00    221878.90
  175.86        2968.75           1479       47625.00    208780.40
  175.89        2969.00           1482       45136.00    197810.40
  175.92        2969.25           1485       42378.00    185662.50
  175.95        2969.50           1489       39134.00    171384.10
  175.98        2969.75           1492       36378.00    159262.30
  176.01        2970.00           1495       34270.00    149996.00
  176.04        2970.25           1499       30713.00    134370.70
  176.07        2970.50           1502       28342.00    123962.60
  176.10        2970.75           1505       25665.00    112218.30
  176.13        2971.00           1509       22024.00     96256.82
  176.16        2971.25           1512       19545.00     85397.19
  176.19        2971.50           1515       16838.00     73546.08
  176.22        2971.75           1519       13623.00     59480.81
  176.25        2972.00           1522       11061.00     48279.99
  176.28        2972.25           1525        8532.00     37230.08
  176.31        2972.50           1529        5286.00     23057.07
  176.34        2972.75           1532        3083.00     13444.29
  176.37        2973.00           1535        1678.00      7316.18
  176.40        2973.25           1539         509.00      2218.96
  176.43        2973.50           1542         227.00       989.56
  176.46        2973.75           1546         171.00       745.44
  176.49        2974.00           1549         158.00       688.77
  176.52        2974.25           1552         141.00       614.66
  176.55        2974.50           1556         125.00       544.91
  176.58        2974.75           1559         111.00       483.88
  176.61        2975.00           1562         108.00       470.80
  176.64        2975.25           1566         118.00       514.39
  176.67        2975.50           1569         108.00       470.80
  176.70        2975.75           1572         105.00       457.72
  176.73        2976.00           1576         104.00       453.36
  176.76        2976.25           1579          96.00       418.49
  176.79        2976.50           1582         110.00       479.52
  176.82        2976.75           1586         113.00       492.60
  176.85        2977.00           1589         116.00       505.67
  176.88        2977.25           1592          97.00       422.85
  176.91        2977.50           1596         111.00       483.88
  176.94        2977.75           1599         117.00       510.03
  176.97        2978.00           1602         106.00       462.08
  177.00        2978.25           1606         108.00       470.80
  177.03        2978.50           1609         105.00       457.72
  177.06        2978.75           1612         110.00       479.52
  177.09        2979.00           1616         105.00       457.72
  177.12        2979.25           1619         107.00       466.44
  177.15        2979.50           1622         113.00       492.60
  177.18        2979.75           1626         110.00       479.52
  177.21        2980.00           1629         106.00       462.08
  177.23        2980.25           1632         103.00       449.00
  177.27        2980.50           1636         115.00       501.31
  177.30        2980.75           1639          96.00       418.49
  177.33        2981.00           1642         104.00       453.36
  177.35        2981.25           1646         113.00       492.60
  177.38        2981.50           1649         100.00       435.92
  177.41        2981.75           1653         107.00       466.44
  177.44        2982.00           1656         111.00       483.88
  177.47        2982.25           1659         106.00       462.08
  177.50        2982.50           1663         101.00       440.28
  177.53        2982.75           1666          98.00       427.21
  177.56        2983.00           1669          97.00       422.85
  177.59        2983.25           1673         107.00       466.44
  177.62        2983.50           1676         106.00       462.08
  177.65        2983.75           1679          96.00       418.49
  177.68        2984.00           1683          97.00       422.85
HS scan finished at 02:57:59
end
************************************************************
  HS Scan of (1) Internal mercury lamp
************************************************************
Integration time is 0.2294 seconds per sample
dh220418Delft 51.9969-4.3863 2.965129pr1000
************************************************************
Dead Time -------------------------  2.7E-08 
Number of Cycles Used -------------  4 
Starting Wavelength (Angstroms) ---  2950 
Final Wavelength (Angstoms) -------  2984 
Wavelength Increment (Angstroms) --  .25 
Filter Wheel #1 Position ---------- (1) Ground quartz diffuser (ND=2.32)
Filter Wheel #2 Position ---------- (1) Neutral Density 0.494



************************************************************
HS scan start time = 19:53:17
Dark Count =  .2 


Time (GMT)  Wavelength (Ang)  Step Number  Raw Counts  Counts/Second

 1193.74        2950.00           1229         113.00       491.72
 1193.84        2950.25           1232         114.00       496.08
 1193.87        2950.50           1236         117.00       509.16
 1193.90        2950.75           1239         113.00       491.72
 1193.93        2951.00           1242         123.00       535.32
 1193.96        2951.25           1246         115.00       500.44
 1193.99        2951.50           1249         111.00       483.01
 1194.02        2951.75           1252         126.00       548.40
 1194.05        2952.00           1256         122.00       530.96
 1194.08        2952.25           1259         112.00       487.36
 1194.11        2952.50           1262         108.00       469.93
 1194.14        2952.75           1266         119.00       517.88
 1194.17        2953.00           1269         109.00       474.29
 1194.20        2953.25           1272         110.00       478.65
 1194.23        2953.50           1276         118.00       513.52
 1194.26        2953.75           1279         114.00       496.08
 1194.29        2954.00           1282         114.00       496.08
 1194.32        2954.25           1286         123.00       535.32
 1194.35        2954.50           1289         109.00       474.29
 1194.38        2954.75           1292         108.00       469.93
 1194.41        2955.00           1296         111.00       483.01
 1194.44        2955.25           1299         118.00       513.52
 1194.47        2955.50           1302         109.00       474.29
 1194.50        2955.75           1306         115.00       500.44
 1194.53        2956.00           1309         108.00       469.93
 1194.55        2956.25           1312         111.00       483.01
 1194.58        2956.50           1316         112.00       487.36
 1194.61        2956.75           1319         119.00       517.88
 1194.65        2957.00           1322         110.00       478.65
 1194.67        2957.25           1326         113.00       491.72
 1194.70        2957.50           1329         116.00       504.80
 1194.73        2957.75           1332         112.00       487.36
 1194.76        2958.00           1336         115.00       500.44
 1194.79        2958.25           1339         108.00       469.93
 1194.82        2958.50           1342         113.00       491.72
 1194.85        2958.75           1345         106.00       461.21
 1194.88        2959.00           1349         111.00       483.01
 1194.91        2959.25           1352         112.00       487.36
 1194.94        2959.50           1355         107.00       465.57
 1194.97        2959.75           1359         101.00       439.41
 1195.00        2960.00           1362         110.00       478.65
 1195.03        2960.25           1365         102.00       443.77
 1195.06        2960.50           1369         104.00       452.49
 1195.09        2960.75           1372         122.00       530.96
 1195.12        2961.00           1375         125.00       544.04
 1195.15        2961.25           1379         130.00       565.83
 1195.18        2961.50           1382         180.00       783.80
 1195.21        2961.75           1385         518.00      2257.33
 1195.24        2962.00           1389        2048.00      8928.92
 1195.27        2962.25           1392        4080.00     17793.20
 1195.30        2962.50           1395        6886.00     30040.92
 1195.33        2962.75           1399       10487.00     45770.57
 1195.36        2963.00           1402       12820.00     55968.56
 1195.39        2963.25           1405       15492.00     67655.29
 1195.42        2963.50           1409       19841.00     86692.66
 1195.45        2963.75           1412       22884.00    100024.80
 1195.48        2964.00           1415       25769.00    112673.60
 1195.51        2964.25           1419       29233.00    127872.30
 1195.54        2964.50           1422       31656.00    138510.90
 1195.57        2964.75           1425       34681.00    151801.40
 1195.60        2965.00           1429       38858.00    170168.90
 1195.63        2965.25           1432       41340.00    181091.70
 1195.66        2965.50           1435       44485.00    194941.40
 1195.69        2965.75           1439       48245.00    211513.10
 1195.72        2966.00           1442       51103.00    224119.30
 1195.74        2966.25           1445       53629.00    235268.30
 1195.77        2966.50           1449       56927.00    249834.80
 1195.81        2966.75           1452       58440.00    256521.20
 1195.83        2967.00           1455       58939.00    258727.00
 1195.86        2967.25           1459       58934.00    258704.90
 1195.89        2967.50           1462       59024.00    259102.80
 1195.92        2967.75           1465       59027.00    259116.00
 1195.95        2968.00           1469       57683.00    253175.50
 1195.98        2968.25           1472       56167.00    246477.00
 1196.01        2968.50           1475       53975.00    236796.00
 1196.04        2968.75           1479       50629.00    222028.00
 1196.07        2969.00           1482       48230.00    211447.00
 1196.10        2969.25           1485       45489.00    199365.00
 1196.13        2969.50           1489       41795.00    183094.70
 1196.16        2969.75           1492       39254.00    171911.20
 1196.19        2970.00           1495       36914.00    161618.30
 1196.22        2970.25           1499       33306.00    145759.10
 1196.25        2970.50           1502       30691.00    134273.20
 1196.28        2970.75           1505       27643.00    120894.40
 1196.31        2971.00           1509       24068.00    105214.80
 1196.34        2971.25           1512       21018.00     91848.25
 1196.37        2971.50           1515       18310.00     79988.61
 1196.40        2971.75           1519       15193.00     66347.18
 1196.43        2972.00           1522       12206.00     53284.10
 1196.46        2972.25           1525        9498.00     41449.15
 1196.49        2972.50           1529        5921.00     25827.95
 1196.52        2972.75           1532        4003.00     17457.23
 1196.55        2973.00           1535        2086.00      9094.65
 1196.58        2973.25           1539         591.00      2575.59
 1196.61        2973.50           1542         234.00      1019.21
 1196.64        2973.75           1546         146.00       635.58
 1196.67        2974.00           1549         144.00       626.86
 1196.70        2974.25           1552         131.00       570.19
 1196.73        2974.50           1556         123.00       535.32
 1196.76        2974.75           1559         118.00       513.52
 1196.79        2975.00           1562         112.00       487.36
 1196.82        2975.25           1566         102.00       443.77
 1196.85        2975.50           1569         110.00       478.65
 1196.88        2975.75           1572         104.00       452.49
 1196.91        2976.00           1576          98.00       426.33
 1196.93        2976.25           1579         105.00       456.85
 1196.96        2976.50           1582         106.00       461.21
 1196.99        2976.75           1586         105.00       456.85
 1197.02        2977.00           1589         103.00       448.13
 1197.05        2977.25           1592          91.00       395.82
 1197.08        2977.50           1596         103.00       448.13
 1197.11        2977.75           1599          96.00       417.62
 1197.14        2978.00           1602         109.00       474.29
 1197.17        2978.25           1606          94.00       408.90
 1197.20        2978.50           1609          92.00       400.18
 1197.23        2978.75           1612         105.00       456.85
 1197.26        2979.00           1616          96.00       417.62
 1197.29        2979.25           1619         101.00       439.41
 1197.32        2979.50           1622         107.00       465.57
 1197.35        2979.75           1626         103.00       448.13
 1197.38        2980.00           1629          95.00       413.26
 1197.41        2980.25           1632         100.00       435.05
 1197.44        2980.50           1636         108.00       469.93
 1197.47        2980.75           1639          98.00       426.33
 1197.50        2981.00           1642         101.00       439.41
 1197.53        2981.25           1646         109.00       474.29
 1197.56        2981.50           1649         100.00       435.05
 1197.59        2981.75           1653         101.00       439.41
 1197.62        2982.00           1656          92.00       400.18
 1197.65        2982.25           1659          92.00       400.18
 1197.68        2982.50           1663          99.00       430.69
 1197.70        2982.75           1666          96.00       417.62
 1197.74        2983.00           1669          96.00       417.62
 1197.77        2983.25           1673         103.00       448.13
 1197.80        2983.50           1676          95.00       413.26
 1197.82        2983.75           1679          99.00       430.69
 1197.85        2984.00           1683          98.00       426.33
HS scan finished at 19:58:10
end
