************************************************************
  HS Scan of (1) Internal mercury lamp
************************************************************
Integration time is 0.2294 seconds per sample
dh250417DelftKZ 51.997-4.386 2.428648pr1000
************************************************************
Dead Time -------------------------  3E-08 
Number of Cycles Used -------------  4 
Starting Wavelength (Angstroms) ---  2950 
Final Wavelength (Angstoms) -------  2984 
Wavelength Increment (Angstroms) --  .25 
Filter Wheel #1 Position ---------- (1) Ground quartz diffuser (ND=2.32)
Filter Wheel #2 Position ---------- (1) Neutral Density 0.494



************************************************************
HS scan start time = 02:38:52
Dark Count =  .2 


Time (GMT)  Wavelength (Ang)  Step Number  Raw Counts  Counts/Second

  159.32        2950.00           1229         125.00       544.04
  159.42        2950.25           1232         138.00       600.71
  159.45        2950.50           1236         134.00       583.27
  159.48        2950.75           1239         123.00       535.32
  159.50        2951.00           1242         133.00       578.91
  159.53        2951.25           1246         123.00       535.32
  159.56        2951.50           1249         117.00       509.16
  159.59        2951.75           1252         133.00       578.91
  159.61        2952.00           1255         126.00       548.40
  159.64        2952.25           1259         128.00       557.11
  159.67        2952.50           1262         135.00       587.63
  159.70        2952.75           1265         136.00       591.99
  159.73        2953.00           1269         123.00       535.32
  159.76        2953.25           1272         125.00       544.04
  159.79        2953.50           1275         131.00       570.19
  159.82        2953.75           1279         125.00       544.04
  159.84        2954.00           1282         125.00       544.04
  159.87        2954.25           1285         123.00       535.32
  159.90        2954.50           1289         125.00       544.04
  159.93        2954.75           1292         131.00       570.19
  159.95        2955.00           1295         129.00       561.47
  159.98        2955.25           1299         132.00       574.55
  160.01        2955.50           1302         129.00       561.47
  160.04        2955.75           1305         124.00       539.68
  160.07        2956.00           1309         130.00       565.83
  160.10        2956.25           1312         122.00       530.96
  160.12        2956.50           1315         137.00       596.35
  160.15        2956.75           1319         123.00       535.32
  160.18        2957.00           1322         114.00       496.08
  160.21        2957.25           1325         120.00       522.24
  160.24        2957.50           1329         123.00       535.32
  160.27        2957.75           1332         118.00       513.52
  160.30        2958.00           1335         119.00       517.88
  160.33        2958.25           1339         121.00       526.60
  160.36        2958.50           1342         123.00       535.32
  160.38        2958.75           1345         115.00       500.44
  160.41        2959.00           1349         121.00       526.60
  160.44        2959.25           1352         127.00       552.76
  160.47        2959.50           1355         123.00       535.32
  160.50        2959.75           1359         115.00       500.44
  160.52        2960.00           1362         119.00       517.88
  160.55        2960.25           1365         124.00       539.68
  160.58        2960.50           1369         135.00       587.63
  160.61        2960.75           1372         131.00       570.19
  160.63        2961.00           1375         145.00       631.22
  160.66        2961.25           1379         153.00       666.10
  160.69        2961.50           1382         238.00      1036.65
  160.72        2961.75           1385         706.00      3077.01
  160.75        2962.00           1389        2281.00      9945.43
  160.78        2962.25           1392        4155.00     18121.45
  160.80        2962.50           1395        6075.00     26502.32
  160.83        2962.75           1399        8419.00     36739.69
  160.86        2963.00           1402       10544.00     46026.02
  160.89        2963.25           1405       12997.00     56752.17
  160.92        2963.50           1409       15673.00     68461.31
  160.94        2963.75           1412       18285.00     79898.35
  160.97        2964.00           1415       20811.00     90966.31
  161.00        2964.25           1419       23896.00    104493.60
  161.03        2964.50           1422       26190.00    114559.60
  161.05        2964.75           1425       28335.00    123977.30
  161.08        2965.00           1429       31468.00    137742.40
  161.11        2965.25           1432       33566.00    146966.50
  161.14        2965.50           1435       35520.00    155562.10
  161.17        2965.75           1439       37998.00    166469.20
  161.19        2966.00           1442       40335.00    176762.30
  161.22        2966.25           1445       42393.00    185831.70
  161.25        2966.50           1449       44756.00    196251.40
  161.28        2966.75           1452       45837.00    201020.30
  161.30        2967.00           1455       46246.00    202825.00
  161.33        2967.25           1459       46425.00    203614.90
  161.36        2967.50           1462       46243.00    202811.80
  161.39        2967.75           1465       46392.00    203469.30
  161.42        2968.00           1469       45507.00    199564.40
  161.44        2968.25           1472       44408.00    194716.50
  161.47        2968.50           1475       42674.00    187070.50
  161.50        2968.75           1479       40059.00    175546.30
  161.53        2969.00           1482       37881.00    165954.10
  161.55        2969.25           1485       35788.00    156741.40
  161.59        2969.50           1489       32587.00    142661.60
  161.62        2969.75           1492       30108.00    131765.70
  161.65        2970.00           1495       28105.00    122967.20
  161.67        2970.25           1499       25857.00    113098.00
  161.70        2970.50           1502       23447.00    102524.10
  161.73        2970.75           1505       21341.00     93289.50
  161.76        2971.00           1509       18922.00     82688.75
  161.78        2971.25           1512       16782.00     73316.28
  161.81        2971.50           1515       14503.00     63340.82
  161.84        2971.75           1519       11463.00     50043.69
  161.87        2972.00           1522        8969.00     39142.71
  161.90        2972.25           1525        6634.00     28943.17
  161.92        2972.50           1529        4142.00     18064.71
  161.95        2972.75           1532        2310.00     10071.92
  161.98        2973.00           1536         836.00      3643.82
  162.01        2973.25           1539         313.00      1363.61
  162.03        2973.50           1542         158.00       687.90
  162.06        2973.75           1546         144.00       626.86
  162.09        2974.00           1549         132.00       574.55
  162.12        2974.25           1552         141.00       613.79
  162.14        2974.50           1556         123.00       535.32
  162.17        2974.75           1559         113.00       491.72
  162.20        2975.00           1562         111.00       483.01
  162.23        2975.25           1566         113.00       491.72
  162.25        2975.50           1569         113.00       491.72
  162.28        2975.75           1572         110.00       478.65
  162.31        2976.00           1576         110.00       478.65
  162.34        2976.25           1579         109.00       474.29
  162.36        2976.50           1582         112.00       487.37
  162.39        2976.75           1586         124.00       539.68
  162.42        2977.00           1589         111.00       483.01
  162.45        2977.25           1592         116.00       504.80
  162.48        2977.50           1596         101.00       439.41
  162.50        2977.75           1599         108.00       469.93
  162.53        2978.00           1602         105.00       456.85
  162.56        2978.25           1606         115.00       500.44
  162.59        2978.50           1609         101.00       439.41
  162.62        2978.75           1612         110.00       478.65
  162.64        2979.00           1616         102.00       443.77
  162.67        2979.25           1619         113.00       491.72
  162.70        2979.50           1623         111.00       483.01
  162.73        2979.75           1626         109.00       474.29
  162.75        2980.00           1629         103.00       448.13
  162.78        2980.25           1633         103.00       448.13
  162.81        2980.50           1636         107.00       465.57
  162.84        2980.75           1639         112.00       487.37
  162.86        2981.00           1643         104.00       452.49
  162.89        2981.25           1646         105.00       456.85
  162.92        2981.50           1649         112.00       487.37
  162.95        2981.75           1653         100.00       435.05
  162.97        2982.00           1656         103.00       448.13
  163.00        2982.25           1659         107.00       465.57
  163.03        2982.50           1663         112.00       487.37
  163.06        2982.75           1666         115.00       500.44
  163.09        2983.00           1669         115.00       500.44
  163.12        2983.25           1673          96.00       417.62
  163.15        2983.50           1676         105.00       456.85
  163.17        2983.75           1679         100.00       435.05
  163.20        2984.00           1683         105.00       456.85
HS scan finished at 02:43:30
end
