************************************************************
  HS Scan of (1) Internal mercury lamp
************************************************************
Integration time is 0.2294 seconds per sample
dh200418Delft 51.9969-4.3863 2.965129pr1000
************************************************************
Dead Time -------------------------  2.7E-08 
Number of Cycles Used -------------  4 
Starting Wavelength (Angstroms) ---  2950 
Final Wavelength (Angstoms) -------  2984 
Wavelength Increment (Angstroms) --  .25 
Filter Wheel #1 Position ---------- (1) Ground quartz diffuser (ND=2.32)
Filter Wheel #2 Position ---------- (1) Neutral Density 0.494



************************************************************
HS scan start time = 03:00:40
Dark Count =  .1 


Time (GMT)  Wavelength (Ang)  Step Number  Raw Counts  Counts/Second

  181.13        2950.00           1229         122.00       531.39
  181.23        2950.25           1232         117.00       509.60
  181.26        2950.50           1236         112.00       487.80
  181.29        2950.75           1239         112.00       487.80
  181.32        2951.00           1242         110.00       479.08
  181.35        2951.25           1246         111.00       483.44
  181.37        2951.50           1249         109.00       474.72
  181.40        2951.75           1252         112.00       487.80
  181.43        2952.00           1256         108.00       470.36
  181.46        2952.25           1259         114.00       496.52
  181.49        2952.50           1262         109.00       474.72
  181.52        2952.75           1266         109.00       474.72
  181.55        2953.00           1269         108.00       470.36
  181.58        2953.25           1272         107.00       466.00
  181.61        2953.50           1276         114.00       496.52
  181.64        2953.75           1279         113.00       492.16
  181.67        2954.00           1282         101.00       439.85
  181.70        2954.25           1286         110.00       479.08
  181.73        2954.50           1289         102.00       444.21
  181.76        2954.75           1292         110.00       479.08
  181.79        2955.00           1296         110.00       479.08
  181.82        2955.25           1299         115.00       500.88
  181.85        2955.50           1302         115.00       500.88
  181.88        2955.75           1306         103.00       448.57
  181.91        2956.00           1309         110.00       479.08
  181.94        2956.25           1312         114.00       496.52
  181.97        2956.50           1316         108.00       470.36
  182.00        2956.75           1319         108.00       470.36
  182.03        2957.00           1322         100.00       435.49
  182.06        2957.25           1326         110.00       479.08
  182.09        2957.50           1329         110.00       479.08
  182.12        2957.75           1332         115.00       500.88
  182.15        2958.00           1336         115.00       500.88
  182.18        2958.25           1339         110.00       479.08
  182.21        2958.50           1342         107.00       466.00
  182.24        2958.75           1345         103.00       448.57
  182.27        2959.00           1349         102.00       444.21
  182.30        2959.25           1352         101.00       439.85
  182.33        2959.50           1355         113.00       492.16
  182.36        2959.75           1359         106.00       461.64
  182.39        2960.00           1362         107.00       466.00
  182.42        2960.25           1365         107.00       466.00
  182.45        2960.50           1369         114.00       496.52
  182.48        2960.75           1372         126.00       548.83
  182.51        2961.00           1375         128.00       557.55
  182.54        2961.25           1379         129.00       561.91
  182.57        2961.50           1382         190.00       827.83
  182.60        2961.75           1385         623.00      2715.54
  182.63        2962.00           1389        2258.00      9845.25
  182.66        2962.25           1392        4305.00     18775.43
  182.69        2962.50           1395        6787.00     29609.10
  182.72        2962.75           1399       10830.00     47269.97
  182.75        2963.00           1402       13381.00     58422.08
  182.78        2963.25           1405       15994.00     69852.20
  182.81        2963.50           1409       20082.00     87748.62
  182.84        2963.75           1412       23157.00    101221.80
  182.87        2964.00           1415       26286.00    114941.60
  182.90        2964.25           1419       29859.00    130620.70
  182.93        2964.50           1422       32600.00    142657.90
  182.96        2964.75           1425       34901.00    152768.80
  182.99        2965.00           1429       39305.00    172136.00
  183.01        2965.25           1432       42340.00    185494.70
  183.05        2965.50           1435       44699.00    195884.60
  183.08        2965.75           1439       48759.00    213780.10
  183.11        2966.00           1442       51576.00    226206.90
  183.13        2966.25           1445       54512.00    239167.60
  183.16        2966.50           1449       57915.00    254201.30
  183.19        2966.75           1452       59317.00    260398.50
  183.22        2967.00           1455       59533.00    261353.50
  183.25        2967.25           1459       59441.00    260946.70
  183.28        2967.50           1462       59607.00    261680.70
  183.31        2967.75           1465       59448.00    260977.70
  183.34        2968.00           1469       58415.00    256411.20
  183.37        2968.25           1472       56554.00    248187.20
  183.40        2968.50           1475       54323.00    238333.00
  183.43        2968.75           1479       51135.00    224261.00
  183.46        2969.00           1482       48738.00    213687.50
  183.49        2969.25           1485       45776.00    200630.10
  183.52        2969.50           1489       42067.00    184292.70
  183.55        2969.75           1492       39276.00    172008.40
  183.58        2970.00           1495       36694.00    160651.30
  183.61        2970.25           1499       33347.00    145939.70
  183.64        2970.50           1502       30760.00    134576.60
  183.67        2970.75           1505       27712.00    121197.60
  183.70        2971.00           1509       23773.00    103922.00
  183.73        2971.25           1512       20993.00     91739.16
  183.76        2971.50           1515       18251.00     79730.75
  183.79        2971.75           1519       14920.00     65153.32
  183.82        2972.00           1522       12240.00     53433.18
  183.85        2972.25           1525        9408.00     41056.39
  183.88        2972.50           1529        5603.00     24440.27
  183.91        2972.75           1532        3488.00     15210.69
  183.94        2973.00           1535        1989.00      8672.04
  183.97        2973.25           1539         536.00      2336.24
  184.00        2973.50           1542         229.00       997.85
  184.03        2973.75           1546         164.00       714.49
  184.06        2974.00           1549         139.00       605.50
  184.09        2974.25           1552         135.00       588.07
  184.12        2974.50           1556         129.00       561.91
  184.15        2974.75           1559         114.00       496.52
  184.18        2975.00           1562         106.00       461.64
  184.21        2975.25           1566         113.00       492.16
  184.24        2975.50           1569         112.00       487.80
  184.27        2975.75           1572         108.00       470.36
  184.30        2976.00           1576          99.00       431.13
  184.33        2976.25           1579          97.00       422.41
  184.36        2976.50           1582         102.00       444.21
  184.39        2976.75           1586         102.00       444.21
  184.42        2977.00           1589          99.00       431.13
  184.45        2977.25           1592         102.00       444.21
  184.48        2977.50           1596          89.00       387.54
  184.51        2977.75           1599         102.00       444.21
  184.54        2978.00           1602          96.00       418.05
  184.57        2978.25           1606          95.00       413.69
  184.60        2978.50           1609          97.00       422.41
  184.63        2978.75           1612         104.00       452.93
  184.66        2979.00           1616         105.00       457.29
  184.69        2979.25           1619         101.00       439.85
  184.72        2979.50           1622          96.00       418.05
  184.75        2979.75           1626         108.00       470.36
  184.77        2980.00           1629          94.00       409.33
  184.80        2980.25           1632          96.00       418.05
  184.83        2980.50           1636          94.00       409.33
  184.86        2980.75           1639         107.00       466.00
  184.89        2981.00           1642          97.00       422.41
  184.92        2981.25           1646          94.00       409.33
  184.95        2981.50           1649          95.00       413.69
  184.98        2981.75           1653          93.00       404.97
  185.01        2982.00           1656          92.00       400.61
  185.04        2982.25           1659          95.00       413.69
  185.07        2982.50           1663         102.00       444.21
  185.10        2982.75           1666         100.00       435.49
  185.13        2983.00           1669          93.00       404.97
  185.16        2983.25           1673          94.00       409.33
  185.19        2983.50           1676          95.00       413.69
  185.22        2983.75           1679          96.00       418.05
  185.25        2984.00           1683          88.00       383.18
HS scan finished at 03:05:33
end
************************************************************
  HS Scan of (1) Internal mercury lamp
************************************************************
Integration time is 0.2294 seconds per sample
dh200418Delft 51.9969-4.3863 2.857833pr1000
************************************************************
Dead Time -------------------------  2.7E-08 
Number of Cycles Used -------------  4 
Starting Wavelength (Angstroms) ---  2950 
Final Wavelength (Angstoms) -------  2984 
Wavelength Increment (Angstroms) --  .25 
Filter Wheel #1 Position ---------- (1) Ground quartz diffuser (ND=2.32)
Filter Wheel #2 Position ---------- (1) Neutral Density 0.494



************************************************************
HS scan start time = 19:52:17
Dark Count =  0 


Time (GMT)  Wavelength (Ang)  Step Number  Raw Counts  Counts/Second

 1192.73        2950.00           1229         117.00       510.03
 1192.83        2950.25           1232         121.00       527.47
 1192.86        2950.50           1236         120.00       523.11
 1192.89        2950.75           1239         117.00       510.03
 1192.92        2951.00           1242         132.00       575.42
 1192.95        2951.25           1246         116.00       505.67
 1192.98        2951.50           1249         123.00       536.19
 1193.01        2951.75           1252         116.00       505.67
 1193.04        2952.00           1256         128.00       557.99
 1193.07        2952.25           1259         117.00       510.03
 1193.10        2952.50           1262         111.00       483.88
 1193.13        2952.75           1266         126.00       549.27
 1193.16        2953.00           1269         119.00       518.75
 1193.19        2953.25           1272         120.00       523.11
 1193.22        2953.50           1276         116.00       505.67
 1193.25        2953.75           1279         110.00       479.52
 1193.28        2954.00           1282         123.00       536.19
 1193.31        2954.25           1286         116.00       505.67
 1193.34        2954.50           1289         118.00       514.39
 1193.37        2954.75           1292         114.00       496.96
 1193.40        2955.00           1296         118.00       514.39
 1193.43        2955.25           1299         114.00       496.96
 1193.46        2955.50           1302         121.00       527.47
 1193.49        2955.75           1306         115.00       501.31
 1193.52        2956.00           1309         120.00       523.11
 1193.55        2956.25           1312         122.00       531.83
 1193.58        2956.50           1316         122.00       531.83
 1193.61        2956.75           1319         109.00       475.16
 1193.64        2957.00           1322         116.00       505.67
 1193.67        2957.25           1326         118.00       514.39
 1193.70        2957.50           1329         115.00       501.31
 1193.73        2957.75           1332         114.00       496.96
 1193.76        2958.00           1336         107.00       466.44
 1193.79        2958.25           1339         105.00       457.72
 1193.82        2958.50           1342         117.00       510.03
 1193.85        2958.75           1345         117.00       510.03
 1193.87        2959.00           1349         121.00       527.47
 1193.91        2959.25           1352         111.00       483.88
 1193.93        2959.50           1355         116.00       505.67
 1193.96        2959.75           1359         109.00       475.16
 1193.99        2960.00           1362         121.00       527.47
 1194.02        2960.25           1365         117.00       510.03
 1194.05        2960.50           1369         117.00       510.03
 1194.08        2960.75           1372         129.00       562.35
 1194.11        2961.00           1375         129.00       562.35
 1194.14        2961.25           1379         147.00       640.81
 1194.17        2961.50           1382         191.00       832.63
 1194.20        2961.75           1385         510.00      2223.32
 1194.23        2962.00           1389        2067.00      9012.66
 1194.26        2962.25           1392        4087.00     17824.62
 1194.29        2962.50           1395        6866.00     29954.47
 1194.32        2962.75           1399       10215.00     44582.85
 1194.35        2963.00           1402       12440.00     54307.99
 1194.38        2963.25           1405       15072.00     65818.71
 1194.41        2963.50           1409       18861.00     82401.96
 1194.44        2963.75           1412       22158.00     96844.00
 1194.47        2964.00           1415       24937.00    109025.80
 1194.50        2964.25           1419       28375.00    124107.40
 1194.53        2964.50           1422       30639.00    134045.70
 1194.56        2964.75           1425       33636.00    147209.90
 1194.59        2965.00           1429       37383.00    163681.70
 1194.62        2965.25           1432       39952.00    174983.40
 1194.65        2965.50           1435       42795.00    187498.70
 1194.68        2965.75           1439       46611.00    204310.50
 1194.71        2966.00           1442       48939.00    214574.40
 1194.74        2966.25           1445       51386.00    225369.00
 1194.77        2966.50           1449       54955.00    241124.50
 1194.80        2966.75           1452       56119.00    246265.90
 1194.83        2967.00           1455       56533.00    248094.90
 1194.86        2967.25           1459       56797.00    249261.30
 1194.89        2967.50           1462       56717.00    248907.80
 1194.92        2967.75           1465       56435.00    247661.90
 1194.95        2968.00           1469       55261.00    242475.90
 1194.98        2968.25           1472       53695.00    235560.60
 1195.01        2968.50           1475       51769.00    227059.10
 1195.04        2968.75           1479       48658.00    213335.20
 1195.07        2969.00           1482       46076.00    201952.60
 1195.10        2969.25           1485       43670.00    191352.30
 1195.13        2969.50           1489       40026.00    175309.10
 1195.16        2969.75           1492       37864.00    165797.20
 1195.19        2970.00           1495       35268.00    154382.40
 1195.22        2970.25           1499       31984.00    139952.40
 1195.25        2970.50           1502       29111.00    127337.70
 1195.28        2970.75           1505       26449.00    115657.00
 1195.31        2971.00           1509       22761.00     99486.58
 1195.34        2971.25           1512       20159.00     88086.32
 1195.37        2971.50           1515       17338.00     75734.49
 1195.40        2971.75           1519       14334.00     62590.43
 1195.43        2972.00           1522       11738.00     51239.10
 1195.46        2972.25           1525        9010.00     39318.10
 1195.49        2972.50           1529        5578.00     24331.59
 1195.52        2972.75           1532        3736.00     16293.13
 1195.55        2973.00           1535        1935.00      8436.97
 1195.58        2973.25           1539         540.00      2354.12
 1195.61        2973.50           1542         226.00       985.20
 1195.64        2973.75           1546         144.00       627.74
 1195.67        2974.00           1549         149.00       649.53
 1195.70        2974.25           1552         139.00       605.94
 1195.73        2974.50           1556         137.00       597.22
 1195.76        2974.75           1559         126.00       549.27
 1195.78        2975.00           1562         116.00       505.67
 1195.81        2975.25           1566         116.00       505.67
 1195.84        2975.50           1569         114.00       496.96
 1195.87        2975.75           1572         108.00       470.80
 1195.90        2976.00           1576         110.00       479.52
 1195.93        2976.25           1579          99.00       431.57
 1195.96        2976.50           1582         106.00       462.08
 1195.99        2976.75           1586         110.00       479.52
 1196.02        2977.00           1589          98.00       427.21
 1196.05        2977.25           1592         113.00       492.60
 1196.08        2977.50           1596         112.00       488.24
 1196.11        2977.75           1599         115.00       501.31
 1196.14        2978.00           1602         108.00       470.80
 1196.17        2978.25           1606         106.00       462.08
 1196.20        2978.50           1609          99.00       431.57
 1196.23        2978.75           1612         103.00       449.00
 1196.26        2979.00           1616          96.00       418.49
 1196.29        2979.25           1619         106.00       462.08
 1196.32        2979.50           1622         106.00       462.08
 1196.35        2979.75           1626         103.00       449.00
 1196.38        2980.00           1629         107.00       466.44
 1196.41        2980.25           1632         101.00       440.28
 1196.44        2980.50           1636         105.00       457.72
 1196.47        2980.75           1639         101.00       440.28
 1196.50        2981.00           1642         106.00       462.08
 1196.53        2981.25           1646          97.00       422.85
 1196.56        2981.50           1649          98.00       427.21
 1196.59        2981.75           1653         104.00       453.36
 1196.62        2982.00           1656         104.00       453.36
 1196.65        2982.25           1659         106.00       462.08
 1196.68        2982.50           1663          97.00       422.85
 1196.70        2982.75           1666          95.00       414.13
 1196.74        2983.00           1669          99.00       431.57
 1196.76        2983.25           1673         101.00       440.28
 1196.79        2983.50           1676         103.00       449.00
 1196.82        2983.75           1679         107.00       466.44
 1196.85        2984.00           1683          99.00       431.57
HS scan finished at 19:57:10
end
