************************************************************
  HS Scan of (1) Internal mercury lamp
************************************************************
Integration time is 0.2294 seconds per sample
dh230417DelftKZ 51.997-4.386 2.321352pr1000
************************************************************
Dead Time -------------------------  3E-08 
Number of Cycles Used -------------  4 
Starting Wavelength (Angstroms) ---  2950 
Final Wavelength (Angstoms) -------  2984 
Wavelength Increment (Angstroms) --  .25 
Filter Wheel #1 Position ---------- (1) Ground quartz diffuser (ND=2.32)
Filter Wheel #2 Position ---------- (1) Neutral Density 0.494



************************************************************
HS scan start time = 02:32:46
Dark Count =  0 


Time (GMT)  Wavelength (Ang)  Step Number  Raw Counts  Counts/Second

  153.21        2950.00           1229         138.00       601.58
  153.31        2950.25           1232         137.00       597.22
  153.34        2950.50           1236         125.00       544.91
  153.37        2950.75           1239         132.00       575.42
  153.39        2951.00           1242         128.00       557.99
  153.42        2951.25           1246         136.00       592.86
  153.45        2951.50           1249         130.00       566.71
  153.48        2951.75           1252         134.00       584.14
  153.50        2952.00           1255         129.00       562.35
  153.53        2952.25           1259         134.00       584.14
  153.57        2952.50           1262         122.00       531.83
  153.60        2952.75           1265         114.00       496.96
  153.63        2953.00           1269         127.00       553.63
  153.66        2953.25           1272         129.00       562.35
  153.68        2953.50           1275         119.00       518.75
  153.71        2953.75           1279         124.00       540.55
  153.74        2954.00           1282         116.00       505.67
  153.77        2954.25           1285         127.00       553.63
  153.80        2954.50           1289         126.00       549.27
  153.82        2954.75           1292         120.00       523.11
  153.85        2955.00           1295         126.00       549.27
  153.88        2955.25           1299         137.00       597.22
  153.91        2955.50           1302         124.00       540.55
  153.93        2955.75           1305         122.00       531.83
  153.96        2956.00           1309         125.00       544.91
  153.99        2956.25           1312         135.00       588.50
  154.02        2956.50           1315         125.00       544.91
  154.04        2956.75           1319         120.00       523.11
  154.07        2957.00           1322         142.00       619.02
  154.10        2957.25           1325         134.00       584.14
  154.13        2957.50           1329         117.00       510.03
  154.16        2957.75           1332         127.00       553.63
  154.18        2958.00           1335         127.00       553.63
  154.21        2958.25           1339         118.00       514.39
  154.24        2958.50           1342         119.00       518.75
  154.27        2958.75           1345         117.00       510.03
  154.29        2959.00           1349         118.00       514.39
  154.32        2959.25           1352         129.00       562.35
  154.35        2959.50           1355         123.00       536.19
  154.38        2959.75           1359         104.00       453.36
  154.40        2960.00           1362         128.00       557.99
  154.43        2960.25           1365         122.00       531.83
  154.46        2960.50           1369         115.00       501.32
  154.49        2960.75           1372         129.00       562.35
  154.52        2961.00           1375         137.00       597.22
  154.55        2961.25           1379         135.00       588.50
  154.58        2961.50           1382         254.00      1107.27
  154.61        2961.75           1385         752.00      3278.44
  154.63        2962.00           1389        1996.00      8703.23
  154.66        2962.25           1392        3578.00     15604.52
  154.69        2962.50           1395        5605.00     24451.24
  154.72        2962.75           1399        8088.00     35294.55
  154.76        2963.00           1402       10174.00     44409.61
  154.79        2963.25           1405       12364.00     53984.49
  154.82        2963.50           1409       15182.00     66313.13
  154.84        2963.75           1412       17290.00     75541.53
  154.87        2964.00           1415       19592.00     85625.07
  154.90        2964.25           1419       22511.00     98420.08
  154.93        2964.50           1422       24320.00    106354.50
  154.95        2964.75           1425       26254.00    114841.40
  154.98        2965.00           1429       29051.00    127123.00
  155.01        2965.25           1432       30865.00    135093.00
  155.04        2965.50           1435       32979.00    144386.10
  155.07        2965.75           1439       35893.00    157204.30
  155.09        2966.00           1442       37456.00    164083.90
  155.12        2966.25           1445       39623.00    173626.60
  155.15        2966.50           1449       41827.00    183337.80
  155.18        2966.75           1452       42847.00    187834.00
  155.21        2967.00           1455       43408.00    190307.50
  155.23        2967.25           1459       43353.00    190065.00
  155.26        2967.50           1462       43373.00    190153.20
  155.29        2967.75           1465       43429.00    190400.10
  155.32        2968.00           1469       42952.00    188297.00
  155.35        2968.25           1472       41628.00    182460.70
  155.37        2968.50           1475       39958.00    175102.30
  155.40        2968.75           1479       37345.00    163595.20
  155.43        2969.00           1482       35199.00    154150.60
  155.46        2969.25           1485       33163.00    145195.10
  155.48        2969.50           1489       30646.00    134130.60
  155.51        2969.75           1492       28679.00    125489.00
  155.54        2970.00           1495       26424.00    115587.60
  155.57        2970.25           1499       24368.00    106565.10
  155.60        2970.50           1502       22464.00     98213.98
  155.63        2970.75           1505       20568.00     89902.12
  155.66        2971.00           1509       17761.00     77604.18
  155.69        2971.25           1512       15182.00     66313.13
  155.71        2971.50           1515       13132.00     57343.55
  155.74        2971.75           1519       10746.00     46909.92
  155.77        2972.00           1522        8604.00     37548.81
  155.81        2972.25           1525        6602.00     28804.31
  155.83        2972.50           1529        4060.00     17707.75
  155.86        2972.75           1532        2058.00      8973.65
  155.89        2973.00           1536         741.00      3230.48
  155.92        2973.25           1539         322.00      1403.72
  155.95        2973.50           1542         193.00       841.35
  155.97        2973.75           1546         141.00       614.66
  156.00        2974.00           1549         140.00       610.30
  156.03        2974.25           1552         129.00       562.35
  156.06        2974.50           1556         120.00       523.11
  156.08        2974.75           1559         107.00       466.44
  156.11        2975.00           1562         117.00       510.03
  156.14        2975.25           1566         102.00       444.64
  156.17        2975.50           1569         109.00       475.16
  156.19        2975.75           1572         114.00       496.96
  156.22        2976.00           1576         108.00       470.80
  156.25        2976.25           1579         113.00       492.60
  156.28        2976.50           1582         115.00       501.32
  156.31        2976.75           1586         114.00       496.96
  156.34        2977.00           1589         102.00       444.64
  156.37        2977.25           1592         115.00       501.32
  156.40        2977.50           1596         110.00       479.52
  156.42        2977.75           1599         113.00       492.60
  156.45        2978.00           1602         104.00       453.36
  156.48        2978.25           1606         105.00       457.72
  156.51        2978.50           1609         104.00       453.36
  156.53        2978.75           1612         107.00       466.44
  156.56        2979.00           1616         120.00       523.11
  156.59        2979.25           1619         104.00       453.36
  156.62        2979.50           1623         108.00       470.80
  156.65        2979.75           1626         110.00       479.52
  156.67        2980.00           1629         109.00       475.16
  156.70        2980.25           1633         108.00       470.80
  156.73        2980.50           1636         101.00       440.28
  156.76        2980.75           1639         107.00       466.44
  156.78        2981.00           1643         106.00       462.08
  156.81        2981.25           1646         108.00       470.80
  156.84        2981.50           1649         106.00       462.08
  156.87        2981.75           1653         114.00       496.96
  156.90        2982.00           1656         105.00       457.72
  156.92        2982.25           1659         105.00       457.72
  156.95        2982.50           1663         100.00       435.93
  156.98        2982.75           1666         106.00       462.08
  157.01        2983.00           1669         101.00       440.28
  157.03        2983.25           1673          98.00       427.21
  157.06        2983.50           1676          97.00       422.85
  157.09        2983.75           1679         103.00       449.00
  157.12        2984.00           1683         106.00       462.08
HS scan finished at 02:37:25
end
