************************************************************
  HS Scan of (1) Internal mercury lamp
************************************************************
Integration time is 0.2294 seconds per sample
dh210417DelftKZ 51.997-4.386 2.535944pr1000
************************************************************
Dead Time -------------------------  3E-08 
Number of Cycles Used -------------  4 
Starting Wavelength (Angstroms) ---  2950 
Final Wavelength (Angstoms) -------  2984 
Wavelength Increment (Angstroms) --  .25 
Filter Wheel #1 Position ---------- (1) Ground quartz diffuser (ND=2.32)
Filter Wheel #2 Position ---------- (1) Neutral Density 0.494



************************************************************
HS scan start time = 00:25:19
Dark Count =  .1 


Time (GMT)  Wavelength (Ang)  Step Number  Raw Counts  Counts/Second

   25.78        2950.00           1229         127.00       553.19
   25.88        2950.25           1232         126.00       548.83
   25.91        2950.50           1236         125.00       544.47
   25.94        2950.75           1239         127.00       553.19
   25.97        2951.00           1242         119.00       518.32
   26.00        2951.25           1246         120.00       522.68
   26.02        2951.50           1249         138.00       601.14
   26.05        2951.75           1252         125.00       544.47
   26.08        2952.00           1255         132.00       574.99
   26.11        2952.25           1259         119.00       518.32
   26.13        2952.50           1262         140.00       609.86
   26.16        2952.75           1265         140.00       609.86
   26.19        2953.00           1269         137.00       596.78
   26.22        2953.25           1272         127.00       553.19
   26.24        2953.50           1275         129.00       561.91
   26.27        2953.75           1279         136.00       592.43
   26.30        2954.00           1282         125.00       544.47
   26.33        2954.25           1285         130.00       566.27
   26.36        2954.50           1289         132.00       574.99
   26.38        2954.75           1292         128.00       557.55
   26.41        2955.00           1295         129.00       561.91
   26.44        2955.25           1299         127.00       553.19
   26.47        2955.50           1302         133.00       579.35
   26.49        2955.75           1305         126.00       548.83
   26.53        2956.00           1309         130.00       566.27
   26.56        2956.25           1312         129.00       561.91
   26.58        2956.50           1315         128.00       557.55
   26.61        2956.75           1319         121.00       527.04
   26.64        2957.00           1322         125.00       544.47
   26.67        2957.25           1325         129.00       561.91
   26.70        2957.50           1329         123.00       535.75
   26.72        2957.75           1332         122.00       531.39
   26.75        2958.00           1335         118.00       513.96
   26.78        2958.25           1339         126.00       548.83
   26.81        2958.50           1342         117.00       509.60
   26.83        2958.75           1345         121.00       527.04
   26.86        2959.00           1349         121.00       527.04
   26.89        2959.25           1352         122.00       531.39
   26.92        2959.50           1355         112.00       487.80
   26.94        2959.75           1359         116.00       505.24
   26.97        2960.00           1362         118.00       513.96
   27.00        2960.25           1365         130.00       566.27
   27.03        2960.50           1369         142.00       618.58
   27.06        2960.75           1372         135.00       588.07
   27.08        2961.00           1375         138.00       601.14
   27.11        2961.25           1379         154.00       670.89
   27.14        2961.50           1382         216.00       941.18
   27.17        2961.75           1385         585.00      2549.89
   27.19        2962.00           1389        2351.00     10251.19
   27.22        2962.25           1392        4312.00     18807.03
   27.25        2962.50           1395        6377.00     27821.38
   27.28        2962.75           1399        8986.00     39217.43
   27.30        2963.00           1402       11987.00     52335.38
   27.33        2963.25           1405       14606.00     63791.98
   27.36        2963.50           1409       17699.00     77332.21
   27.39        2963.75           1412       20849.00     91133.31
   27.42        2964.00           1415       23489.00    102708.80
   27.44        2964.25           1419       26970.00    117984.00
   27.47        2964.50           1422       29706.00    129999.90
   27.50        2964.75           1425       32382.00    141760.70
   27.53        2965.00           1429       35824.00    156900.30
   27.55        2965.25           1432       38132.00    167059.70
   27.58        2965.50           1435       40131.00    175863.90
   27.61        2965.75           1439       43233.00    189535.40
   27.64        2966.00           1442       45952.00    201528.20
   27.67        2966.25           1445       48711.00    213706.20
   27.69        2966.50           1449       51295.00    225119.90
   27.72        2966.75           1452       52761.00    231598.80
   27.75        2967.00           1455       53090.00    233053.10
   27.78        2967.25           1459       53377.00    234321.90
   27.80        2967.50           1462       53464.00    234706.50
   27.83        2967.75           1465       53386.00    234361.70
   27.86        2968.00           1469       52633.00    231033.00
   27.89        2968.25           1472       51650.00    226688.50
   27.92        2968.50           1475       49599.00    217627.70
   27.94        2968.75           1479       46756.00    205076.00
   27.97        2969.00           1482       44254.00    194037.80
   28.00        2969.25           1485       41560.00    182160.60
   28.03        2969.50           1489       37608.00    164752.60
   28.05        2969.75           1492       35176.00    154049.00
   28.08        2970.00           1495       33304.00    145814.80
   28.11        2970.25           1499       30125.00    131840.90
   28.14        2970.50           1502       27447.00    120078.30
   28.17        2970.75           1505       25252.00    110443.40
   28.19        2971.00           1509       22374.00     97818.90
   28.22        2971.25           1512       19766.00     86387.06
   28.25        2971.50           1515       17238.00     75313.40
   28.28        2971.75           1519       13699.00     59823.49
   28.30        2972.00           1522       10642.00     46454.85
   28.33        2972.25           1525        8261.00     36049.87
   28.36        2972.50           1529        5200.00     22682.82
   28.39        2972.75           1532        2979.00     12990.68
   28.42        2973.00           1536        1037.00      4520.67
   28.44        2973.25           1539         390.00      1699.74
   28.47        2973.50           1542         195.00       849.63
   28.50        2973.75           1546         153.00       666.53
   28.53        2974.00           1549         136.00       592.43
   28.55        2974.25           1552         139.00       605.50
   28.58        2974.50           1556         135.00       588.07
   28.61        2974.75           1559         118.00       513.96
   28.64        2975.00           1562         120.00       522.68
   28.66        2975.25           1566         118.00       513.96
   28.70        2975.50           1569         111.00       483.44
   28.73        2975.75           1572         104.00       452.93
   28.76        2976.00           1576         110.00       479.08
   28.79        2976.25           1579         119.00       518.32
   28.82        2976.50           1582         120.00       522.68
   28.85        2976.75           1586         113.00       492.16
   28.88        2977.00           1589         122.00       531.39
   28.91        2977.25           1592         107.00       466.00
   28.94        2977.50           1596         124.00       540.11
   28.96        2977.75           1599         110.00       479.08
   28.99        2978.00           1602         109.00       474.72
   29.02        2978.25           1606         127.00       553.19
   29.05        2978.50           1609         118.00       513.96
   29.07        2978.75           1612         117.00       509.60
   29.10        2979.00           1616         113.00       492.16
   29.13        2979.25           1619         111.00       483.44
   29.16        2979.50           1623         105.00       457.29
   29.19        2979.75           1626         109.00       474.72
   29.22        2980.00           1629         112.00       487.80
   29.25        2980.25           1633         110.00       479.08
   29.28        2980.50           1636         117.00       509.60
   29.30        2980.75           1639         108.00       470.36
   29.33        2981.00           1643         105.00       457.29
   29.36        2981.25           1646         102.00       444.21
   29.39        2981.50           1649         109.00       474.72
   29.41        2981.75           1653         111.00       483.44
   29.44        2982.00           1656         109.00       474.72
   29.47        2982.25           1659          99.00       431.13
   29.50        2982.50           1663         113.00       492.16
   29.53        2982.75           1666         104.00       452.93
   29.55        2983.00           1669         101.00       439.85
   29.58        2983.25           1673         109.00       474.72
   29.61        2983.50           1676         103.00       448.57
   29.64        2983.75           1679         100.00       435.49
   29.66        2984.00           1683         111.00       483.44
HS scan finished at 00:29:57
end
************************************************************
  HS Scan of (1) Internal mercury lamp
************************************************************
Integration time is 0.2294 seconds per sample
dh210417DelftKZ 51.997-4.386 2.535944pr1000
************************************************************
Dead Time -------------------------  3E-08 
Number of Cycles Used -------------  4 
Starting Wavelength (Angstroms) ---  2950 
Final Wavelength (Angstoms) -------  2984 
Wavelength Increment (Angstroms) --  .25 
Filter Wheel #1 Position ---------- (1) Ground quartz diffuser (ND=2.32)
Filter Wheel #2 Position ---------- (1) Neutral Density 0.494



************************************************************
HS scan start time = 02:40:27
Dark Count =  .2 


Time (GMT)  Wavelength (Ang)  Step Number  Raw Counts  Counts/Second

  160.89        2950.00           1229         127.00       552.76
  160.99        2950.25           1232         123.00       535.32
  161.02        2950.50           1236         123.00       535.32
  161.05        2950.75           1239         120.00       522.24
  161.07        2951.00           1242         132.00       574.55
  161.10        2951.25           1246         133.00       578.91
  161.13        2951.50           1249         123.00       535.32
  161.16        2951.75           1252         133.00       578.91
  161.18        2952.00           1255         140.00       609.43
  161.21        2952.25           1259         125.00       544.04
  161.24        2952.50           1262         137.00       596.35
  161.27        2952.75           1265         134.00       583.27
  161.29        2953.00           1269         136.00       591.99
  161.32        2953.25           1272         132.00       574.55
  161.35        2953.50           1275         124.00       539.68
  161.38        2953.75           1279         125.00       544.04
  161.41        2954.00           1282         128.00       557.11
  161.43        2954.25           1285         128.00       557.11
  161.46        2954.50           1289         139.00       605.07
  161.49        2954.75           1292         126.00       548.40
  161.52        2955.00           1295         130.00       565.83
  161.54        2955.25           1299         132.00       574.55
  161.57        2955.50           1302         122.00       530.96
  161.60        2955.75           1305         124.00       539.68
  161.63        2956.00           1309         117.00       509.16
  161.65        2956.25           1312         131.00       570.19
  161.68        2956.50           1315         125.00       544.04
  161.71        2956.75           1319         127.00       552.76
  161.74        2957.00           1322         121.00       526.60
  161.76        2957.25           1325         122.00       530.96
  161.80        2957.50           1329         118.00       513.52
  161.84        2957.75           1332         128.00       557.11
  161.86        2958.00           1335         121.00       526.60
  161.89        2958.25           1339         118.00       513.52
  161.92        2958.50           1342         128.00       557.11
  161.95        2958.75           1345         126.00       548.40
  161.97        2959.00           1349         130.00       565.83
  162.00        2959.25           1352         127.00       552.76
  162.03        2959.50           1355         118.00       513.52
  162.06        2959.75           1359         119.00       517.88
  162.08        2960.00           1362         110.00       478.65
  162.11        2960.25           1365         118.00       513.52
  162.14        2960.50           1369         137.00       596.35
  162.17        2960.75           1372         131.00       570.19
  162.19        2961.00           1375         138.00       600.71
  162.22        2961.25           1379         151.00       657.38
  162.25        2961.50           1382         198.00       862.27
  162.28        2961.75           1385         596.00      2597.41
  162.31        2962.00           1389        2362.00     10298.73
  162.34        2962.25           1392        4344.00     18946.25
  162.37        2962.50           1395        6335.00     27637.55
  162.40        2962.75           1399        9652.00     42127.32
  162.42        2963.00           1402       12256.00     53511.29
  162.46        2963.25           1405       14648.00     63975.33
  162.49        2963.50           1409       17670.00     77204.78
  162.52        2963.75           1412       20382.00     89086.08
  162.55        2964.00           1415       23119.00    101085.50
  162.57        2964.25           1419       26083.00    114089.90
  162.60        2964.50           1422       28421.00    124355.00
  162.63        2964.75           1425       30957.00    135496.50
  162.66        2965.00           1429       34022.00    148972.10
  162.69        2965.25           1432       36741.00    160935.60
  162.71        2965.50           1435       39229.00    171890.20
  162.74        2965.75           1439       41961.00    183927.50
  162.77        2966.00           1442       44357.00    194491.60
  162.80        2966.25           1445       46774.00    205155.10
  162.82        2966.50           1449       49568.00    217490.30
  162.85        2966.75           1452       50911.00    223422.80
  162.88        2967.00           1455       51539.00    226197.60
  162.91        2967.25           1459       51568.00    226325.80
  162.93        2967.50           1462       51815.00    227417.30
  162.96        2967.75           1465       51536.00    226184.40
  162.99        2968.00           1469       50841.00    223113.50
  163.02        2968.25           1472       49451.00    216973.60
  163.05        2968.50           1475       47210.00    207079.30
  163.07        2968.75           1479       44356.00    194487.20
  163.10        2969.00           1482       42075.00    184430.00
  163.13        2969.25           1485       39443.00    172832.80
  163.16        2969.50           1489       36106.00    158140.80
  163.18        2969.75           1492       34060.00    149139.20
  163.21        2970.00           1495       32204.00    140977.70
  163.24        2970.25           1499       29061.00    127166.00
  163.27        2970.50           1502       26832.00    117377.70
  163.30        2970.75           1505       24630.00    107713.70
  163.33        2971.00           1509       21034.00     91943.76
  163.36        2971.25           1512       18330.00     80095.46
  163.39        2971.50           1515       16275.00     71096.56
  163.41        2971.75           1519       13105.00     57224.57
  163.44        2972.00           1522       10761.00     46974.61
  163.47        2972.25           1525        8179.00     35691.20
  163.50        2972.50           1529        4916.00     21442.74
  163.52        2972.75           1532        2885.00     12580.16
  163.55        2973.00           1536        1079.00      4703.37
  163.58        2973.25           1539         468.00      2039.36
  163.61        2973.50           1542         214.00       932.02
  163.63        2973.75           1546         169.00       735.85
  163.66        2974.00           1549         150.00       653.02
  163.69        2974.25           1552         125.00       544.04
  163.72        2974.50           1556         130.00       565.83
  163.75        2974.75           1559         120.00       522.24
  163.77        2975.00           1562         114.00       496.08
  163.81        2975.25           1566         114.00       496.08
  163.84        2975.50           1569         110.00       478.65
  163.87        2975.75           1572         111.00       483.01
  163.89        2976.00           1576         100.00       435.05
  163.92        2976.25           1579         108.00       469.93
  163.95        2976.50           1582         112.00       487.37
  163.98        2976.75           1586         121.00       526.60
  164.00        2977.00           1589         118.00       513.52
  164.03        2977.25           1592         115.00       500.44
  164.06        2977.50           1596         107.00       465.57
  164.09        2977.75           1599         105.00       456.85
  164.11        2978.00           1602         110.00       478.65
  164.14        2978.25           1606         114.00       496.08
  164.17        2978.50           1609         105.00       456.85
  164.20        2978.75           1612         111.00       483.01
  164.22        2979.00           1616         111.00       483.01
  164.25        2979.25           1619         109.00       474.29
  164.28        2979.50           1623         109.00       474.29
  164.31        2979.75           1626         112.00       487.37
  164.34        2980.00           1629         105.00       456.85
  164.37        2980.25           1633         111.00       483.01
  164.40        2980.50           1636         109.00       474.29
  164.43        2980.75           1639          99.00       430.69
  164.45        2981.00           1643         102.00       443.77
  164.48        2981.25           1646         104.00       452.49
  164.51        2981.50           1649         105.00       456.85
  164.54        2981.75           1653         112.00       487.37
  164.57        2982.00           1656         108.00       469.93
  164.59        2982.25           1659         115.00       500.44
  164.62        2982.50           1663         107.00       465.57
  164.65        2982.75           1666         105.00       456.85
  164.68        2983.00           1669         108.00       469.93
  164.70        2983.25           1673         108.00       469.93
  164.73        2983.50           1676         116.00       504.80
  164.76        2983.75           1679          94.00       408.90
  164.79        2984.00           1683          95.00       413.26
HS scan finished at 02:45:05
end
