************************************************************
  HS Scan of (1) Internal mercury lamp
************************************************************
Integration time is 0.2294 seconds per sample
dh240418Delft 51.9969-4.3863 2.589593pr1000
************************************************************
Dead Time -------------------------  2.7E-08 
Number of Cycles Used -------------  4 
Starting Wavelength (Angstroms) ---  2950 
Final Wavelength (Angstoms) -------  2984 
Wavelength Increment (Angstroms) --  .25 
Filter Wheel #1 Position ---------- (1) Ground quartz diffuser (ND=2.32)
Filter Wheel #2 Position ---------- (1) Neutral Density 0.494



************************************************************
HS scan start time = 02:45:15
Dark Count =  0 


Time (GMT)  Wavelength (Ang)  Step Number  Raw Counts  Counts/Second

  165.70        2950.00           1229         119.00       518.75
  165.80        2950.25           1232         130.00       566.70
  165.83        2950.50           1236         124.00       540.55
  165.86        2950.75           1239         125.00       544.91
  165.89        2951.00           1242         120.00       523.11
  165.92        2951.25           1246         128.00       557.99
  165.95        2951.50           1249         127.00       553.63
  165.98        2951.75           1252         126.00       549.27
  166.01        2952.00           1256         123.00       536.19
  166.04        2952.25           1259         117.00       510.03
  166.07        2952.50           1262         129.00       562.35
  166.10        2952.75           1266         130.00       566.70
  166.13        2953.00           1269         122.00       531.83
  166.16        2953.25           1272         126.00       549.27
  166.19        2953.50           1276         123.00       536.19
  166.22        2953.75           1279         123.00       536.19
  166.25        2954.00           1282         134.00       584.14
  166.28        2954.25           1286         120.00       523.11
  166.31        2954.50           1289         115.00       501.31
  166.34        2954.75           1292         122.00       531.83
  166.37        2955.00           1296         114.00       496.96
  166.40        2955.25           1299         112.00       488.24
  166.43        2955.50           1302         117.00       510.03
  166.46        2955.75           1306         118.00       514.39
  166.49        2956.00           1309         128.00       557.99
  166.52        2956.25           1312         117.00       510.03
  166.55        2956.50           1316         118.00       514.39
  166.58        2956.75           1319         122.00       531.83
  166.61        2957.00           1322         116.00       505.67
  166.64        2957.25           1326         120.00       523.11
  166.67        2957.50           1329         126.00       549.27
  166.70        2957.75           1332         115.00       501.31
  166.73        2958.00           1336         122.00       531.83
  166.76        2958.25           1339         122.00       531.83
  166.78        2958.50           1342         126.00       549.27
  166.81        2958.75           1345         132.00       575.42
  166.84        2959.00           1349         112.00       488.24
  166.87        2959.25           1352         117.00       510.03
  166.90        2959.50           1355         119.00       518.75
  166.93        2959.75           1359         122.00       531.83
  166.96        2960.00           1362         130.00       566.70
  166.99        2960.25           1365         110.00       479.52
  167.02        2960.50           1369         135.00       588.50
  167.05        2960.75           1372         127.00       553.63
  167.08        2961.00           1375         133.00       579.78
  167.11        2961.25           1379         145.00       632.09
  167.14        2961.50           1382         223.00       972.13
  167.17        2961.75           1385         688.00      2999.37
  167.20        2962.00           1389        2208.00      9627.61
  167.23        2962.25           1392        3985.00     17379.56
  167.26        2962.50           1395        6024.00     26278.45
  167.29        2962.75           1399        9361.00     40851.49
  167.32        2963.00           1402       12142.00     53005.19
  167.35        2963.25           1405       14663.00     64029.53
  167.38        2963.50           1409       17852.00     77984.43
  167.41        2963.75           1412       20554.00     89816.49
  167.44        2964.00           1415       23360.00    102112.00
  167.47        2964.25           1419       26526.00    115994.80
  167.50        2964.50           1422       29408.00    128641.30
  167.53        2964.75           1425       32221.00    140993.40
  167.56        2965.00           1429       35465.00    155248.40
  167.59        2965.25           1432       37972.00    166272.30
  167.62        2965.50           1435       40461.00    177223.50
  167.65        2965.75           1439       43558.00    190859.00
  167.68        2966.00           1442       45618.00    199934.30
  167.71        2966.25           1445       47701.00    209115.50
  167.74        2966.50           1449       50695.00    222320.10
  167.77        2966.75           1452       52273.00    229283.40
  167.80        2967.00           1455       52881.00    231967.10
  167.83        2967.25           1459       52733.00    231313.80
  167.86        2967.50           1462       53102.00    232942.60
  167.89        2967.75           1465       52581.00    230642.80
  167.92        2968.00           1469       51777.00    227094.40
  167.95        2968.25           1472       50343.00    220767.10
  167.98        2968.50           1475       48500.00    212638.50
  168.01        2968.75           1479       45326.00    198647.60
  168.04        2969.00           1482       43724.00    191590.10
  168.07        2969.25           1485       41290.00    180872.40
  168.10        2969.50           1489       38027.00    166514.20
  168.13        2969.75           1492       35444.00    155156.00
  168.16        2970.00           1495       33053.00    144648.40
  168.19        2970.25           1499       28935.00    126565.20
  168.22        2970.50           1502       26598.00    116310.60
  168.25        2970.75           1505       24479.00    107017.60
  168.28        2971.00           1509       20989.00     91722.08
  168.31        2971.25           1512       18559.00     81079.66
  168.34        2971.50           1515       16197.00     70740.93
  168.37        2971.75           1519       13493.00     58912.30
  168.40        2972.00           1522       11055.00     48253.76
  168.43        2972.25           1525        8557.00     37339.28
  168.46        2972.50           1529        5549.00     24205.01
  168.49        2972.75           1532        2858.00     12462.78
  168.52        2973.00           1535        1237.00      5393.11
  168.55        2973.25           1539         401.00      1748.12
  168.58        2973.50           1542         188.00       819.55
  168.61        2973.75           1546         154.00       671.33
  168.64        2974.00           1549         140.00       610.30
  168.67        2974.25           1552         135.00       588.50
  168.70        2974.50           1556         120.00       523.11
  168.73        2974.75           1559         126.00       549.27
  168.76        2975.00           1562         113.00       492.60
  168.79        2975.25           1566         111.00       483.88
  168.82        2975.50           1569         115.00       501.31
  168.85        2975.75           1572         121.00       527.47
  168.88        2976.00           1576         107.00       466.44
  168.91        2976.25           1579         107.00       466.44
  168.94        2976.50           1582         118.00       514.39
  168.97        2976.75           1586         114.00       496.96
  169.00        2977.00           1589         111.00       483.88
  169.03        2977.25           1592         115.00       501.31
  169.06        2977.50           1596         114.00       496.96
  169.08        2977.75           1599         117.00       510.03
  169.12        2978.00           1602         105.00       457.72
  169.14        2978.25           1606         103.00       449.00
  169.17        2978.50           1609         101.00       440.28
  169.20        2978.75           1612          98.00       427.21
  169.23        2979.00           1616         103.00       449.00
  169.26        2979.25           1619         103.00       449.00
  169.29        2979.50           1622         103.00       449.00
  169.32        2979.75           1626         104.00       453.36
  169.35        2980.00           1629         105.00       457.72
  169.38        2980.25           1632         104.00       453.36
  169.41        2980.50           1636         115.00       501.31
  169.44        2980.75           1639         113.00       492.60
  169.47        2981.00           1642         111.00       483.88
  169.50        2981.25           1646         115.00       501.31
  169.53        2981.50           1649         103.00       449.00
  169.56        2981.75           1653          94.00       409.77
  169.59        2982.00           1656         109.00       475.16
  169.62        2982.25           1659         106.00       462.08
  169.65        2982.50           1663         115.00       501.31
  169.68        2982.75           1666         104.00       453.36
  169.71        2983.00           1669         100.00       435.92
  169.74        2983.25           1673         103.00       449.00
  169.77        2983.50           1676          91.00       396.69
  169.80        2983.75           1679         104.00       453.36
  169.83        2984.00           1683          87.00       379.25
HS scan finished at 02:50:08
end
************************************************************
  HS Scan of (1) Internal mercury lamp
************************************************************
Integration time is 0.2294 seconds per sample
dh240418Delft 51.9969-4.3863 2.750537pr1000
************************************************************
Dead Time -------------------------  2.7E-08 
Number of Cycles Used -------------  4 
Starting Wavelength (Angstroms) ---  2950 
Final Wavelength (Angstoms) -------  2984 
Wavelength Increment (Angstroms) --  .25 
Filter Wheel #1 Position ---------- (1) Ground quartz diffuser (ND=2.32)
Filter Wheel #2 Position ---------- (1) Neutral Density 0.494



************************************************************
HS scan start time = 19:49:57
Dark Count =  .1 


Time (GMT)  Wavelength (Ang)  Step Number  Raw Counts  Counts/Second

 1190.40        2950.00           1229         124.00       540.11
 1190.50        2950.25           1232         125.00       544.47
 1190.53        2950.50           1236         117.00       509.60
 1190.56        2950.75           1239         116.00       505.24
 1190.59        2951.00           1242         132.00       574.99
 1190.62        2951.25           1246         132.00       574.99
 1190.65        2951.50           1249         123.00       535.75
 1190.68        2951.75           1252         113.00       492.16
 1190.71        2952.00           1256         128.00       557.55
 1190.74        2952.25           1259         112.00       487.80
 1190.77        2952.50           1262         119.00       518.32
 1190.80        2952.75           1266         115.00       500.88
 1190.83        2953.00           1269         111.00       483.44
 1190.86        2953.25           1272         115.00       500.88
 1190.89        2953.50           1276         126.00       548.83
 1190.92        2953.75           1279         121.00       527.03
 1190.94        2954.00           1282         111.00       483.44
 1190.98        2954.25           1286         120.00       522.68
 1191.00        2954.50           1289         121.00       527.03
 1191.03        2954.75           1292         113.00       492.16
 1191.06        2955.00           1296         111.00       483.44
 1191.09        2955.25           1299         119.00       518.32
 1191.12        2955.50           1302         125.00       544.47
 1191.15        2955.75           1306         117.00       509.60
 1191.18        2956.00           1309         116.00       505.24
 1191.21        2956.25           1312         121.00       527.03
 1191.24        2956.50           1316         116.00       505.24
 1191.27        2956.75           1319         119.00       518.32
 1191.30        2957.00           1322         118.00       513.96
 1191.33        2957.25           1326         119.00       518.32
 1191.36        2957.50           1329         118.00       513.96
 1191.39        2957.75           1332         127.00       553.19
 1191.42        2958.00           1336         120.00       522.68
 1191.45        2958.25           1339         113.00       492.16
 1191.48        2958.50           1342         118.00       513.96
 1191.51        2958.75           1345         117.00       509.60
 1191.54        2959.00           1349         122.00       531.39
 1191.57        2959.25           1352         113.00       492.16
 1191.60        2959.50           1355         123.00       535.75
 1191.63        2959.75           1359         122.00       531.39
 1191.66        2960.00           1362         120.00       522.68
 1191.69        2960.25           1365         115.00       500.88
 1191.72        2960.50           1369         113.00       492.16
 1191.75        2960.75           1372         111.00       483.44
 1191.78        2961.00           1375         134.00       583.71
 1191.81        2961.25           1379         144.00       627.30
 1191.84        2961.50           1382         234.00      1019.64
 1191.87        2961.75           1385         657.00      2863.78
 1191.90        2962.00           1389        2244.00      9784.19
 1191.93        2962.25           1392        4171.00     18190.71
 1191.96        2962.50           1395        6554.00     28591.81
 1191.98        2962.75           1399       10393.00     45360.23
 1192.02        2963.00           1402       12793.00     55850.94
 1192.05        2963.25           1405       15207.00     66408.86
 1192.08        2963.50           1409       19100.00     83448.06
 1192.10        2963.75           1412       21842.00     95458.89
 1192.13        2964.00           1415       24972.00    109178.80
 1192.17        2964.25           1419       28198.00    123330.20
 1192.19        2964.50           1422       30670.00    134181.40
 1192.22        2964.75           1425       33171.00    145166.40
 1192.25        2965.00           1429       36992.00    161961.70
 1192.28        2965.25           1432       39569.00    173297.60
 1192.31        2965.50           1435       42045.00    184195.80
 1192.34        2965.75           1439       46069.00    201921.30
 1192.37        2966.00           1442       48321.00    211848.70
 1192.40        2966.25           1445       51100.00    224106.50
 1192.43        2966.50           1449       53728.00    235705.80
 1192.46        2966.75           1452       55350.00    242868.60
 1192.49        2967.00           1455       55497.00    243517.90
 1192.52        2967.25           1459       55618.00    244052.30
 1192.55        2967.50           1462       55575.00    243862.40
 1192.58        2967.75           1465       55439.00    243261.70
 1192.61        2968.00           1469       54162.00    237622.10
 1192.64        2968.25           1472       52495.00    230262.80
 1192.67        2968.50           1475       50077.00    219593.20
 1192.70        2968.75           1479       47484.00    208158.40
 1192.73        2969.00           1482       44761.00    196157.80
 1192.76        2969.25           1485       42052.00    184226.60
 1192.79        2969.50           1489       38672.00    169351.10
 1192.82        2969.75           1492       36037.00    157762.50
 1192.85        2970.00           1495       34169.00    149551.70
 1192.88        2970.25           1499       30683.00    134238.50
 1192.91        2970.50           1502       28265.00    123624.30
 1192.94        2970.75           1505       25677.00    112270.50
 1192.97        2971.00           1509       22071.00     96462.32
 1193.00        2971.25           1512       19423.00     84862.49
 1193.03        2971.50           1515       16594.00     72477.80
 1193.06        2971.75           1519       13647.00     59585.33
 1193.09        2972.00           1522       11087.00     48393.19
 1193.12        2972.25           1525        8521.00     37181.60
 1193.15        2972.50           1529        5309.00     23157.02
 1193.18        2972.75           1532        3229.00     14080.77
 1193.21        2973.00           1535        1760.00      7673.34
 1193.24        2973.25           1539         518.00      2257.77
 1193.27        2973.50           1542         210.00       915.02
 1193.30        2973.75           1546         164.00       714.49
 1193.33        2974.00           1549         146.00       636.02
 1193.36        2974.25           1552         134.00       583.71
 1193.39        2974.50           1556         132.00       574.99
 1193.42        2974.75           1559         132.00       574.99
 1193.45        2975.00           1562         112.00       487.80
 1193.48        2975.25           1566         102.00       444.21
 1193.51        2975.50           1569         113.00       492.16
 1193.54        2975.75           1572         107.00       466.00
 1193.57        2976.00           1576         111.00       483.44
 1193.60        2976.25           1579         105.00       457.29
 1193.63        2976.50           1582          98.00       426.77
 1193.66        2976.75           1586         104.00       452.93
 1193.69        2977.00           1589         111.00       483.44
 1193.72        2977.25           1592         110.00       479.08
 1193.74        2977.50           1596         109.00       474.72
 1193.77        2977.75           1599         107.00       466.00
 1193.81        2978.00           1602         103.00       448.57
 1193.83        2978.25           1606         101.00       439.85
 1193.86        2978.50           1609         101.00       439.85
 1193.89        2978.75           1612         110.00       479.08
 1193.92        2979.00           1616         100.00       435.49
 1193.95        2979.25           1619          98.00       426.77
 1193.98        2979.50           1622         104.00       452.93
 1194.01        2979.75           1626          96.00       418.05
 1194.04        2980.00           1629         105.00       457.29
 1194.07        2980.25           1632         102.00       444.21
 1194.10        2980.50           1636          99.00       431.13
 1194.13        2980.75           1639          96.00       418.05
 1194.16        2981.00           1642         105.00       457.29
 1194.19        2981.25           1646          99.00       431.13
 1194.22        2981.50           1649          96.00       418.05
 1194.25        2981.75           1653          95.00       413.69
 1194.28        2982.00           1656         108.00       470.36
 1194.31        2982.25           1659         106.00       461.64
 1194.34        2982.50           1663         101.00       439.85
 1194.37        2982.75           1666          97.00       422.41
 1194.40        2983.00           1669         106.00       461.64
 1194.43        2983.25           1673          99.00       431.13
 1194.46        2983.50           1676         100.00       435.49
 1194.49        2983.75           1679          95.00       413.69
 1194.52        2984.00           1683          98.00       426.77
HS scan finished at 19:54:49
end
