************************************************************
  HS Scan of (1) Internal mercury lamp
************************************************************
Integration time is 0.2294 seconds per sample
dh270418Delft 51.9969-4.3863 2.482296pr1000
************************************************************
Dead Time -------------------------  2.7E-08 
Number of Cycles Used -------------  4 
Starting Wavelength (Angstroms) ---  2950 
Final Wavelength (Angstoms) -------  2984 
Wavelength Increment (Angstroms) --  .25 
Filter Wheel #1 Position ---------- (1) Ground quartz diffuser (ND=2.32)
Filter Wheel #2 Position ---------- (1) Neutral Density 0.494



************************************************************
HS scan start time = 02:32:54
Dark Count =  .1 


Time (GMT)  Wavelength (Ang)  Step Number  Raw Counts  Counts/Second

  153.36        2950.00           1229         130.00       566.27
  153.46        2950.25           1232         132.00       574.99
  153.49        2950.50           1236         123.00       535.75
  153.52        2950.75           1239         129.00       561.91
  153.55        2951.00           1242         135.00       588.07
  153.58        2951.25           1246         122.00       531.39
  153.61        2951.50           1249         121.00       527.03
  153.64        2951.75           1252         136.00       592.42
  153.67        2952.00           1256         127.00       553.19
  153.70        2952.25           1259         132.00       574.99
  153.73        2952.50           1262         127.00       553.19
  153.76        2952.75           1266         131.00       570.63
  153.79        2953.00           1269         123.00       535.75
  153.82        2953.25           1272         121.00       527.03
  153.85        2953.50           1276         122.00       531.39
  153.88        2953.75           1279         120.00       522.68
  153.91        2954.00           1282         127.00       553.19
  153.94        2954.25           1286         128.00       557.55
  153.97        2954.50           1289         123.00       535.75
  154.00        2954.75           1292         122.00       531.39
  154.03        2955.00           1296         125.00       544.47
  154.06        2955.25           1299         128.00       557.55
  154.09        2955.50           1302         129.00       561.91
  154.12        2955.75           1306         120.00       522.68
  154.15        2956.00           1309         118.00       513.96
  154.18        2956.25           1312         131.00       570.63
  154.21        2956.50           1316         126.00       548.83
  154.24        2956.75           1319         120.00       522.68
  154.27        2957.00           1322         127.00       553.19
  154.30        2957.25           1326         126.00       548.83
  154.33        2957.50           1329         117.00       509.60
  154.36        2957.75           1332         115.00       500.88
  154.39        2958.00           1336         128.00       557.55
  154.42        2958.25           1339         141.00       614.22
  154.45        2958.50           1342         119.00       518.32
  154.48        2958.75           1345         127.00       553.19
  154.50        2959.00           1349         126.00       548.83
  154.53        2959.25           1352         118.00       513.96
  154.56        2959.50           1355         123.00       535.75
  154.59        2959.75           1359         115.00       500.88
  154.62        2960.00           1362         117.00       509.60
  154.65        2960.25           1365         126.00       548.83
  154.68        2960.50           1369         119.00       518.32
  154.71        2960.75           1372         127.00       553.19
  154.74        2961.00           1375         137.00       596.78
  154.77        2961.25           1379         150.00       653.46
  154.80        2961.50           1382         198.00       862.71
  154.83        2961.75           1385         498.00      2170.57
  154.86        2962.00           1389        2054.00      8955.52
  154.89        2962.25           1392        3954.00     17243.86
  154.92        2962.50           1395        5774.00     25186.70
  154.95        2962.75           1399        8612.00     37579.09
  154.98        2963.00           1402       11124.00     48554.90
  155.01        2963.25           1405       13630.00     59510.98
  155.04        2963.50           1409       17028.00     74377.21
  155.07        2963.75           1412       19394.00     84735.49
  155.10        2964.00           1415       21672.00     94714.00
  155.13        2964.25           1419       24464.00    106951.40
  155.16        2964.50           1422       27194.00    118924.90
  155.19        2964.75           1425       29763.00    130199.30
  155.22        2965.00           1429       32886.00    143914.30
  155.25        2965.25           1432       35482.00    155322.60
  155.28        2965.50           1435       37905.00    165977.10
  155.31        2965.75           1439       40799.00    178710.70
  155.34        2966.00           1442       43092.00    188806.20
  155.37        2966.25           1445       45452.00    199202.40
  155.40        2966.50           1449       48306.00    211782.50
  155.43        2966.75           1452       49041.00    215023.70
  155.46        2967.00           1455       49422.00    216704.10
  155.49        2967.25           1459       49627.00    217608.30
  155.52        2967.50           1462       49372.00    216483.50
  155.55        2967.75           1465       49186.00    215663.20
  155.58        2968.00           1469       48226.00    211429.80
  155.61        2968.25           1472       47038.00    206192.20
  155.64        2968.50           1475       45161.00    197920.10
  155.67        2968.75           1479       42424.00    185864.60
  155.70        2969.00           1482       40358.00    176769.80
  155.73        2969.25           1485       38017.00    166469.70
  155.76        2969.50           1489       35279.00    154430.30
  155.79        2969.75           1492       33003.00    144428.30
  155.82        2970.00           1495       31157.00    136319.90
  155.85        2970.25           1499       27890.00    121978.70
  155.88        2970.50           1502       25364.00    110897.80
  155.91        2970.75           1505       22863.00     99933.19
  155.94        2971.00           1509       19460.00     85024.53
  155.97        2971.25           1512       17365.00     75852.23
  156.00        2971.50           1515       15254.00     66614.48
  156.03        2971.75           1519       12250.00     53476.90
  156.06        2972.00           1522        9765.00     42616.14
  156.09        2972.25           1525        7764.00     33875.35
  156.12        2972.50           1529        5416.00     23624.04
  156.15        2972.75           1532        3270.00     14259.63
  156.18        2973.00           1535        1553.00      6770.64
  156.21        2973.25           1539         465.00      2026.70
  156.24        2973.50           1542         192.00       836.55
  156.27        2973.75           1546         140.00       609.86
  156.30        2974.00           1549         140.00       609.86
  156.33        2974.25           1552         126.00       548.83
  156.36        2974.50           1556         123.00       535.75
  156.39        2974.75           1559         120.00       522.68
  156.42        2975.00           1562         106.00       461.64
  156.45        2975.25           1566         108.00       470.36
  156.48        2975.50           1569         101.00       439.85
  156.51        2975.75           1572         119.00       518.32
  156.54        2976.00           1576         109.00       474.72
  156.57        2976.25           1579         102.00       444.21
  156.60        2976.50           1582         109.00       474.72
  156.63        2976.75           1586         109.00       474.72
  156.66        2977.00           1589         102.00       444.21
  156.69        2977.25           1592         117.00       509.60
  156.71        2977.50           1596         111.00       483.44
  156.74        2977.75           1599         103.00       448.57
  156.77        2978.00           1602         111.00       483.44
  156.80        2978.25           1606         111.00       483.44
  156.83        2978.50           1609         117.00       509.60
  156.86        2978.75           1612         116.00       505.24
  156.89        2979.00           1616         106.00       461.64
  156.92        2979.25           1619         119.00       518.32
  156.95        2979.50           1622         110.00       479.08
  156.98        2979.75           1626         100.00       435.49
  157.01        2980.00           1629         107.00       466.00
  157.04        2980.25           1632         114.00       496.52
  157.07        2980.50           1636          97.00       422.41
  157.10        2980.75           1639         110.00       479.08
  157.13        2981.00           1642         110.00       479.08
  157.16        2981.25           1646         116.00       505.24
  157.19        2981.50           1649         108.00       470.36
  157.22        2981.75           1653         106.00       461.64
  157.25        2982.00           1656         110.00       479.08
  157.28        2982.25           1659          99.00       431.13
  157.31        2982.50           1663          95.00       413.69
  157.34        2982.75           1666         104.00       452.93
  157.37        2983.00           1669         105.00       457.29
  157.40        2983.25           1673         111.00       483.44
  157.43        2983.50           1676          99.00       431.13
  157.46        2983.75           1679          93.00       404.97
  157.49        2984.00           1683         102.00       444.21
HS scan finished at 02:37:48
end
************************************************************
  HS Scan of (1) Internal mercury lamp
************************************************************
Integration time is 0.2294 seconds per sample
dh270418Delft 51.9969-4.3863 2.696889pr1000
************************************************************
Dead Time -------------------------  2.7E-08 
Number of Cycles Used -------------  4 
Starting Wavelength (Angstroms) ---  2950 
Final Wavelength (Angstoms) -------  2984 
Wavelength Increment (Angstroms) --  .25 
Filter Wheel #1 Position ---------- (1) Ground quartz diffuser (ND=2.32)
Filter Wheel #2 Position ---------- (1) Neutral Density 0.494



************************************************************
HS scan start time = 19:55:26
Dark Count =  0 


Time (GMT)  Wavelength (Ang)  Step Number  Raw Counts  Counts/Second

 1195.89        2950.00           1229         125.00       544.91
 1195.99        2950.25           1232         111.00       483.88
 1196.02        2950.50           1236         122.00       531.83
 1196.05        2950.75           1239         121.00       527.47
 1196.08        2951.00           1242         116.00       505.67
 1196.11        2951.25           1246         124.00       540.55
 1196.14        2951.50           1249         113.00       492.60
 1196.17        2951.75           1252         122.00       531.83
 1196.20        2952.00           1256         111.00       483.88
 1196.23        2952.25           1259         121.00       527.47
 1196.26        2952.50           1262         121.00       527.47
 1196.29        2952.75           1266         124.00       540.55
 1196.32        2953.00           1269         112.00       488.24
 1196.35        2953.25           1272         127.00       553.63
 1196.38        2953.50           1276         118.00       514.39
 1196.41        2953.75           1279         123.00       536.19
 1196.44        2954.00           1282         117.00       510.03
 1196.47        2954.25           1286         125.00       544.91
 1196.50        2954.50           1289         116.00       505.67
 1196.52        2954.75           1292         107.00       466.44
 1196.55        2955.00           1296         118.00       514.39
 1196.58        2955.25           1299         120.00       523.11
 1196.61        2955.50           1302         116.00       505.67
 1196.64        2955.75           1306         111.00       483.88
 1196.67        2956.00           1309         114.00       496.96
 1196.70        2956.25           1312         114.00       496.96
 1196.73        2956.50           1316         119.00       518.75
 1196.76        2956.75           1319         117.00       510.03
 1196.79        2957.00           1322         120.00       523.11
 1196.82        2957.25           1326         121.00       527.47
 1196.85        2957.50           1329         125.00       544.91
 1196.88        2957.75           1332         120.00       523.11
 1196.91        2958.00           1336         114.00       496.96
 1196.94        2958.25           1339         116.00       505.67
 1196.97        2958.50           1342         120.00       523.11
 1197.00        2958.75           1345         114.00       496.96
 1197.03        2959.00           1349         111.00       483.88
 1197.06        2959.25           1352         117.00       510.03
 1197.09        2959.50           1355         117.00       510.03
 1197.12        2959.75           1359         127.00       553.63
 1197.15        2960.00           1362         120.00       523.11
 1197.18        2960.25           1365         119.00       518.75
 1197.21        2960.50           1369         121.00       527.47
 1197.24        2960.75           1372         126.00       549.27
 1197.27        2961.00           1375         133.00       579.78
 1197.30        2961.25           1379         142.00       619.02
 1197.33        2961.50           1382         186.00       810.83
 1197.36        2961.75           1385         493.00      2149.21
 1197.39        2962.00           1389        2292.00      9993.98
 1197.42        2962.25           1392        4392.00     19155.50
 1197.45        2962.50           1395        6647.00     28998.28
 1197.48        2962.75           1399       10009.00     43682.71
 1197.51        2963.00           1402       12955.00     56559.72
 1197.54        2963.25           1405       15741.00     68745.62
 1197.57        2963.50           1409       19341.00     84503.83
 1197.60        2963.75           1412       21513.00     94017.78
 1197.63        2964.00           1415       24022.00    105014.00
 1197.66        2964.25           1419       27314.00    119451.80
 1197.69        2964.50           1422       29997.00    131227.00
 1197.72        2964.75           1425       32573.00    142539.70
 1197.75        2965.00           1429       36268.00    158778.60
 1197.78        2965.25           1432       38420.00    168242.90
 1197.81        2965.50           1435       40732.00    178416.30
 1197.84        2965.75           1439       43813.00    191982.10
 1197.87        2966.00           1442       46536.00    203980.00
 1197.89        2966.25           1445       49139.00    215456.40
 1197.92        2966.50           1449       51729.00    226882.60
 1197.95        2966.75           1452       53226.00    233490.00
 1197.98        2967.00           1455       54186.00    237728.50
 1198.01        2967.25           1459       54536.00    239274.00
 1198.04        2967.50           1462       54349.00    238448.30
 1198.07        2967.75           1465       54263.00    238068.50
 1198.10        2968.00           1469       53144.00    233128.00
 1198.13        2968.25           1472       51422.00    225527.80
 1198.16        2968.50           1475       49447.00    216814.80
 1198.19        2968.75           1479       46455.00    203623.00
 1198.22        2969.00           1482       44127.00    193365.20
 1198.25        2969.25           1485       41842.00    183302.50
 1198.28        2969.50           1489       38767.00    169769.40
 1198.31        2969.75           1492       36330.00    159051.20
 1198.34        2970.00           1495       34001.00    148813.80
 1198.37        2970.25           1499       29927.00    130919.70
 1198.40        2970.50           1502       27452.00    120057.20
 1198.43        2970.75           1505       25068.00    109600.20
 1198.46        2971.00           1509       21609.00     94438.41
 1198.49        2971.25           1512       19230.00     84017.75
 1198.52        2971.50           1515       16769.00     73244.10
 1198.55        2971.75           1519       13218.00     57709.73
 1198.58        2972.00           1522       10868.00     47436.49
 1198.61        2972.25           1525        8739.00     38134.28
 1198.64        2972.50           1529        5881.00     25654.21
 1198.67        2972.75           1532        3681.00     16053.17
 1198.70        2973.00           1535        1687.00      7355.43
 1198.73        2973.25           1539         416.00      1813.52
 1198.76        2973.50           1542         208.00       906.74
 1198.79        2973.75           1546         153.00       666.97
 1198.82        2974.00           1549         141.00       614.66
 1198.85        2974.25           1552         105.00       457.72
 1198.88        2974.50           1556         126.00       549.27
 1198.91        2974.75           1559         119.00       518.75
 1198.94        2975.00           1562         123.00       536.19
 1198.97        2975.25           1566         108.00       470.80
 1199.00        2975.50           1569         121.00       527.47
 1199.03        2975.75           1572         106.00       462.08
 1199.06        2976.00           1576         103.00       449.00
 1199.09        2976.25           1579         107.00       466.44
 1199.12        2976.50           1582         114.00       496.96
 1199.15        2976.75           1586         119.00       518.75
 1199.18        2977.00           1589         112.00       488.24
 1199.21        2977.25           1592         102.00       444.64
 1199.24        2977.50           1596         114.00       496.96
 1199.27        2977.75           1599         103.00       449.00
 1199.30        2978.00           1602         105.00       457.72
 1199.33        2978.25           1606          93.00       405.41
 1199.36        2978.50           1609         118.00       514.39
 1199.38        2978.75           1612         112.00       488.24
 1199.41        2979.00           1616         104.00       453.36
 1199.45        2979.25           1619         108.00       470.80
 1199.47        2979.50           1622         109.00       475.16
 1199.50        2979.75           1626         113.00       492.60
 1199.53        2980.00           1629          99.00       431.57
 1199.56        2980.25           1632         114.00       496.96
 1199.59        2980.50           1636         110.00       479.52
 1199.62        2980.75           1639         110.00       479.52
 1199.65        2981.00           1642         108.00       470.80
 1199.68        2981.25           1646         107.00       466.44
 1199.71        2981.50           1649         101.00       440.28
 1199.74        2981.75           1653         108.00       470.80
 1199.77        2982.00           1656         113.00       492.60
 1199.80        2982.25           1659          99.00       431.57
 1199.83        2982.50           1663         107.00       466.44
 1199.86        2982.75           1666         102.00       444.64
 1199.89        2983.00           1669         102.00       444.64
 1199.92        2983.25           1673          97.00       422.85
 1199.95        2983.50           1676         105.00       457.72
 1199.98        2983.75           1679          99.00       431.57
 1200.01        2984.00           1683         107.00       466.44
HS scan finished at 20:00:19
end
