************************************************************
  HS Scan of (1) Internal mercury lamp
************************************************************
Integration time is 0.2294 seconds per sample
dh230418Delft 51.9969-4.3863 2.696889pr1000
************************************************************
Dead Time -------------------------  2.7E-08 
Number of Cycles Used -------------  4 
Starting Wavelength (Angstroms) ---  2950 
Final Wavelength (Angstoms) -------  2984 
Wavelength Increment (Angstroms) --  .25 
Filter Wheel #1 Position ---------- (1) Ground quartz diffuser (ND=2.32)
Filter Wheel #2 Position ---------- (1) Neutral Density 0.494



************************************************************
HS scan start time = 02:49:11
Dark Count =  0 


Time (GMT)  Wavelength (Ang)  Step Number  Raw Counts  Counts/Second

  169.64        2950.00           1229         115.00       501.31
  169.74        2950.25           1232         128.00       557.99
  169.77        2950.50           1236         122.00       531.83
  169.80        2950.75           1239         121.00       527.47
  169.83        2951.00           1242         120.00       523.11
  169.86        2951.25           1246         104.00       453.36
  169.89        2951.50           1249         127.00       553.63
  169.92        2951.75           1252         129.00       562.35
  169.95        2952.00           1256         113.00       492.60
  169.98        2952.25           1259         113.00       492.60
  170.01        2952.50           1262         125.00       544.91
  170.04        2952.75           1266         118.00       514.39
  170.07        2953.00           1269         122.00       531.83
  170.10        2953.25           1272         119.00       518.75
  170.13        2953.50           1276         123.00       536.19
  170.16        2953.75           1279         117.00       510.03
  170.19        2954.00           1282         128.00       557.99
  170.22        2954.25           1286         111.00       483.88
  170.25        2954.50           1289         120.00       523.11
  170.28        2954.75           1292         122.00       531.83
  170.31        2955.00           1296         120.00       523.11
  170.34        2955.25           1299         123.00       536.19
  170.37        2955.50           1302         124.00       540.55
  170.40        2955.75           1306         116.00       505.67
  170.43        2956.00           1309         124.00       540.55
  170.46        2956.25           1312         119.00       518.75
  170.49        2956.50           1316         125.00       544.91
  170.52        2956.75           1319         113.00       492.60
  170.55        2957.00           1322         118.00       514.39
  170.58        2957.25           1326         116.00       505.67
  170.61        2957.50           1329         115.00       501.31
  170.64        2957.75           1332         115.00       501.31
  170.67        2958.00           1336         114.00       496.96
  170.70        2958.25           1339         113.00       492.60
  170.73        2958.50           1342         125.00       544.91
  170.76        2958.75           1345         124.00       540.55
  170.79        2959.00           1349         119.00       518.75
  170.82        2959.25           1352         125.00       544.91
  170.85        2959.50           1355         123.00       536.19
  170.88        2959.75           1359         116.00       505.67
  170.91        2960.00           1362         124.00       540.55
  170.94        2960.25           1365         124.00       540.55
  170.97        2960.50           1369         117.00       510.03
  171.00        2960.75           1372         137.00       597.22
  171.03        2961.00           1375         132.00       575.42
  171.06        2961.25           1379         150.00       653.89
  171.09        2961.50           1382         195.00       850.06
  171.12        2961.75           1385         513.00      2236.40
  171.15        2962.00           1389        2373.00     10347.27
  171.18        2962.25           1392        4450.00     19408.60
  171.21        2962.50           1395        6522.00     28452.54
  171.24        2962.75           1399       10278.00     44858.14
  171.27        2963.00           1402       13209.00     57670.38
  171.30        2963.25           1405       15932.00     69581.34
  171.33        2963.50           1409       19707.00     86106.68
  171.36        2963.75           1412       22304.00     97483.80
  171.39        2964.00           1415       25057.00    109552.00
  171.42        2964.25           1419       28136.00    123058.60
  171.45        2964.50           1422       30247.00    132324.60
  171.48        2964.75           1425       32940.00    144152.00
  171.51        2965.00           1429       36089.00    157991.60
  171.54        2965.25           1432       38950.00    170574.60
  171.57        2965.50           1435       41441.00    181537.20
  171.60        2965.75           1439       44576.00    195343.20
  171.63        2966.00           1442       46909.00    205624.10
  171.66        2966.25           1445       49395.00    216585.50
  171.69        2966.50           1449       52733.00    231313.80
  171.72        2966.75           1452       54101.00    237353.20
  171.75        2967.00           1455       54661.00    239826.10
  171.78        2967.25           1459       54797.00    240426.70
  171.81        2967.50           1462       54875.00    240771.10
  171.84        2967.75           1465       54849.00    240656.30
  171.87        2968.00           1469       54010.00    236951.40
  171.90        2968.25           1472       52543.00    230475.10
  171.93        2968.50           1475       50076.00    219589.30
  171.96        2968.75           1479       47144.00    206660.00
  171.99        2969.00           1482       44937.00    196933.60
  172.02        2969.25           1485       41947.00    183764.80
  172.05        2969.50           1489       38900.00    170354.60
  172.08        2969.75           1492       36164.00    158321.40
  172.11        2970.00           1495       34244.00    149881.70
  172.14        2970.25           1499       30806.00    134779.00
  172.17        2970.50           1502       28095.00    122878.70
  172.20        2970.75           1505       25321.00    110709.70
  172.23        2971.00           1509       21657.00     94648.72
  172.26        2971.25           1512       18927.00     82690.96
  172.29        2971.50           1515       16691.00     72902.74
  172.31        2971.75           1519       13669.00     59681.97
  172.34        2972.00           1522       10995.00     47991.53
  172.37        2972.25           1525        8576.00     37422.27
  172.41        2972.50           1529        5336.00     23275.30
  172.43        2972.75           1532        3154.00     13754.02
  172.46        2973.00           1535        1551.00      6762.35
  172.49        2973.25           1539         531.00      2314.88
  172.52        2973.50           1542         216.00       941.61
  172.55        2973.75           1546         161.00       701.84
  172.58        2974.00           1549         139.00       605.94
  172.61        2974.25           1552         145.00       632.09
  172.64        2974.50           1556         125.00       544.91
  172.67        2974.75           1559         120.00       523.11
  172.70        2975.00           1562         124.00       540.55
  172.73        2975.25           1566         103.00       449.00
  172.76        2975.50           1569         103.00       449.00
  172.79        2975.75           1572         114.00       496.96
  172.82        2976.00           1576         111.00       483.88
  172.85        2976.25           1579         101.00       440.28
  172.88        2976.50           1582         106.00       462.08
  172.91        2976.75           1586         104.00       453.36
  172.94        2977.00           1589         111.00       483.88
  172.97        2977.25           1592         109.00       475.16
  173.00        2977.50           1596         103.00       449.00
  173.03        2977.75           1599         112.00       488.24
  173.06        2978.00           1602         106.00       462.08
  173.09        2978.25           1606         100.00       435.92
  173.12        2978.50           1609         106.00       462.08
  173.15        2978.75           1612         103.00       449.00
  173.18        2979.00           1616          95.00       414.13
  173.21        2979.25           1619          98.00       427.21
  173.24        2979.50           1622         100.00       435.92
  173.27        2979.75           1626         105.00       457.72
  173.30        2980.00           1629         103.00       449.00
  173.33        2980.25           1632         108.00       470.80
  173.36        2980.50           1636          95.00       414.13
  173.39        2980.75           1639         103.00       449.00
  173.42        2981.00           1642          90.00       392.33
  173.45        2981.25           1646         107.00       466.44
  173.48        2981.50           1649         104.00       453.36
  173.51        2981.75           1653         105.00       457.72
  173.54        2982.00           1656         105.00       457.72
  173.57        2982.25           1659          97.00       422.85
  173.60        2982.50           1663         100.00       435.92
  173.63        2982.75           1666          97.00       422.85
  173.66        2983.00           1669         104.00       453.36
  173.69        2983.25           1673          98.00       427.21
  173.72        2983.50           1676          97.00       422.85
  173.75        2983.75           1679         103.00       449.00
  173.78        2984.00           1683          98.00       427.21
HS scan finished at 02:54:05
end
************************************************************
  HS Scan of (1) Internal mercury lamp
************************************************************
Integration time is 0.2294 seconds per sample
dh230418Delft 51.9969-4.3863 2.643241pr1000
************************************************************
Dead Time -------------------------  2.7E-08 
Number of Cycles Used -------------  4 
Starting Wavelength (Angstroms) ---  2950 
Final Wavelength (Angstoms) -------  2984 
Wavelength Increment (Angstroms) --  .25 
Filter Wheel #1 Position ---------- (1) Ground quartz diffuser (ND=2.32)
Filter Wheel #2 Position ---------- (1) Neutral Density 0.494



************************************************************
HS scan start time = 19:48:14
Dark Count =  0 


Time (GMT)  Wavelength (Ang)  Step Number  Raw Counts  Counts/Second

 1188.68        2950.00           1229         127.00       553.63
 1188.78        2950.25           1232         127.00       553.63
 1188.81        2950.50           1236         125.00       544.91
 1188.84        2950.75           1239         132.00       575.42
 1188.87        2951.00           1242         113.00       492.60
 1188.90        2951.25           1246         133.00       579.78
 1188.93        2951.50           1249         115.00       501.31
 1188.96        2951.75           1252         135.00       588.50
 1188.99        2952.00           1256         121.00       527.47
 1189.02        2952.25           1259         129.00       562.35
 1189.05        2952.50           1262         121.00       527.47
 1189.08        2952.75           1266         129.00       562.35
 1189.11        2953.00           1269         117.00       510.03
 1189.14        2953.25           1272         122.00       531.83
 1189.17        2953.50           1276         124.00       540.55
 1189.20        2953.75           1279         129.00       562.35
 1189.23        2954.00           1282         130.00       566.70
 1189.26        2954.25           1286         117.00       510.03
 1189.29        2954.50           1289         118.00       514.39
 1189.32        2954.75           1292         129.00       562.35
 1189.35        2955.00           1296         117.00       510.03
 1189.38        2955.25           1299         121.00       527.47
 1189.41        2955.50           1302         112.00       488.24
 1189.44        2955.75           1306         106.00       462.08
 1189.47        2956.00           1309         128.00       557.99
 1189.50        2956.25           1312         123.00       536.19
 1189.53        2956.50           1316         116.00       505.67
 1189.56        2956.75           1319         121.00       527.47
 1189.59        2957.00           1322         119.00       518.75
 1189.62        2957.25           1326         123.00       536.19
 1189.65        2957.50           1329         120.00       523.11
 1189.68        2957.75           1332         123.00       536.19
 1189.71        2958.00           1336         118.00       514.39
 1189.73        2958.25           1339         122.00       531.83
 1189.76        2958.50           1342         113.00       492.60
 1189.79        2958.75           1345         111.00       483.88
 1189.82        2959.00           1349         119.00       518.75
 1189.85        2959.25           1352         127.00       553.63
 1189.88        2959.50           1355         118.00       514.39
 1189.91        2959.75           1359         127.00       553.63
 1189.94        2960.00           1362         119.00       518.75
 1189.97        2960.25           1365         118.00       514.39
 1190.00        2960.50           1369         125.00       544.91
 1190.03        2960.75           1372         123.00       536.19
 1190.06        2961.00           1375         126.00       549.27
 1190.09        2961.25           1379         143.00       623.38
 1190.12        2961.50           1382         205.00       893.66
 1190.15        2961.75           1385         641.00      2794.46
 1190.18        2962.00           1389        2250.00      9810.79
 1190.21        2962.25           1392        4232.00     18457.32
 1190.24        2962.50           1395        6509.00     28395.78
 1190.27        2962.75           1399        9883.00     43132.16
 1190.30        2963.00           1402       12366.00     53984.48
 1190.33        2963.25           1405       14594.00     63727.69
 1190.36        2963.50           1409       17870.00     78063.23
 1190.39        2963.75           1412       20283.00     88629.46
 1190.42        2964.00           1415       23027.00    100652.40
 1190.45        2964.25           1419       26551.00    116104.50
 1190.48        2964.50           1422       28986.00    126789.00
 1190.51        2964.75           1425       31303.00    136961.50
 1190.54        2965.00           1429       34734.00    152035.20
 1190.57        2965.25           1432       37197.00    162863.70
 1190.60        2965.50           1435       39931.00    174891.00
 1190.63        2965.75           1439       42894.00    187934.60
 1190.66        2966.00           1442       44687.00    195832.20
 1190.69        2966.25           1445       47142.00    206651.10
 1190.72        2966.50           1449       50177.00    220034.80
 1190.75        2966.75           1452       51678.00    226657.50
 1190.78        2967.00           1455       52351.00    229627.70
 1190.81        2967.25           1459       52307.00    229433.50
 1190.84        2967.50           1462       52265.00    229248.10
 1190.87        2967.75           1465       52231.00    229098.00
 1190.90        2968.00           1469       51079.00    224014.30
 1190.93        2968.25           1472       49299.00    216162.00
 1190.96        2968.50           1475       47264.00    207188.90
 1190.99        2968.75           1479       44932.00    196911.60
 1191.02        2969.00           1482       42685.00    187014.30
 1191.05        2969.25           1485       40388.00    176902.20
 1191.08        2969.50           1489       37012.00    162050.10
 1191.11        2969.75           1492       34399.00    150562.90
 1191.14        2970.00           1495       32026.00    140136.90
 1191.17        2970.25           1499       28958.00    126666.10
 1191.20        2970.50           1502       26371.00    115314.90
 1191.23        2970.75           1505       23942.00    104663.30
 1191.26        2971.00           1509       20517.00     89654.43
 1191.29        2971.25           1512       18011.00     78680.48
 1191.32        2971.50           1515       16115.00     70382.10
 1191.35        2971.75           1519       13234.00     57779.70
 1191.38        2972.00           1522       10994.00     47987.16
 1191.41        2972.25           1525        8604.00     37544.58
 1191.44        2972.50           1529        5322.00     23214.20
 1191.46        2972.75           1532        2981.00     12999.33
 1191.50        2973.00           1535        1246.00      5432.36
 1191.52        2973.25           1539         366.00      1595.54
 1191.55        2973.50           1542         200.00       871.86
 1191.58        2973.75           1546         157.00       684.41
 1191.61        2974.00           1549         138.00       601.58
 1191.64        2974.25           1552         138.00       601.58
 1191.67        2974.50           1556         138.00       601.58
 1191.70        2974.75           1559         112.00       488.24
 1191.73        2975.00           1562         112.00       488.24
 1191.76        2975.25           1566         109.00       475.16
 1191.79        2975.50           1569         118.00       514.39
 1191.82        2975.75           1572         111.00       483.88
 1191.85        2976.00           1576         107.00       466.44
 1191.88        2976.25           1579         105.00       457.72
 1191.91        2976.50           1582         111.00       483.88
 1191.94        2976.75           1586         106.00       462.08
 1191.97        2977.00           1589         104.00       453.36
 1192.00        2977.25           1592         110.00       479.52
 1192.03        2977.50           1596         111.00       483.88
 1192.06        2977.75           1599         103.00       449.00
 1192.09        2978.00           1602         100.00       435.92
 1192.12        2978.25           1606         112.00       488.24
 1192.15        2978.50           1609         109.00       475.16
 1192.18        2978.75           1612         108.00       470.80
 1192.21        2979.00           1616         105.00       457.72
 1192.24        2979.25           1619         108.00       470.80
 1192.27        2979.50           1622         105.00       457.72
 1192.30        2979.75           1626         100.00       435.92
 1192.33        2980.00           1629         102.00       444.64
 1192.36        2980.25           1632          97.00       422.85
 1192.39        2980.50           1636         110.00       479.52
 1192.42        2980.75           1639          94.00       409.77
 1192.45        2981.00           1642         101.00       440.28
 1192.48        2981.25           1646         104.00       453.36
 1192.51        2981.50           1649         106.00       462.08
 1192.54        2981.75           1653         105.00       457.72
 1192.57        2982.00           1656          99.00       431.57
 1192.60        2982.25           1659         111.00       483.88
 1192.63        2982.50           1663         101.00       440.28
 1192.65        2982.75           1666          98.00       427.21
 1192.68        2983.00           1669         105.00       457.72
 1192.71        2983.25           1673          92.00       401.05
 1192.74        2983.50           1676          99.00       431.57
 1192.77        2983.75           1679         107.00       466.44
 1192.80        2984.00           1683         105.00       457.72
HS scan finished at 19:53:07
end
