************************************************************
  HS Scan of (1) Internal mercury lamp
************************************************************
Integration time is 0.2294 seconds per sample
dh200417DelftKZ 51.997-4.386 2.214056pr1000
************************************************************
Dead Time -------------------------  3E-08 
Number of Cycles Used -------------  4 
Starting Wavelength (Angstroms) ---  2950 
Final Wavelength (Angstoms) -------  2984 
Wavelength Increment (Angstroms) --  .25 
Filter Wheel #1 Position ---------- (1) Ground quartz diffuser (ND=2.32)
Filter Wheel #2 Position ---------- (1) Neutral Density 0.494



************************************************************
HS scan start time = 02:44:22
Dark Count =  0 


Time (GMT)  Wavelength (Ang)  Step Number  Raw Counts  Counts/Second

  164.81        2950.00           1229         126.00       549.27
  164.91        2950.25           1232         130.00       566.71
  164.93        2950.50           1236         123.00       536.19
  164.96        2950.75           1239         133.00       579.78
  164.99        2951.00           1242         132.00       575.42
  165.02        2951.25           1246         141.00       614.66
  165.04        2951.50           1249         128.00       557.99
  165.07        2951.75           1252         131.00       571.06
  165.10        2952.00           1255         127.00       553.63
  165.13        2952.25           1259         126.00       549.27
  165.15        2952.50           1262         137.00       597.22
  165.18        2952.75           1265         125.00       544.91
  165.21        2953.00           1269         124.00       540.55
  165.24        2953.25           1272         126.00       549.27
  165.26        2953.50           1275         120.00       523.11
  165.29        2953.75           1279         124.00       540.55
  165.32        2954.00           1282         127.00       553.63
  165.35        2954.25           1285         132.00       575.42
  165.38        2954.50           1289         127.00       553.63
  165.40        2954.75           1292         117.00       510.03
  165.43        2955.00           1295         107.00       466.44
  165.46        2955.25           1299         125.00       544.91
  165.49        2955.50           1302         119.00       518.75
  165.51        2955.75           1305         123.00       536.19
  165.54        2956.00           1309         125.00       544.91
  165.57        2956.25           1312         126.00       549.27
  165.60        2956.50           1315         127.00       553.63
  165.63        2956.75           1319         123.00       536.19
  165.65        2957.00           1322         115.00       501.32
  165.68        2957.25           1325         117.00       510.03
  165.71        2957.50           1329         112.00       488.24
  165.74        2957.75           1332         125.00       544.91
  165.76        2958.00           1335         119.00       518.75
  165.79        2958.25           1339         118.00       514.39
  165.82        2958.50           1342         123.00       536.19
  165.85        2958.75           1345         121.00       527.47
  165.87        2959.00           1349         113.00       492.60
  165.90        2959.25           1352         118.00       514.39
  165.93        2959.50           1355         128.00       557.99
  165.96        2959.75           1359         123.00       536.19
  165.99        2960.00           1362         128.00       557.99
  166.01        2960.25           1365         116.00       505.67
  166.04        2960.50           1369         119.00       518.75
  166.07        2960.75           1372         126.00       549.27
  166.10        2961.00           1375         127.00       553.63
  166.12        2961.25           1379         147.00       640.81
  166.15        2961.50           1382         212.00       924.18
  166.18        2961.75           1385         612.00      2668.04
  166.21        2962.00           1389        1906.00      8310.70
  166.24        2962.25           1392        3502.00     15272.91
  166.26        2962.50           1395        5238.00     22849.14
  166.29        2962.75           1399        7190.00     31372.15
  166.32        2963.00           1402        8825.00     38514.40
  166.34        2963.25           1405       10765.00     46992.98
  166.37        2963.50           1409       13328.00     58200.93
  166.40        2963.75           1412       15044.00     65709.18
  166.43        2964.00           1415       17493.00     76430.50
  166.46        2964.25           1419       20051.00     87636.38
  166.48        2964.50           1422       21936.00     95898.86
  166.51        2964.75           1425       23909.00    104551.50
  166.54        2965.00           1429       26496.00    115903.60
  166.57        2965.25           1432       28448.00    124474.40
  166.60        2965.50           1435       29803.00    130426.50
  166.62        2965.75           1439       31804.00    139220.20
  166.65        2966.00           1442       33835.00    148150.50
  166.68        2966.25           1445       35527.00    155593.80
  166.71        2966.50           1449       37702.00    165166.90
  166.74        2966.75           1452       38516.00    168751.00
  166.76        2967.00           1455       38863.00    170279.20
  166.79        2967.25           1459       38971.00    170754.80
  166.82        2967.50           1462       39033.00    171027.90
  166.85        2967.75           1465       38803.00    170014.90
  166.87        2968.00           1469       38024.00    166584.60
  166.90        2968.25           1472       37233.00    163102.10
  166.93        2968.50           1475       35785.00    156729.10
  166.96        2968.75           1479       33909.00    148475.90
  166.98        2969.00           1482       31946.00    139844.40
  167.01        2969.25           1485       30079.00    131639.20
  167.04        2969.50           1489       27373.00    119753.80
  167.07        2969.75           1492       25313.00    110711.50
  167.10        2970.00           1495       23660.00    103459.20
  167.12        2970.25           1499       21644.00     94618.68
  167.15        2970.50           1502       19838.00     86703.00
  167.18        2970.75           1505       17786.00     77713.66
  167.21        2971.00           1509       15745.00     68777.33
  167.23        2971.25           1512       14016.00     61210.82
  167.26        2971.50           1515       12201.00     53271.64
  167.29        2971.75           1519        9689.00     42289.89
  167.32        2972.00           1522        7721.00     33691.40
  167.35        2972.25           1525        5739.00     25036.24
  167.37        2972.50           1529        3462.00     15098.38
  167.40        2972.75           1532        2053.00      8951.84
  167.43        2973.00           1536         715.00      3117.12
  167.46        2973.25           1539         287.00      1251.14
  167.48        2973.50           1542         163.00       710.56
  167.51        2973.75           1546         132.00       575.42
  167.54        2974.00           1549         139.00       605.94
  167.57        2974.25           1552         122.00       531.83
  167.60        2974.50           1556         120.00       523.11
  167.62        2974.75           1559         110.00       479.52
  167.65        2975.00           1562         108.00       470.80
  167.68        2975.25           1566         108.00       470.80
  167.71        2975.50           1569         116.00       505.67
  167.73        2975.75           1572         117.00       510.03
  167.76        2976.00           1576         104.00       453.36
  167.79        2976.25           1579         110.00       479.52
  167.82        2976.50           1582         105.00       457.72
  167.84        2976.75           1586         104.00       453.36
  167.87        2977.00           1589          98.00       427.21
  167.90        2977.25           1592         103.00       449.00
  167.93        2977.50           1596         102.00       444.64
  167.96        2977.75           1599         105.00       457.72
  167.98        2978.00           1602         114.00       496.96
  168.01        2978.25           1606          95.00       414.13
  168.04        2978.50           1609          98.00       427.21
  168.07        2978.75           1612         102.00       444.64
  168.10        2979.00           1616          97.00       422.85
  168.13        2979.25           1619         107.00       466.44
  168.16        2979.50           1623          99.00       431.57
  168.19        2979.75           1626         103.00       449.00
  168.22        2980.00           1629          98.00       427.21
  168.24        2980.25           1633         101.00       440.28
  168.27        2980.50           1636         108.00       470.80
  168.30        2980.75           1639         105.00       457.72
  168.33        2981.00           1643         117.00       510.03
  168.35        2981.25           1646         106.00       462.08
  168.38        2981.50           1649         100.00       435.93
  168.41        2981.75           1653         102.00       444.64
  168.44        2982.00           1656         112.00       488.24
  168.46        2982.25           1659         104.00       453.36
  168.49        2982.50           1663         101.00       440.28
  168.52        2982.75           1666         100.00       435.93
  168.55        2983.00           1669          87.00       379.25
  168.58        2983.25           1673         104.00       453.36
  168.61        2983.50           1676         112.00       488.24
  168.64        2983.75           1679         105.00       457.72
  168.67        2984.00           1683          96.00       418.49
HS scan finished at 02:48:58
end
