************************************************************
  HS Scan of (1) Internal mercury lamp
************************************************************
Integration time is 0.2294 seconds per sample
dh220417DelftKZ 51.997-4.386 2.375pr1000
************************************************************
Dead Time -------------------------  3E-08 
Number of Cycles Used -------------  4 
Starting Wavelength (Angstroms) ---  2950 
Final Wavelength (Angstoms) -------  2984 
Wavelength Increment (Angstroms) --  .25 
Filter Wheel #1 Position ---------- (1) Ground quartz diffuser (ND=2.32)
Filter Wheel #2 Position ---------- (1) Neutral Density 0.494



************************************************************
HS scan start time = 02:36:43
Dark Count =  .1 


Time (GMT)  Wavelength (Ang)  Step Number  Raw Counts  Counts/Second

  157.16        2950.00           1229         134.00       583.71
  157.26        2950.25           1232         140.00       609.86
  157.29        2950.50           1236         136.00       592.43
  157.31        2950.75           1239         126.00       548.83
  157.34        2951.00           1242         128.00       557.55
  157.37        2951.25           1246         130.00       566.27
  157.40        2951.50           1249         127.00       553.19
  157.43        2951.75           1252         137.00       596.78
  157.45        2952.00           1255         127.00       553.19
  157.48        2952.25           1259         128.00       557.55
  157.51        2952.50           1262         123.00       535.75
  157.54        2952.75           1265         132.00       574.99
  157.57        2953.00           1269         137.00       596.78
  157.60        2953.25           1272         123.00       535.75
  157.63        2953.50           1275         130.00       566.27
  157.66        2953.75           1279         128.00       557.55
  157.68        2954.00           1282         128.00       557.55
  157.71        2954.25           1285         132.00       574.99
  157.74        2954.50           1289         125.00       544.47
  157.77        2954.75           1292         135.00       588.07
  157.80        2955.00           1295         128.00       557.55
  157.83        2955.25           1299         123.00       535.75
  157.86        2955.50           1302         122.00       531.39
  157.89        2955.75           1305         116.00       505.24
  157.91        2956.00           1309         122.00       531.39
  157.94        2956.25           1312         118.00       513.96
  157.97        2956.50           1315         115.00       500.88
  158.00        2956.75           1319         126.00       548.83
  158.02        2957.00           1322         137.00       596.78
  158.05        2957.25           1325         130.00       566.27
  158.08        2957.50           1329         122.00       531.39
  158.11        2957.75           1332         116.00       505.24
  158.14        2958.00           1335         125.00       544.47
  158.16        2958.25           1339         127.00       553.19
  158.19        2958.50           1342         126.00       548.83
  158.22        2958.75           1345         121.00       527.04
  158.25        2959.00           1349         121.00       527.04
  158.27        2959.25           1352         123.00       535.75
  158.30        2959.50           1355         120.00       522.68
  158.33        2959.75           1359         127.00       553.19
  158.36        2960.00           1362         117.00       509.60
  158.39        2960.25           1365         124.00       540.11
  158.41        2960.50           1369         119.00       518.32
  158.44        2960.75           1372         135.00       588.07
  158.47        2961.00           1375         134.00       583.71
  158.50        2961.25           1379         152.00       662.18
  158.53        2961.50           1382         222.00       967.33
  158.55        2961.75           1385         686.00      2990.24
  158.58        2962.00           1389        2306.00     10054.91
  158.61        2962.25           1392        4308.00     18789.58
  158.64        2962.50           1395        6130.00     26742.90
  158.67        2962.75           1399        8312.00     36272.67
  158.70        2963.00           1402       10424.00     45501.92
  158.73        2963.25           1405       12541.00     54758.15
  158.75        2963.50           1409       15656.00     68387.34
  158.78        2963.75           1412       17935.00     78365.81
  158.81        2964.00           1415       20016.00     87482.57
  158.84        2964.25           1419       22859.00     99945.71
  158.87        2964.50           1422       25309.00    110693.50
  158.89        2964.75           1425       27673.00    121070.60
  158.92        2965.00           1429       30457.00    133299.70
  158.95        2965.25           1432       33064.00    144759.40
  158.98        2965.50           1435       35338.00    154761.80
  159.00        2965.75           1439       37949.00    166253.90
  159.03        2966.00           1442       40015.00    175352.90
  159.06        2966.25           1445       42040.00    184276.20
  159.09        2966.50           1449       44152.00    193587.90
  159.12        2966.75           1452       44888.00    196834.10
  159.14        2967.00           1455       45443.00    199282.40
  159.17        2967.25           1459       45688.00    200363.40
  159.20        2967.50           1462       45510.00    199578.00
  159.23        2967.75           1465       45204.00    198228.10
  159.26        2968.00           1469       43960.00    192741.20
  159.28        2968.25           1472       42843.00    187815.90
  159.31        2968.50           1475       40996.00    179675.10
  159.34        2968.75           1479       38529.00    168807.80
  159.37        2969.00           1482       36341.00    159175.50
  159.39        2969.25           1485       34415.00    150701.10
  159.42        2969.50           1489       31788.00    139149.40
  159.45        2969.75           1492       29907.00    130883.00
  159.48        2970.00           1495       27859.00    121887.40
  159.50        2970.25           1499       25225.00    110324.90
  159.53        2970.50           1502       22718.00     99327.37
  159.56        2970.75           1505       20802.00     90927.30
  159.59        2971.00           1509       18002.00     78659.25
  159.62        2971.25           1512       15743.00     68768.15
  159.64        2971.50           1515       13779.00     60173.49
  159.67        2971.75           1519       10968.00     47879.98
  159.70        2972.00           1522        8733.00     38111.99
  159.73        2972.25           1525        6685.00     29166.31
  159.76        2972.50           1529        4520.00     19714.80
  159.78        2972.75           1532        2618.00     11415.85
  159.81        2973.00           1536         838.00      3652.97
  159.84        2973.25           1539         301.00      1311.73
  159.87        2973.50           1542         175.00       762.44
  159.89        2973.75           1546         153.00       666.53
  159.92        2974.00           1549         145.00       631.66
  159.95        2974.25           1552         117.00       509.60
  159.98        2974.50           1556         118.00       513.96
  160.00        2974.75           1559         121.00       527.04
  160.03        2975.00           1562         112.00       487.80
  160.06        2975.25           1566         112.00       487.80
  160.09        2975.50           1569         109.00       474.72
  160.12        2975.75           1572         111.00       483.44
  160.14        2976.00           1576         121.00       527.04
  160.17        2976.25           1579         110.00       479.08
  160.20        2976.50           1582         116.00       505.24
  160.23        2976.75           1586         113.00       492.16
  160.25        2977.00           1589         108.00       470.36
  160.28        2977.25           1592         106.00       461.65
  160.31        2977.50           1596         107.00       466.00
  160.34        2977.75           1599         107.00       466.00
  160.37        2978.00           1602         107.00       466.00
  160.40        2978.25           1606         117.00       509.60
  160.43        2978.50           1609          97.00       422.41
  160.46        2978.75           1612         100.00       435.49
  160.48        2979.00           1616         110.00       479.08
  160.51        2979.25           1619         109.00       474.72
  160.54        2979.50           1623         104.00       452.93
  160.57        2979.75           1626         102.00       444.21
  160.59        2980.00           1629         104.00       452.93
  160.62        2980.25           1633         102.00       444.21
  160.65        2980.50           1636         105.00       457.29
  160.68        2980.75           1639         104.00       452.93
  160.71        2981.00           1643         104.00       452.93
  160.73        2981.25           1646         106.00       461.65
  160.76        2981.50           1649         111.00       483.44
  160.79        2981.75           1653         101.00       439.85
  160.82        2982.00           1656         107.00       466.00
  160.84        2982.25           1659         107.00       466.00
  160.87        2982.50           1663         107.00       466.00
  160.90        2982.75           1666         101.00       439.85
  160.93        2983.00           1669          88.00       383.18
  160.95        2983.25           1673         105.00       457.29
  160.98        2983.50           1676          90.00       391.90
  161.01        2983.75           1679          90.00       391.90
  161.04        2984.00           1683         106.00       461.65
HS scan finished at 02:41:20
end
