************************************************************
  HS Scan of (1) Internal mercury lamp
************************************************************
Integration time is 0.2294 seconds per sample
dh260418Delft 51.9969-4.3863 2.482296pr1000
************************************************************
Dead Time -------------------------  2.7E-08 
Number of Cycles Used -------------  4 
Starting Wavelength (Angstroms) ---  2950 
Final Wavelength (Angstoms) -------  2984 
Wavelength Increment (Angstroms) --  .25 
Filter Wheel #1 Position ---------- (1) Ground quartz diffuser (ND=2.32)
Filter Wheel #2 Position ---------- (1) Neutral Density 0.494



************************************************************
HS scan start time = 03:00:55
Dark Count =  0 


Time (GMT)  Wavelength (Ang)  Step Number  Raw Counts  Counts/Second

  181.38        2950.00           1229         127.00       553.63
  181.48        2950.25           1232         121.00       527.47
  181.51        2950.50           1236         136.00       592.86
  181.54        2950.75           1239         130.00       566.70
  181.57        2951.00           1242         135.00       588.50
  181.59        2951.25           1246         115.00       501.31
  181.62        2951.50           1249         120.00       523.11
  181.65        2951.75           1252         123.00       536.19
  181.68        2952.00           1256         123.00       536.19
  181.71        2952.25           1259         131.00       571.06
  181.74        2952.50           1262         134.00       584.14
  181.77        2952.75           1266         118.00       514.39
  181.80        2953.00           1269         114.00       496.96
  181.83        2953.25           1272         126.00       549.27
  181.86        2953.50           1276         117.00       510.03
  181.89        2953.75           1279         129.00       562.35
  181.92        2954.00           1282         128.00       557.99
  181.95        2954.25           1286         121.00       527.47
  181.98        2954.50           1289         117.00       510.03
  182.01        2954.75           1292         123.00       536.19
  182.04        2955.00           1296         116.00       505.67
  182.07        2955.25           1299         122.00       531.83
  182.10        2955.50           1302         114.00       496.96
  182.13        2955.75           1306         123.00       536.19
  182.16        2956.00           1309         123.00       536.19
  182.19        2956.25           1312         115.00       501.31
  182.22        2956.50           1316         125.00       544.91
  182.25        2956.75           1319         120.00       523.11
  182.28        2957.00           1322         116.00       505.67
  182.31        2957.25           1326         117.00       510.03
  182.34        2957.50           1329         131.00       571.06
  182.37        2957.75           1332         125.00       544.91
  182.40        2958.00           1336         121.00       527.47
  182.43        2958.25           1339         121.00       527.47
  182.46        2958.50           1342         121.00       527.47
  182.49        2958.75           1345         123.00       536.19
  182.52        2959.00           1349         116.00       505.67
  182.55        2959.25           1352         118.00       514.39
  182.58        2959.50           1355         111.00       483.88
  182.61        2959.75           1359         121.00       527.47
  182.64        2960.00           1362         129.00       562.35
  182.66        2960.25           1365         117.00       510.03
  182.69        2960.50           1369         117.00       510.03
  182.72        2960.75           1372         127.00       553.63
  182.75        2961.00           1375         133.00       579.78
  182.78        2961.25           1379         152.00       662.61
  182.81        2961.50           1382         192.00       836.99
  182.84        2961.75           1385         539.00      2349.76
  182.87        2962.00           1389        2065.00      9003.93
  182.90        2962.25           1392        3755.00     16376.03
  182.93        2962.50           1395        5544.00     24183.18
  182.96        2962.75           1399        8453.00     36885.02
  182.99        2963.00           1402       11082.00     48371.77
  183.02        2963.25           1405       13654.00     59616.38
  183.05        2963.50           1409       16963.00     74093.15
  183.08        2963.75           1412       19646.00     85839.52
  183.11        2964.00           1415       22106.00     96616.13
  183.14        2964.25           1419       25319.00    110700.90
  183.17        2964.50           1422       27844.00    121777.30
  183.20        2964.75           1425       29979.00    131148.00
  183.23        2965.00           1429       33316.00    145803.90
  183.26        2965.25           1432       35438.00    155129.70
  183.29        2965.50           1435       37298.00    163307.90
  183.32        2965.75           1439       40096.00    175617.10
  183.35        2966.00           1442       42223.00    184980.00
  183.38        2966.25           1445       44946.00    196973.30
  183.41        2966.50           1449       47683.00    209036.10
  183.44        2966.75           1452       48904.00    214420.00
  183.47        2967.00           1455       49413.00    216664.80
  183.50        2967.25           1459       49681.00    217846.90
  183.53        2967.50           1462       49806.00    218398.30
  183.56        2967.75           1465       49519.00    217132.40
  183.59        2968.00           1469       48942.00    214587.60
  183.62        2968.25           1472       47781.00    209468.20
  183.65        2968.50           1475       46028.00    201741.10
  183.68        2968.75           1479       43332.00    189863.60
  183.71        2969.00           1482       41223.00    180577.50
  183.74        2969.25           1485       38696.00    169457.10
  183.77        2969.50           1489       35315.00    154589.00
  183.80        2969.75           1492       33038.00    144582.50
  183.83        2970.00           1495       31142.00    136254.50
  183.86        2970.25           1499       27648.00    120917.20
  183.89        2970.50           1502       25236.00    110336.90
  183.92        2970.75           1505       22911.00    100144.00
  183.95        2971.00           1509       20279.00     88611.93
  183.98        2971.25           1512       18033.00     78776.79
  184.01        2971.50           1515       15704.00     68583.73
  184.04        2971.75           1519       12384.00     54063.17
  184.07        2972.00           1522        9871.00     43079.73
  184.10        2972.25           1525        7620.00     33246.92
  184.13        2972.50           1529        5022.00     21904.85
  184.16        2972.75           1532        2860.00     12471.51
  184.19        2973.00           1535        1392.00      6069.00
  184.22        2973.25           1539         415.00      1809.16
  184.25        2973.50           1542         201.00       876.22
  184.28        2973.75           1546         158.00       688.77
  184.31        2974.00           1549         156.00       680.05
  184.34        2974.25           1552         145.00       632.09
  184.37        2974.50           1556         132.00       575.42
  184.40        2974.75           1559         120.00       523.11
  184.43        2975.00           1562         123.00       536.19
  184.46        2975.25           1566         117.00       510.03
  184.49        2975.50           1569         110.00       479.52
  184.52        2975.75           1572         118.00       514.39
  184.55        2976.00           1576         108.00       470.80
  184.58        2976.25           1579         107.00       466.44
  184.62        2976.50           1582         117.00       510.03
  184.65        2976.75           1586         111.00       483.88
  184.68        2977.00           1589         108.00       470.80
  184.71        2977.25           1592         110.00       479.52
  184.74        2977.50           1596         105.00       457.72
  184.77        2977.75           1599         101.00       440.28
  184.80        2978.00           1602         108.00       470.80
  184.83        2978.25           1606         113.00       492.60
  184.86        2978.50           1609         113.00       492.60
  184.89        2978.75           1612         101.00       440.28
  184.92        2979.00           1616         117.00       510.03
  184.95        2979.25           1619         104.00       453.36
  184.98        2979.50           1622         105.00       457.72
  185.01        2979.75           1626         107.00       466.44
  185.04        2980.00           1629         107.00       466.44
  185.08        2980.25           1632         115.00       501.31
  185.11        2980.50           1636         112.00       488.24
  185.14        2980.75           1639         109.00       475.16
  185.17        2981.00           1642         110.00       479.52
  185.20        2981.25           1646          93.00       405.41
  185.23        2981.50           1649          98.00       427.21
  185.26        2981.75           1653         109.00       475.16
  185.29        2982.00           1656         106.00       462.08
  185.32        2982.25           1659         101.00       440.28
  185.35        2982.50           1663         100.00       435.92
  185.38        2982.75           1666          98.00       427.21
  185.42        2983.00           1669         108.00       470.80
  185.45        2983.25           1673         111.00       483.88
  185.48        2983.50           1676         106.00       462.08
  185.51        2983.75           1679         103.00       449.00
  185.54        2984.00           1683         110.00       479.52
HS scan finished at 03:05:51
end
************************************************************
  HS Scan of (1) Internal mercury lamp
************************************************************
Integration time is 0.2294 seconds per sample
dh260418Delft 51.9969-4.3863 2.589593pr1000
************************************************************
Dead Time -------------------------  2.7E-08 
Number of Cycles Used -------------  4 
Starting Wavelength (Angstroms) ---  2950 
Final Wavelength (Angstoms) -------  2984 
Wavelength Increment (Angstroms) --  .25 
Filter Wheel #1 Position ---------- (1) Ground quartz diffuser (ND=2.32)
Filter Wheel #2 Position ---------- (1) Neutral Density 0.494



************************************************************
HS scan start time = 20:02:20
Dark Count =  0 


Time (GMT)  Wavelength (Ang)  Step Number  Raw Counts  Counts/Second

 1202.79        2950.00           1229         129.00       562.35
 1202.89        2950.25           1232         129.00       562.35
 1202.92        2950.50           1236         132.00       575.42
 1202.95        2950.75           1239         133.00       579.78
 1202.98        2951.00           1242         126.00       549.27
 1203.01        2951.25           1246         123.00       536.19
 1203.04        2951.50           1249         132.00       575.42
 1203.07        2951.75           1252         130.00       566.70
 1203.10        2952.00           1256         122.00       531.83
 1203.13        2952.25           1259         123.00       536.19
 1203.16        2952.50           1262         124.00       540.55
 1203.19        2952.75           1266         113.00       492.60
 1203.22        2953.00           1269         122.00       531.83
 1203.25        2953.25           1272         129.00       562.35
 1203.28        2953.50           1276         120.00       523.11
 1203.31        2953.75           1279         133.00       579.78
 1203.34        2954.00           1282         120.00       523.11
 1203.37        2954.25           1286         122.00       531.83
 1203.40        2954.50           1289         130.00       566.70
 1203.43        2954.75           1292         134.00       584.14
 1203.46        2955.00           1296         123.00       536.19
 1203.49        2955.25           1299         129.00       562.35
 1203.52        2955.50           1302         127.00       553.63
 1203.55        2955.75           1306         124.00       540.55
 1203.58        2956.00           1309         129.00       562.35
 1203.61        2956.25           1312         123.00       536.19
 1203.64        2956.50           1316         124.00       540.55
 1203.67        2956.75           1319         121.00       527.47
 1203.70        2957.00           1322         108.00       470.80
 1203.73        2957.25           1326         121.00       527.47
 1203.76        2957.50           1329         113.00       492.60
 1203.79        2957.75           1332         132.00       575.42
 1203.82        2958.00           1336         130.00       566.70
 1203.85        2958.25           1339         122.00       531.83
 1203.88        2958.50           1342         120.00       523.11
 1203.91        2958.75           1345         120.00       523.11
 1203.94        2959.00           1349         134.00       584.14
 1203.97        2959.25           1352         119.00       518.75
 1204.00        2959.50           1355         127.00       553.63
 1204.03        2959.75           1359         106.00       462.08
 1204.06        2960.00           1362         110.00       479.52
 1204.08        2960.25           1365         120.00       523.11
 1204.12        2960.50           1369         123.00       536.19
 1204.15        2960.75           1372         134.00       584.14
 1204.18        2961.00           1375         138.00       601.58
 1204.20        2961.25           1379         140.00       610.30
 1204.23        2961.50           1382         164.00       714.92
 1204.27        2961.75           1385         520.00      2266.92
 1204.30        2962.00           1389        2059.00      8977.77
 1204.33        2962.25           1392        3767.00     16428.39
 1204.36        2962.50           1395        6147.00     26815.40
 1204.39        2962.75           1399        9327.00     40702.95
 1204.42        2963.00           1402       12018.00     52463.11
 1204.45        2963.25           1405       14411.00     62927.23
 1204.48        2963.50           1409       17927.00     78312.76
 1204.51        2963.75           1412       20560.00     89842.78
 1204.54        2964.00           1415       22885.00    100030.10
 1204.57        2964.25           1419       25622.00    112029.70
 1204.60        2964.50           1422       28060.00    122725.10
 1204.63        2964.75           1425       30430.00    133128.10
 1204.66        2965.00           1429       33783.00    147855.90
 1204.69        2965.25           1432       35946.00    157362.90
 1204.72        2965.50           1435       37825.00    165625.70
 1204.75        2965.75           1439       41018.00    179675.10
 1204.78        2966.00           1442       43337.00    189885.60
 1204.81        2966.25           1445       45725.00    200405.80
 1204.84        2966.50           1449       48731.00    213657.10
 1204.88        2966.75           1452       50176.00    220030.40
 1204.90        2967.00           1455       50595.00    221878.90
 1204.93        2967.25           1459       50737.00    222505.40
 1204.96        2967.50           1462       50874.00    223109.80
 1204.99        2967.75           1465       50649.00    222117.10
 1205.03        2968.00           1469       49878.00    218715.90
 1205.06        2968.25           1472       48345.00    211955.00
 1205.09        2968.50           1475       46513.00    203878.60
 1205.12        2968.75           1479       43788.00    191872.00
 1205.15        2969.00           1482       41654.00    182474.90
 1205.18        2969.25           1485       39089.00    171186.10
 1205.21        2969.50           1489       36234.00    158629.10
 1205.24        2969.75           1492       34272.00    150004.80
 1205.27        2970.00           1495       31990.00    139978.80
 1205.30        2970.25           1499       28521.00    124748.20
 1205.33        2970.50           1502       26040.00    113863.00
 1205.36        2970.75           1505       23425.00    102396.90
 1205.39        2971.00           1509       20165.00     88112.60
 1205.42        2971.25           1512       18007.00     78662.98
 1205.45        2971.50           1515       15782.00     68925.01
 1205.48        2971.75           1519       12697.00     55431.64
 1205.51        2972.00           1522       10097.00     44067.23
 1205.54        2972.25           1525        7773.00     33915.09
 1205.57        2972.50           1529        5399.00     23550.28
 1205.60        2972.75           1532        3324.00     14495.65
 1205.64        2973.00           1535        1791.00      7808.97
 1205.67        2973.25           1539         511.00      2227.68
 1205.70        2973.50           1542         201.00       876.22
 1205.73        2973.75           1546         159.00       693.13
 1205.76        2974.00           1549         147.00       640.81
 1205.79        2974.25           1552         132.00       575.42
 1205.82        2974.50           1556         134.00       584.14
 1205.85        2974.75           1559         131.00       571.06
 1205.88        2975.00           1562         121.00       527.47
 1205.91        2975.25           1566         115.00       501.31
 1205.94        2975.50           1569         108.00       470.80
 1205.97        2975.75           1572         107.00       466.44
 1206.00        2976.00           1576         116.00       505.67
 1206.03        2976.25           1579         108.00       470.80
 1206.06        2976.50           1582         108.00       470.80
 1206.09        2976.75           1586         111.00       483.88
 1206.12        2977.00           1589         110.00       479.52
 1206.15        2977.25           1592         102.00       444.64
 1206.19        2977.50           1596         117.00       510.03
 1206.22        2977.75           1599         107.00       466.44
 1206.25        2978.00           1602         103.00       449.00
 1206.28        2978.25           1606         105.00       457.72
 1206.31        2978.50           1609         114.00       496.96
 1206.34        2978.75           1612         106.00       462.08
 1206.37        2979.00           1616         101.00       440.28
 1206.40        2979.25           1619         110.00       479.52
 1206.43        2979.50           1622         111.00       483.88
 1206.46        2979.75           1626         105.00       457.72
 1206.49        2980.00           1629         107.00       466.44
 1206.52        2980.25           1632         107.00       466.44
 1206.55        2980.50           1636         111.00       483.88
 1206.58        2980.75           1639         105.00       457.72
 1206.61        2981.00           1642         114.00       496.96
 1206.64        2981.25           1646         110.00       479.52
 1206.67        2981.50           1649          94.00       409.77
 1206.70        2981.75           1653         105.00       457.72
 1206.73        2982.00           1656         113.00       492.60
 1206.76        2982.25           1659          99.00       431.57
 1206.79        2982.50           1663         105.00       457.72
 1206.82        2982.75           1666          98.00       427.21
 1206.85        2983.00           1669         101.00       440.28
 1206.88        2983.25           1673         110.00       479.52
 1206.91        2983.50           1676         106.00       462.08
 1206.94        2983.75           1679          98.00       427.21
 1206.97        2984.00           1683          98.00       427.21
HS scan finished at 20:07:17
end
