************************************************************
  HS Scan of (1) Internal mercury lamp
************************************************************
Integration time is 0.2294 seconds per sample
dh030517De Bilt 52.1-5.183 2.482296pr1000
************************************************************
Dead Time -------------------------  3E-08 
Number of Cycles Used -------------  4 
Starting Wavelength (Angstroms) ---  2950 
Final Wavelength (Angstoms) -------  2984 
Wavelength Increment (Angstroms) --  .25 
Filter Wheel #1 Position ---------- (1) Ground quartz diffuser (ND=2.32)
Filter Wheel #2 Position ---------- (1) Neutral Density 0.494



************************************************************
HS scan start time = 01:41:20
Dark Count =  0 


Time (GMT)  Wavelength (Ang)  Step Number  Raw Counts  Counts/Second

  101.79        2950.00           1229         132.00       575.42
  101.88        2950.25           1232         128.00       557.99
  101.91        2950.50           1236         128.00       557.99
  101.94        2950.75           1239         122.00       531.83
  101.97        2951.00           1242         121.00       527.47
  102.00        2951.25           1246         129.00       562.35
  102.02        2951.50           1249         130.00       566.71
  102.05        2951.75           1252         126.00       549.27
  102.08        2952.00           1255         133.00       579.78
  102.11        2952.25           1259         131.00       571.06
  102.13        2952.50           1262         130.00       566.71
  102.16        2952.75           1265         125.00       544.91
  102.19        2953.00           1269         132.00       575.42
  102.22        2953.25           1272         126.00       549.27
  102.24        2953.50           1275         125.00       544.91
  102.27        2953.75           1279         122.00       531.83
  102.30        2954.00           1282         123.00       536.19
  102.33        2954.25           1285         118.00       514.39
  102.35        2954.50           1289         122.00       531.83
  102.38        2954.75           1292         132.00       575.42
  102.41        2955.00           1295         124.00       540.55
  102.44        2955.25           1299         125.00       544.91
  102.46        2955.50           1302         130.00       566.71
  102.49        2955.75           1305         115.00       501.32
  102.52        2956.00           1309         128.00       557.99
  102.55        2956.25           1312         138.00       601.58
  102.58        2956.50           1315         124.00       540.55
  102.60        2956.75           1319         137.00       597.22
  102.63        2957.00           1322         122.00       531.83
  102.66        2957.25           1325         122.00       531.83
  102.69        2957.50           1329         117.00       510.03
  102.71        2957.75           1332         124.00       540.55
  102.74        2958.00           1335         127.00       553.63
  102.77        2958.25           1339         116.00       505.67
  102.80        2958.50           1342         118.00       514.39
  102.82        2958.75           1345         119.00       518.75
  102.85        2959.00           1349         125.00       544.91
  102.88        2959.25           1352         122.00       531.83
  102.91        2959.50           1355         121.00       527.47
  102.93        2959.75           1359         116.00       505.67
  102.96        2960.00           1362         137.00       597.22
  102.99        2960.25           1365         141.00       614.66
  103.02        2960.50           1369         135.00       588.50
  103.05        2960.75           1372         134.00       584.14
  103.07        2961.00           1375         148.00       645.17
  103.10        2961.25           1379         164.00       714.92
  103.13        2961.50           1382         250.00      1089.84
  103.16        2961.75           1385         866.00      3775.49
  103.18        2962.00           1389        2884.00     12576.67
  103.21        2962.25           1392        4938.00     21539.63
  103.24        2962.50           1395        7665.00     33446.80
  103.27        2962.75           1399       10902.00     47591.88
  103.29        2963.00           1402       13773.00     60147.67
  103.32        2963.25           1405       16690.00     72914.35
  103.35        2963.50           1409       20341.00     88907.27
  103.38        2963.75           1412       23153.00    101235.50
  103.40        2964.00           1415       25527.00    111650.60
  103.43        2964.25           1419       28345.00    124022.10
  103.46        2964.50           1422       30756.00    134614.00
  103.49        2964.75           1425       33411.00    146285.80
  103.52        2965.00           1429       36840.00    161372.20
  103.54        2965.25           1432       39323.00    172305.10
  103.57        2965.50           1435       41811.00    183267.30
  103.60        2965.75           1439       44946.00    197090.40
  103.63        2966.00           1442       47626.00    208916.50
  103.66        2966.25           1445       50365.00    221011.60
  103.68        2966.50           1449       53213.00    233597.30
  103.71        2966.75           1452       54042.00    237262.60
  103.74        2967.00           1455       54597.00    239716.90
  103.77        2967.25           1459       54541.00    239469.20
  103.79        2967.50           1462       54698.00    240163.50
  103.82        2967.75           1465       54585.00    239663.80
  103.85        2968.00           1469       53422.00    234521.30
  103.88        2968.25           1472       51324.00    225248.50
  103.91        2968.50           1475       49678.00    217977.00
  103.93        2968.75           1479       46156.00    202428.70
  103.96        2969.00           1482       43603.00    191167.30
  103.99        2969.25           1485       41003.00    179706.40
  104.02        2969.50           1489       37832.00    165739.20
  104.05        2969.75           1492       36028.00    157798.40
  104.07        2970.00           1495       33566.00    146967.40
  104.10        2970.25           1499       30245.00    132368.50
  104.13        2970.50           1502       27314.00    119494.70
  104.16        2970.75           1505       24346.00    106468.60
  104.18        2971.00           1509       20662.00     90314.12
  104.21        2971.25           1512       18330.00     80096.33
  104.24        2971.50           1515       15838.00     69184.43
  104.27        2971.75           1519       12936.00     56486.23
  104.29        2972.00           1522       10537.00     45996.30
  104.32        2972.25           1525        8077.00     35246.49
  104.35        2972.50           1529        4930.00     21504.72
  104.38        2972.75           1532        2816.00     12280.03
  104.41        2973.00           1536        1100.00      4795.81
  104.43        2973.25           1539         395.00      1721.97
  104.46        2973.50           1542         179.00       780.31
  104.49        2973.75           1546         145.00       632.10
  104.52        2974.00           1549         137.00       597.22
  104.54        2974.25           1552         122.00       531.83
  104.57        2974.50           1556         128.00       557.99
  104.60        2974.75           1559         121.00       527.47
  104.63        2975.00           1562         105.00       457.72
  104.65        2975.25           1566         106.00       462.08
  104.68        2975.50           1569         114.00       496.96
  104.71        2975.75           1572         126.00       549.27
  104.74        2976.00           1576         124.00       540.55
  104.77        2976.25           1579         104.00       453.36
  104.79        2976.50           1582         116.00       505.67
  104.82        2976.75           1586         113.00       492.60
  104.85        2977.00           1589         110.00       479.52
  104.88        2977.25           1592         115.00       501.32
  104.90        2977.50           1596         113.00       492.60
  104.93        2977.75           1599         115.00       501.32
  104.96        2978.00           1602         116.00       505.67
  104.99        2978.25           1606         106.00       462.08
  105.01        2978.50           1609         111.00       483.88
  105.04        2978.75           1612         109.00       475.16
  105.07        2979.00           1616         118.00       514.39
  105.10        2979.25           1619         110.00       479.52
  105.13        2979.50           1623         100.00       435.93
  105.16        2979.75           1626         117.00       510.03
  105.18        2980.00           1629         109.00       475.16
  105.21        2980.25           1633         102.00       444.64
  105.24        2980.50           1636         111.00       483.88
  105.27        2980.75           1639         108.00       470.80
  105.30        2981.00           1643         101.00       440.28
  105.32        2981.25           1646         117.00       510.03
  105.35        2981.50           1649         113.00       492.60
  105.38        2981.75           1653         111.00       483.88
  105.41        2982.00           1656         106.00       462.08
  105.43        2982.25           1659         102.00       444.64
  105.46        2982.50           1663         110.00       479.52
  105.50        2982.75           1666         113.00       492.60
  105.53        2983.00           1669         109.00       475.16
  105.56        2983.25           1673          95.00       414.13
  105.59        2983.50           1676         105.00       457.72
  105.62        2983.75           1679         103.00       449.00
  105.65        2984.00           1683         107.00       466.44
HS scan finished at 01:45:57
end
************************************************************
  HS Scan of (1) Internal mercury lamp
************************************************************
Integration time is 0.2294 seconds per sample
dh030517De Bilt 52.1-5.183 2.482296pr1000
************************************************************
Dead Time -------------------------  3E-08 
Number of Cycles Used -------------  4 
Starting Wavelength (Angstroms) ---  2950 
Final Wavelength (Angstoms) -------  2984 
Wavelength Increment (Angstroms) --  .25 
Filter Wheel #1 Position ---------- (1) Ground quartz diffuser (ND=2.32)
Filter Wheel #2 Position ---------- (1) Neutral Density 0.494



************************************************************
HS scan start time = 02:07:39
Dark Count =  0 


Time (GMT)  Wavelength (Ang)  Step Number  Raw Counts  Counts/Second

  128.11        2950.00           1229         133.00       579.78
  128.21        2950.25           1232         124.00       540.55
  128.23        2950.50           1236         137.00       597.22
  128.26        2950.75           1239         125.00       544.91
  128.29        2951.00           1242         124.00       540.55
  128.32        2951.25           1246         123.00       536.19
  128.34        2951.50           1249         131.00       571.06
  128.37        2951.75           1252         123.00       536.19
  128.40        2952.00           1255         130.00       566.71
  128.43        2952.25           1259         125.00       544.91
  128.45        2952.50           1262         140.00       610.30
  128.48        2952.75           1265         117.00       510.03
  128.51        2953.00           1269         129.00       562.35
  128.54        2953.25           1272         132.00       575.42
  128.57        2953.50           1275         134.00       584.14
  128.59        2953.75           1279         120.00       523.11
  128.62        2954.00           1282         127.00       553.63
  128.65        2954.25           1285         125.00       544.91
  128.68        2954.50           1289         127.00       553.63
  128.70        2954.75           1292         118.00       514.39
  128.73        2955.00           1295         111.00       483.88
  128.76        2955.25           1299         119.00       518.75
  128.79        2955.50           1302         129.00       562.35
  128.81        2955.75           1305         132.00       575.42
  128.84        2956.00           1309         125.00       544.91
  128.87        2956.25           1312         116.00       505.67
  128.90        2956.50           1315         122.00       531.83
  128.93        2956.75           1319         120.00       523.11
  128.95        2957.00           1322         127.00       553.63
  128.98        2957.25           1325         123.00       536.19
  129.01        2957.50           1329         135.00       588.50
  129.04        2957.75           1332         133.00       579.78
  129.07        2958.00           1335         121.00       527.47
  129.09        2958.25           1339         124.00       540.55
  129.12        2958.50           1342         106.00       462.08
  129.15        2958.75           1345         133.00       579.78
  129.18        2959.00           1349         114.00       496.96
  129.21        2959.25           1352         133.00       579.78
  129.24        2959.50           1355         129.00       562.35
  129.26        2959.75           1359         122.00       531.83
  129.29        2960.00           1362         118.00       514.39
  129.32        2960.25           1365         127.00       553.63
  129.35        2960.50           1369         127.00       553.63
  129.38        2960.75           1372         136.00       592.86
  129.40        2961.00           1375         140.00       610.30
  129.43        2961.25           1379         155.00       675.69
  129.46        2961.50           1382         168.00       732.36
  129.49        2961.75           1385         548.00      2389.01
  129.51        2962.00           1389        2007.00      8751.21
  129.54        2962.25           1392        3590.00     15656.87
  129.57        2962.50           1395        5241.00     22862.23
  129.60        2962.75           1399        7937.00     34634.92
  129.62        2963.00           1402       10110.00     44129.88
  129.65        2963.25           1405       11953.00     52187.14
  129.68        2963.50           1409       14525.00     63437.97
  129.71        2963.75           1412       16834.00     73544.83
  129.74        2964.00           1415       18812.00     82207.73
  129.76        2964.25           1419       21445.00     93746.28
  129.79        2964.50           1422       23452.00    102546.90
  129.82        2964.75           1425       25380.00    111005.50
  129.85        2965.00           1429       27699.00    121185.20
  129.87        2965.25           1432       29872.00    130729.70
  129.91        2965.50           1435       31963.00    139919.10
  129.94        2965.75           1439       34808.00    152430.40
  129.96        2966.00           1442       36409.00    159475.20
  129.99        2966.25           1445       38020.00    166567.00
  130.02        2966.50           1449       40741.00    178552.00
  130.05        2966.75           1452       41886.00    183597.80
  130.07        2967.00           1455       42252.00    185211.10
  130.10        2967.25           1459       42314.00    185484.40
  130.13        2967.50           1462       42439.00    186035.40
  130.16        2967.75           1465       42278.00    185325.70
  130.19        2968.00           1469       41454.00    181693.90
  130.21        2968.25           1472       40325.00    176719.10
  130.24        2968.50           1475       38465.00    168526.40
  130.27        2968.75           1479       36429.00    159563.20
  130.30        2969.00           1482       34755.00    152197.30
  130.32        2969.25           1485       32880.00    143950.80
  130.35        2969.50           1489       30361.00    132878.30
  130.38        2969.75           1492       28000.00    122507.00
  130.41        2970.00           1495       26099.00    114161.00
  130.44        2970.25           1499       23515.00    102823.20
  130.46        2970.50           1502       21479.00     93895.33
  130.49        2970.75           1505       19608.00     85695.19
  130.52        2971.00           1509       16961.00     74100.91
  130.55        2971.25           1512       14835.00     64794.53
  130.57        2971.50           1515       13030.00     56897.39
  130.61        2971.75           1519       10834.00     47294.61
  130.64        2972.00           1522        9097.00     39702.89
  130.67        2972.25           1525        7433.00     32433.46
  130.70        2972.50           1529        4617.00     20138.58
  130.72        2972.75           1532        2513.00     10958.27
  130.76        2973.00           1536         835.00      3640.33
  130.79        2973.25           1539         347.00      1512.71
  130.81        2973.50           1542         174.00       758.52
  130.84        2973.75           1546         137.00       597.22
  130.87        2974.00           1549         140.00       610.30
  130.90        2974.25           1552         135.00       588.50
  130.93        2974.50           1556         118.00       514.39
  130.97        2974.75           1559         119.00       518.75
  131.00        2975.00           1562         101.00       440.28
  131.03        2975.25           1566         109.00       475.16
  131.06        2975.50           1569         102.00       444.64
  131.09        2975.75           1572         108.00       470.80
  131.11        2976.00           1576         115.00       501.32
  131.14        2976.25           1579         106.00       462.08
  131.17        2976.50           1582         107.00       466.44
  131.20        2976.75           1586         109.00       475.16
  131.23        2977.00           1589         102.00       444.64
  131.25        2977.25           1592          93.00       405.41
  131.28        2977.50           1596         105.00       457.72
  131.31        2977.75           1599         104.00       453.36
  131.34        2978.00           1602         107.00       466.44
  131.37        2978.25           1606         109.00       475.16
  131.40        2978.50           1609         116.00       505.67
  131.42        2978.75           1612         111.00       483.88
  131.45        2979.00           1616         109.00       475.16
  131.48        2979.25           1619         101.00       440.28
  131.51        2979.50           1623         111.00       483.88
  131.54        2979.75           1626         107.00       466.44
  131.56        2980.00           1629         110.00       479.52
  131.59        2980.25           1633         106.00       462.08
  131.62        2980.50           1636          99.00       431.57
  131.65        2980.75           1639         109.00       475.16
  131.67        2981.00           1643         104.00       453.36
  131.70        2981.25           1646         105.00       457.72
  131.73        2981.50           1649         106.00       462.08
  131.76        2981.75           1653         102.00       444.64
  131.79        2982.00           1656          99.00       431.57
  131.82        2982.25           1659          98.00       427.21
  131.85        2982.50           1663         105.00       457.72
  131.87        2982.75           1666         108.00       470.80
  131.90        2983.00           1669          99.00       431.57
  131.93        2983.25           1673         113.00       492.60
  131.96        2983.50           1676         108.00       470.80
  131.98        2983.75           1679          92.00       401.05
  132.01        2984.00           1683          99.00       431.57
HS scan finished at 02:12:19
end
************************************************************
  HS Scan of (1) Internal mercury lamp
************************************************************
Integration time is 0.2294 seconds per sample
dh030517De Bilt 52.1-5.183 2.750537pr1000
************************************************************
Dead Time -------------------------  3E-08 
Number of Cycles Used -------------  4 
Starting Wavelength (Angstroms) ---  2950 
Final Wavelength (Angstoms) -------  2984 
Wavelength Increment (Angstroms) --  .25 
Filter Wheel #1 Position ---------- (1) Ground quartz diffuser (ND=2.32)
Filter Wheel #2 Position ---------- (1) Neutral Density 0.494



************************************************************
HS scan start time = 20:04:52
Dark Count =  .1 


Time (GMT)  Wavelength (Ang)  Step Number  Raw Counts  Counts/Second

 1205.32        2950.00           1229         124.00       540.11
 1205.42        2950.25           1232         104.00       452.93
 1205.45        2950.50           1236         130.00       566.27
 1205.48        2950.75           1239         126.00       548.83
 1205.51        2951.00           1242         139.00       605.50
 1205.53        2951.25           1246         124.00       540.11
 1205.56        2951.50           1249         120.00       522.68
 1205.59        2951.75           1252         128.00       557.55
 1205.62        2952.00           1255         120.00       522.68
 1205.65        2952.25           1259         122.00       531.39
 1205.68        2952.50           1262         121.00       527.04
 1205.70        2952.75           1265         119.00       518.32
 1205.73        2953.00           1269         137.00       596.78
 1205.76        2953.25           1272         126.00       548.83
 1205.79        2953.50           1275         122.00       531.39
 1205.82        2953.75           1279         120.00       522.68
 1205.85        2954.00           1282         125.00       544.47
 1205.87        2954.25           1285         131.00       570.63
 1205.90        2954.50           1289         132.00       574.99
 1205.93        2954.75           1292         126.00       548.83
 1205.96        2955.00           1295         123.00       535.75
 1205.98        2955.25           1299         126.00       548.83
 1206.01        2955.50           1302         119.00       518.32
 1206.04        2955.75           1305         126.00       548.83
 1206.07        2956.00           1309         122.00       531.39
 1206.10        2956.25           1312         128.00       557.55
 1206.12        2956.50           1315         118.00       513.96
 1206.15        2956.75           1319         129.00       561.91
 1206.18        2957.00           1322         116.00       505.24
 1206.21        2957.25           1325         119.00       518.32
 1206.23        2957.50           1329         123.00       535.75
 1206.26        2957.75           1332         120.00       522.68
 1206.29        2958.00           1335         113.00       492.16
 1206.32        2958.25           1339         123.00       535.75
 1206.35        2958.50           1342         130.00       566.27
 1206.37        2958.75           1345         111.00       483.44
 1206.40        2959.00           1349         114.00       496.52
 1206.43        2959.25           1352         116.00       505.24
 1206.46        2959.50           1355         122.00       531.39
 1206.48        2959.75           1359         119.00       518.32
 1206.51        2960.00           1362         128.00       557.55
 1206.54        2960.25           1365         120.00       522.68
 1206.57        2960.50           1369         130.00       566.27
 1206.59        2960.75           1372         138.00       601.14
 1206.63        2961.00           1375         138.00       601.14
 1206.66        2961.25           1379         162.00       705.77
 1206.69        2961.50           1382         230.00      1002.21
 1206.71        2961.75           1385         606.00      2641.45
 1206.74        2962.00           1389        2592.00     11302.44
 1206.77        2962.25           1392        5024.00     21914.58
 1206.80        2962.50           1395        7695.00     33577.40
 1206.83        2962.75           1399       10904.00     47600.19
 1206.85        2963.00           1402       13480.00     58865.42
 1206.88        2963.25           1405       16471.00     71955.08
 1206.91        2963.50           1409       20826.00     91032.49
 1206.94        2963.75           1412       23995.00    104928.30
 1206.97        2964.00           1415       26851.00    117461.60
 1207.00        2964.25           1419       30121.00    131823.30
 1207.03        2964.50           1422       33285.00    145731.20
 1207.05        2964.75           1425       36377.00    159333.90
 1207.08        2965.00           1429       39675.00    173855.10
 1207.11        2965.25           1432       43115.00    189015.10
 1207.14        2965.50           1435       46001.00    201744.40
 1207.16        2965.75           1439       49920.00    219045.40
 1207.19        2966.00           1442       52516.00    230515.80
 1207.22        2966.25           1445       55343.00    243015.90
 1207.25        2966.50           1449       58275.00    255990.20
 1207.28        2966.75           1452       59746.00    262503.30
 1207.30        2967.00           1455       60199.00    264509.60
 1207.33        2967.25           1459       60085.00    264004.70
 1207.36        2967.50           1462       59953.00    263420.10
 1207.39        2967.75           1465       59936.00    263344.80
 1207.41        2968.00           1469       58632.00    257570.70
 1207.44        2968.25           1472       56820.00    249550.50
 1207.47        2968.50           1475       54483.00    239212.30
 1207.50        2968.75           1479       51241.00    224881.30
 1207.52        2969.00           1482       48828.00    214222.80
 1207.55        2969.25           1485       45807.00    200888.40
 1207.58        2969.50           1489       42072.00    184417.20
 1207.61        2969.75           1492       39929.00    174974.00
 1207.64        2970.00           1495       37459.00    164096.60
 1207.66        2970.25           1499       33611.00    147164.90
 1207.69        2970.50           1502       30340.00    132785.60
 1207.72        2970.75           1505       27423.00    119972.90
 1207.75        2971.00           1509       23473.00    102638.60
 1207.77        2971.25           1512       20783.00     90844.02
 1207.80        2971.50           1515       18359.00     80222.93
 1207.83        2971.75           1519       14874.00     64964.77
 1207.86        2972.00           1522       12082.00     52750.81
 1207.88        2972.25           1525        9433.00     41170.70
 1207.91        2972.50           1529        6079.00     26520.22
 1207.94        2972.75           1532        3805.00     16594.57
 1207.97        2973.00           1536        1302.00      5676.21
 1207.99        2973.25           1539         489.00      2131.35
 1208.02        2973.50           1542         205.00       893.22
 1208.05        2973.75           1546         148.00       644.74
 1208.08        2974.00           1549         149.00       649.10
 1208.10        2974.25           1552         127.00       553.19
 1208.13        2974.50           1556         128.00       557.55
 1208.16        2974.75           1559         122.00       531.39
 1208.19        2975.00           1562         126.00       548.83
 1208.21        2975.25           1566         113.00       492.16
 1208.24        2975.50           1569         103.00       448.57
 1208.27        2975.75           1572         114.00       496.52
 1208.30        2976.00           1576         120.00       522.68
 1208.32        2976.25           1579         109.00       474.72
 1208.35        2976.50           1582         114.00       496.52
 1208.38        2976.75           1586         103.00       448.57
 1208.41        2977.00           1589         111.00       483.44
 1208.43        2977.25           1592         102.00       444.21
 1208.46        2977.50           1596         111.00       483.44
 1208.49        2977.75           1599         104.00       452.93
 1208.52        2978.00           1602         112.00       487.80
 1208.55        2978.25           1606         112.00       487.80
 1208.57        2978.50           1609         104.00       452.93
 1208.60        2978.75           1612         114.00       496.52
 1208.63        2979.00           1616         106.00       461.65
 1208.66        2979.25           1619         104.00       452.93
 1208.68        2979.50           1623         108.00       470.36
 1208.71        2979.75           1626         104.00       452.93
 1208.74        2980.00           1629         109.00       474.72
 1208.77        2980.25           1633         105.00       457.29
 1208.79        2980.50           1636         105.00       457.29
 1208.82        2980.75           1639         104.00       452.93
 1208.85        2981.00           1643         107.00       466.00
 1208.88        2981.25           1646          98.00       426.77
 1208.90        2981.50           1649          99.00       431.13
 1208.93        2981.75           1653         113.00       492.16
 1208.96        2982.00           1656         104.00       452.93
 1208.99        2982.25           1659          99.00       431.13
 1209.01        2982.50           1663         105.00       457.29
 1209.04        2982.75           1666         104.00       452.93
 1209.07        2983.00           1669         113.00       492.16
 1209.10        2983.25           1673         103.00       448.57
 1209.12        2983.50           1676          93.00       404.97
 1209.15        2983.75           1679         100.00       435.49
 1209.18        2984.00           1683          87.00       378.82
HS scan finished at 20:09:29
end
