************************************************************
  HS Scan of (1) Internal mercury lamp
************************************************************
Integration time is 0.2294 seconds per sample
dh080517De Bilt 52.1-5.183 2.535944pr1000
************************************************************
Dead Time -------------------------  3E-08 
Number of Cycles Used -------------  4 
Starting Wavelength (Angstroms) ---  2950 
Final Wavelength (Angstoms) -------  2984 
Wavelength Increment (Angstroms) --  .25 
Filter Wheel #1 Position ---------- (1) Ground quartz diffuser (ND=2.32)
Filter Wheel #2 Position ---------- (1) Neutral Density 0.494



************************************************************
HS scan start time = 01:07:53
Dark Count =  0 


Time (GMT)  Wavelength (Ang)  Step Number  Raw Counts  Counts/Second

   68.34        2950.00           1229         120.00       523.11
   68.44        2950.25           1232         118.00       514.39
   68.46        2950.50           1236         135.00       588.50
   68.49        2950.75           1239         122.00       531.83
   68.52        2951.00           1242         125.00       544.91
   68.55        2951.25           1246         132.00       575.42
   68.58        2951.50           1249         133.00       579.78
   68.60        2951.75           1252         136.00       592.86
   68.63        2952.00           1255         117.00       510.03
   68.66        2952.25           1259         125.00       544.91
   68.69        2952.50           1262         125.00       544.91
   68.72        2952.75           1265         127.00       553.63
   68.74        2953.00           1269         129.00       562.35
   68.77        2953.25           1272         122.00       531.83
   68.80        2953.50           1275         124.00       540.55
   68.83        2953.75           1279         119.00       518.75
   68.85        2954.00           1282         129.00       562.35
   68.88        2954.25           1285         127.00       553.63
   68.91        2954.50           1289         141.00       614.66
   68.94        2954.75           1292         129.00       562.35
   68.97        2955.00           1295         118.00       514.39
   68.99        2955.25           1299         126.00       549.27
   69.02        2955.50           1302         126.00       549.27
   69.05        2955.75           1305         119.00       518.75
   69.08        2956.00           1309         123.00       536.19
   69.10        2956.25           1312         118.00       514.39
   69.13        2956.50           1315         132.00       575.42
   69.16        2956.75           1319         119.00       518.75
   69.19        2957.00           1322         124.00       540.55
   69.22        2957.25           1325         121.00       527.47
   69.24        2957.50           1329         129.00       562.35
   69.27        2957.75           1332         116.00       505.67
   69.30        2958.00           1335         127.00       553.63
   69.33        2958.25           1339         114.00       496.96
   69.35        2958.50           1342         115.00       501.32
   69.38        2958.75           1345         122.00       531.83
   69.41        2959.00           1349         122.00       531.83
   69.44        2959.25           1352         122.00       531.83
   69.46        2959.50           1355         116.00       505.67
   69.49        2959.75           1359         119.00       518.75
   69.52        2960.00           1362         124.00       540.55
   69.55        2960.25           1365         130.00       566.71
   69.57        2960.50           1369         133.00       579.78
   69.60        2960.75           1372         136.00       592.86
   69.63        2961.00           1375         151.00       658.25
   69.66        2961.25           1379         160.00       697.49
   69.68        2961.50           1382         287.00      1251.14
   69.71        2961.75           1385         984.00      4290.00
   69.74        2962.00           1389        2640.00     11512.26
   69.77        2962.25           1392        4535.00     19780.70
   69.80        2962.50           1395        7163.00     31254.23
   69.82        2962.75           1399       10494.00     45808.34
   69.85        2963.00           1402       13370.00     58384.65
   69.88        2963.25           1405       16373.00     71526.47
   69.91        2963.50           1409       20026.00     87526.83
   69.94        2963.75           1412       22838.00     99854.05
   69.96        2964.00           1415       25614.00    112032.40
   69.99        2964.25           1419       29120.00    127426.00
   70.02        2964.50           1422       31489.00    137835.60
   70.05        2964.75           1425       34035.00    149030.10
   70.08        2965.00           1429       37079.00    162424.20
   70.11        2965.25           1432       39645.00    173723.40
   70.14        2965.50           1435       42242.00    185167.00
   70.16        2965.75           1439       45910.00    201343.30
   70.19        2966.00           1442       48109.00    211048.70
   70.22        2966.25           1445       50451.00    221391.50
   70.25        2966.50           1449       53669.00    235613.30
   70.28        2966.75           1452       54914.00    241118.90
   70.30        2967.00           1455       55520.00    243799.30
   70.33        2967.25           1459       55263.00    242662.50
   70.36        2967.50           1462       55520.00    243799.30
   70.39        2967.75           1465       55565.00    243998.40
   70.41        2968.00           1469       54403.00    238859.00
   70.44        2968.25           1472       53222.00    233637.10
   70.47        2968.50           1475       50902.00    223383.90
   70.50        2968.75           1479       47287.00    207420.10
   70.53        2969.00           1482       44563.00    195401.00
   70.56        2969.25           1485       42156.00    184787.90
   70.59        2969.50           1489       38828.00    170125.00
   70.62        2969.75           1492       36232.00    158696.20
   70.64        2970.00           1495       33588.00    147064.20
   70.67        2970.25           1499       30666.00    134218.50
   70.70        2970.50           1502       28203.00    123398.40
   70.73        2970.75           1505       25497.00    111519.00
   70.76        2971.00           1509       21867.00     95596.35
   70.78        2971.25           1512       18992.00     82996.29
   70.81        2971.50           1515       16290.00     71163.10
   70.84        2971.75           1519       13251.00     57864.10
   70.87        2972.00           1522       10733.00     46853.08
   70.89        2972.25           1525        8216.00     35853.72
   70.92        2972.50           1529        4947.00     21578.92
   70.95        2972.75           1532        2460.00     10727.08
   70.98        2973.00           1536         890.00      3880.14
   71.01        2973.25           1539         335.00      1460.40
   71.03        2973.50           1542         193.00       841.35
   71.06        2973.75           1546         152.00       662.61
   71.09        2974.00           1549         139.00       605.94
   71.12        2974.25           1552         140.00       610.30
   71.14        2974.50           1556         131.00       571.06
   71.17        2974.75           1559         123.00       536.19
   71.20        2975.00           1562         108.00       470.80
   71.23        2975.25           1566         118.00       514.39
   71.25        2975.50           1569         113.00       492.60
   71.28        2975.75           1572         104.00       453.36
   71.32        2976.00           1576         100.00       435.93
   71.35        2976.25           1579         121.00       527.47
   71.37        2976.50           1582         111.00       483.88
   71.40        2976.75           1586         106.00       462.08
   71.43        2977.00           1589         120.00       523.11
   71.46        2977.25           1592         111.00       483.88
   71.48        2977.50           1596         110.00       479.52
   71.51        2977.75           1599         108.00       470.80
   71.54        2978.00           1602         109.00       475.16
   71.58        2978.25           1606         111.00       483.88
   71.61        2978.50           1609         104.00       453.36
   71.63        2978.75           1612         105.00       457.72
   71.66        2979.00           1616         109.00       475.16
   71.69        2979.25           1619         116.00       505.67
   71.72        2979.50           1623         111.00       483.88
   71.74        2979.75           1626         110.00       479.52
   71.77        2980.00           1629         112.00       488.24
   71.80        2980.25           1633         111.00       483.88
   71.83        2980.50           1636         110.00       479.52
   71.86        2980.75           1639         115.00       501.32
   71.88        2981.00           1643         100.00       435.93
   71.91        2981.25           1646         112.00       488.24
   71.94        2981.50           1649         105.00       457.72
   71.97        2981.75           1653         107.00       466.44
   71.99        2982.00           1656         103.00       449.00
   72.02        2982.25           1659         111.00       483.88
   72.05        2982.50           1663         102.00       444.64
   72.08        2982.75           1666         109.00       475.16
   72.11        2983.00           1669         108.00       470.80
   72.14        2983.25           1673         103.00       449.00
   72.17        2983.50           1676         102.00       444.64
   72.19        2983.75           1679         111.00       483.88
   72.22        2984.00           1683         105.00       457.72
HS scan finished at 01:12:31
end
************************************************************
  HS Scan of (1) Internal mercury lamp
************************************************************
Integration time is 0.2294 seconds per sample
dh080517De Bilt 52.1-5.183 2.535944pr1000
************************************************************
Dead Time -------------------------  3E-08 
Number of Cycles Used -------------  4 
Starting Wavelength (Angstroms) ---  2950 
Final Wavelength (Angstoms) -------  2984 
Wavelength Increment (Angstroms) --  .25 
Filter Wheel #1 Position ---------- (1) Ground quartz diffuser (ND=2.32)
Filter Wheel #2 Position ---------- (1) Neutral Density 0.494



************************************************************
HS scan start time = 01:34:12
Dark Count =  0 


Time (GMT)  Wavelength (Ang)  Step Number  Raw Counts  Counts/Second

   94.65        2950.00           1229         121.00       527.47
   94.75        2950.25           1232         117.00       510.03
   94.78        2950.50           1236         125.00       544.91
   94.81        2950.75           1239         126.00       549.27
   94.84        2951.00           1242         124.00       540.55
   94.87        2951.25           1246         135.00       588.50
   94.90        2951.50           1249         122.00       531.83
   94.92        2951.75           1252         115.00       501.32
   94.95        2952.00           1255         132.00       575.42
   94.98        2952.25           1259         123.00       536.19
   95.01        2952.50           1262         130.00       566.71
   95.04        2952.75           1265         130.00       566.71
   95.06        2953.00           1269         119.00       518.75
   95.09        2953.25           1272         115.00       501.32
   95.12        2953.50           1275         117.00       510.03
   95.15        2953.75           1279         120.00       523.11
   95.17        2954.00           1282         129.00       562.35
   95.20        2954.25           1285         122.00       531.83
   95.23        2954.50           1289         126.00       549.27
   95.26        2954.75           1292         128.00       557.99
   95.29        2955.00           1295         125.00       544.91
   95.32        2955.25           1299         121.00       527.47
   95.35        2955.50           1302         127.00       553.63
   95.38        2955.75           1305         125.00       544.91
   95.41        2956.00           1309         117.00       510.03
   95.43        2956.25           1312         113.00       492.60
   95.46        2956.50           1315         116.00       505.67
   95.49        2956.75           1319         137.00       597.22
   95.52        2957.00           1322         115.00       501.32
   95.54        2957.25           1325         128.00       557.99
   95.57        2957.50           1329         121.00       527.47
   95.60        2957.75           1332         123.00       536.19
   95.63        2958.00           1335         125.00       544.91
   95.66        2958.25           1339         120.00       523.11
   95.68        2958.50           1342         122.00       531.83
   95.71        2958.75           1345         117.00       510.03
   95.75        2959.00           1349         118.00       514.39
   95.78        2959.25           1352         124.00       540.55
   95.80        2959.50           1355         126.00       549.27
   95.83        2959.75           1359         115.00       501.32
   95.86        2960.00           1362         121.00       527.47
   95.89        2960.25           1365         130.00       566.71
   95.91        2960.50           1369         130.00       566.71
   95.94        2960.75           1372         134.00       584.14
   95.97        2961.00           1375         145.00       632.10
   96.00        2961.25           1379         150.00       653.89
   96.03        2961.50           1382         177.00       771.60
   96.06        2961.75           1385         465.00      2027.15
   96.09        2962.00           1389        1833.00      7992.33
   96.11        2962.25           1392        3573.00     15582.70
   96.14        2962.50           1395        5306.00     23145.97
   96.17        2962.75           1399        8099.00     35342.60
   96.20        2963.00           1402       10311.00     45008.42
   96.23        2963.25           1405       12390.00     54098.19
   96.25        2963.50           1409       15466.00     67556.13
   96.28        2963.75           1412       17382.00     75944.41
   96.31        2964.00           1415       19365.00     84630.46
   96.34        2964.25           1419       21873.00     95622.66
   96.37        2964.50           1422       24203.00    105841.20
   96.39        2964.75           1425       26217.00    114679.00
   96.42        2965.00           1429       28982.00    126819.90
   96.45        2965.25           1432       30780.00    134719.50
   96.48        2965.50           1435       32626.00    142833.90
   96.50        2965.75           1439       35470.00    155343.00
   96.53        2966.00           1442       37269.00    163260.60
   96.56        2966.25           1445       39609.00    173564.90
   96.59        2966.50           1449       42063.00    184378.00
   96.62        2966.75           1452       42892.00    188032.40
   96.65        2967.00           1455       43682.00    191515.70
   96.68        2967.25           1459       43795.00    192014.00
   96.70        2967.50           1462       43591.00    191114.40
   96.73        2967.75           1465       43874.00    192362.40
   96.76        2968.00           1469       43191.00    189350.70
   96.79        2968.25           1472       41774.00    183104.20
   96.82        2968.50           1475       40328.00    176732.30
   96.84        2968.75           1479       37710.00    165202.10
   96.87        2969.00           1482       35738.00    156522.30
   96.90        2969.25           1485       33783.00    147921.80
   96.93        2969.50           1489       31385.00    137378.50
   96.95        2969.75           1492       29505.00    129117.30
   96.98        2970.00           1495       27795.00    121606.70
   97.01        2970.25           1499       24817.00    108535.00
   97.04        2970.50           1502       22221.00     97148.47
   97.07        2970.75           1505       20174.00     88175.39
   97.09        2971.00           1509       17571.00     76772.09
   97.12        2971.25           1512       15752.00     68807.98
   97.15        2971.50           1515       13784.00     60195.79
   97.18        2971.75           1519       11191.00     48855.34
   97.20        2972.00           1522        8976.00     39174.17
   97.23        2972.25           1525        7214.00     31476.96
   97.26        2972.50           1529        4769.00     20801.99
   97.29        2972.75           1532        2935.00     12799.16
   97.32        2973.00           1536        1124.00      4900.46
   97.34        2973.25           1539         466.00      2031.51
   97.37        2973.50           1542         186.00       810.83
   97.40        2973.75           1546         144.00       627.74
   97.43        2974.00           1549         141.00       614.66
   97.45        2974.25           1552         129.00       562.35
   97.48        2974.50           1556         119.00       518.75
   97.51        2974.75           1559         115.00       501.32
   97.54        2975.00           1562         109.00       475.16
   97.56        2975.25           1566         118.00       514.39
   97.59        2975.50           1569         113.00       492.60
   97.62        2975.75           1572          94.00       409.77
   97.65        2976.00           1576         104.00       453.36
   97.67        2976.25           1579         108.00       470.80
   97.70        2976.50           1582         102.00       444.64
   97.73        2976.75           1586         112.00       488.24
   97.76        2977.00           1589         113.00       492.60
   97.79        2977.25           1592         113.00       492.60
   97.81        2977.50           1596         117.00       510.03
   97.84        2977.75           1599         107.00       466.44
   97.87        2978.00           1602          99.00       431.57
   97.90        2978.25           1606         106.00       462.08
   97.93        2978.50           1609         108.00       470.80
   97.96        2978.75           1612         110.00       479.52
   97.98        2979.00           1616         102.00       444.64
   98.01        2979.25           1619         112.00       488.24
   98.04        2979.50           1623         104.00       453.36
   98.07        2979.75           1626         104.00       453.36
   98.09        2980.00           1629         106.00       462.08
   98.12        2980.25           1633         100.00       435.93
   98.15        2980.50           1636         111.00       483.88
   98.18        2980.75           1639         105.00       457.72
   98.20        2981.00           1643         109.00       475.16
   98.23        2981.25           1646         100.00       435.93
   98.26        2981.50           1649         107.00       466.44
   98.29        2981.75           1653         103.00       449.00
   98.32        2982.00           1656         104.00       453.36
   98.34        2982.25           1659         106.00       462.08
   98.37        2982.50           1663          98.00       427.21
   98.40        2982.75           1666         101.00       440.28
   98.43        2983.00           1669         107.00       466.44
   98.46        2983.25           1673          99.00       431.57
   98.49        2983.50           1676          96.00       418.49
   98.52        2983.75           1679          94.00       409.77
   98.55        2984.00           1683          98.00       427.21
HS scan finished at 01:38:51
end
