************************************************************
  HS Scan of (1) Internal mercury lamp
************************************************************
Integration time is 0.2294 seconds per sample
dh030518Brussels 50.799-4.357 2.643241pr1000
************************************************************
Dead Time -------------------------  2.7E-08 
Number of Cycles Used -------------  4 
Starting Wavelength (Angstroms) ---  2950 
Final Wavelength (Angstoms) -------  2984 
Wavelength Increment (Angstroms) --  .25 
Filter Wheel #1 Position ---------- (1) Ground quartz diffuser (ND=2.32)
Filter Wheel #2 Position ---------- (1) Neutral Density 0.494



************************************************************
HS scan start time = 20:06:28
Dark Count =  .1 


Time (GMT)  Wavelength (Ang)  Step Number  Raw Counts  Counts/Second

 1206.91        2950.00           1229         128.00       557.55
 1207.01        2950.25           1232         121.00       527.03
 1207.04        2950.50           1236         120.00       522.68
 1207.07        2950.75           1239         127.00       553.19
 1207.10        2951.00           1242         128.00       557.55
 1207.12        2951.25           1246         114.00       496.52
 1207.15        2951.50           1249         129.00       561.91
 1207.18        2951.75           1252         121.00       527.03
 1207.21        2952.00           1256         123.00       535.75
 1207.24        2952.25           1259         126.00       548.83
 1207.27        2952.50           1262         121.00       527.03
 1207.30        2952.75           1266         116.00       505.24
 1207.32        2953.00           1269         122.00       531.39
 1207.35        2953.25           1272         118.00       513.96
 1207.38        2953.50           1276         122.00       531.39
 1207.41        2953.75           1279         121.00       527.03
 1207.44        2954.00           1282         121.00       527.03
 1207.46        2954.25           1286         117.00       509.60
 1207.49        2954.50           1289         123.00       535.75
 1207.52        2954.75           1292         120.00       522.68
 1207.55        2955.00           1296         126.00       548.83
 1207.58        2955.25           1299         107.00       466.00
 1207.61        2955.50           1302         123.00       535.75
 1207.63        2955.75           1306         111.00       483.44
 1207.66        2956.00           1309         122.00       531.39
 1207.69        2956.25           1312         115.00       500.88
 1207.72        2956.50           1316         127.00       553.19
 1207.75        2956.75           1319         119.00       518.32
 1207.78        2957.00           1322         121.00       527.03
 1207.80        2957.25           1326         121.00       527.03
 1207.83        2957.50           1329         117.00       509.60
 1207.86        2957.75           1332         127.00       553.19
 1207.89        2958.00           1336         118.00       513.96
 1207.92        2958.25           1339         113.00       492.16
 1207.94        2958.50           1342         126.00       548.83
 1207.97        2958.75           1345         123.00       535.75
 1208.00        2959.00           1349         119.00       518.32
 1208.03        2959.25           1352         110.00       479.08
 1208.06        2959.50           1355         113.00       492.16
 1208.09        2959.75           1359         129.00       561.91
 1208.12        2960.00           1362         119.00       518.32
 1208.14        2960.25           1365         121.00       527.03
 1208.17        2960.50           1369         120.00       522.68
 1208.20        2960.75           1372         133.00       579.35
 1208.23        2961.00           1375         133.00       579.35
 1208.26        2961.25           1379         148.00       644.74
 1208.28        2961.50           1382         244.00      1063.24
 1208.31        2961.75           1385         699.00      3046.89
 1208.34        2962.00           1389        2195.00      9570.48
 1208.37        2962.25           1392        4051.00     17667.10
 1208.40        2962.50           1395        6402.00     27928.20
 1208.42        2962.75           1399        9957.00     43455.06
 1208.45        2963.00           1402       12663.00     55282.55
 1208.48        2963.25           1405       14858.00     64882.10
 1208.51        2963.50           1409       18280.00     79857.71
 1208.54        2963.75           1412       20969.00     91634.02
 1208.57        2964.00           1415       23661.00    103431.00
 1208.59        2964.25           1419       27214.00    119012.60
 1208.62        2964.50           1422       29355.00    128408.20
 1208.65        2964.75           1425       31606.00    138291.80
 1208.68        2965.00           1429       35284.00    154452.30
 1208.71        2965.25           1432       37922.00    166051.90
 1208.74        2965.50           1435       40263.00    176351.70
 1208.77        2965.75           1439       43873.00    192245.90
 1208.79        2966.00           1442       46194.00    202472.20
 1208.82        2966.25           1445       48840.00    214137.30
 1208.85        2966.50           1449       51445.00    225628.90
 1208.88        2966.75           1452       52616.00    230796.90
 1208.91        2967.00           1455       52771.00    231481.10
 1208.94        2967.25           1459       52960.00    232315.30
 1208.96        2967.50           1462       52896.00    232032.80
 1208.99        2967.75           1465       52670.00    231035.20
 1209.02        2968.00           1469       51662.00    226586.40
 1209.05        2968.25           1472       49876.00    218706.60
 1209.08        2968.50           1475       47753.00    209344.30
 1209.11        2968.75           1479       44577.00    195347.20
 1209.13        2969.00           1482       42489.00    186150.80
 1209.16        2969.25           1485       39934.00    174903.80
 1209.19        2969.50           1489       37054.00    162234.40
 1209.22        2969.75           1492       34545.00    151204.10
 1209.25        2970.00           1495       32069.00    140325.40
 1209.28        2970.25           1499       29271.00    128039.50
 1209.30        2970.50           1502       26807.00    117227.00
 1209.33        2970.75           1505       24313.00    106289.30
 1209.36        2971.00           1509       20883.00     91257.28
 1209.39        2971.25           1512       18263.00     79783.28
 1209.42        2971.50           1515       15827.00     69121.47
 1209.44        2971.75           1519       12800.00     55881.55
 1209.47        2972.00           1522       10366.00     45242.24
 1209.50        2972.25           1525        7981.00     34823.05
 1209.53        2972.50           1529        5006.00     21834.58
 1209.56        2972.75           1532        2824.00     12314.03
 1209.59        2973.00           1535        1503.00      6552.60
 1209.62        2973.25           1539         444.00      1935.15
 1209.64        2973.50           1542         214.00       932.46
 1209.67        2973.75           1546         151.00       657.81
 1209.70        2974.00           1549         147.00       640.38
 1209.73        2974.25           1552         134.00       583.71
 1209.76        2974.50           1556         132.00       574.99
 1209.79        2974.75           1559         130.00       566.27
 1209.81        2975.00           1562         112.00       487.80
 1209.84        2975.25           1566         106.00       461.64
 1209.87        2975.50           1569         113.00       492.16
 1209.90        2975.75           1572         111.00       483.44
 1209.93        2976.00           1576         117.00       509.60
 1209.96        2976.25           1579         108.00       470.36
 1209.98        2976.50           1582         112.00       487.80
 1210.01        2976.75           1586         108.00       470.36
 1210.04        2977.00           1589         107.00       466.00
 1210.07        2977.25           1592         104.00       452.93
 1210.10        2977.50           1596         111.00       483.44
 1210.12        2977.75           1599         107.00       466.00
 1210.15        2978.00           1602         111.00       483.44
 1210.18        2978.25           1606         105.00       457.29
 1210.21        2978.50           1609         110.00       479.08
 1210.24        2978.75           1612         105.00       457.29
 1210.27        2979.00           1616          97.00       422.41
 1210.29        2979.25           1619         102.00       444.21
 1210.32        2979.50           1622         109.00       474.72
 1210.35        2979.75           1626         104.00       452.93
 1210.38        2980.00           1629         100.00       435.49
 1210.41        2980.25           1632         104.00       452.93
 1210.43        2980.50           1636         111.00       483.44
 1210.46        2980.75           1639         108.00       470.36
 1210.49        2981.00           1642         104.00       452.93
 1210.52        2981.25           1646         100.00       435.49
 1210.55        2981.50           1649          97.00       422.41
 1210.58        2981.75           1653         100.00       435.49
 1210.60        2982.00           1656         111.00       483.44
 1210.63        2982.25           1659         103.00       448.57
 1210.66        2982.50           1663         103.00       448.57
 1210.69        2982.75           1666          97.00       422.41
 1210.72        2983.00           1669         107.00       466.00
 1210.74        2983.25           1673          98.00       426.77
 1210.77        2983.50           1676         107.00       466.00
 1210.80        2983.75           1679         100.00       435.49
 1210.83        2984.00           1683         102.00       444.21
HS scan finished at 20:11:08
end
