************************************************************
  HS Scan of (1) Internal mercury lamp
************************************************************
Integration time is 0.2294 seconds per sample
dh080518Brussels 50.799-4.357 2.911481pr1000
************************************************************
Dead Time -------------------------  2.7E-08 
Number of Cycles Used -------------  4 
Starting Wavelength (Angstroms) ---  2950 
Final Wavelength (Angstoms) -------  2984 
Wavelength Increment (Angstroms) --  .25 
Filter Wheel #1 Position ---------- (1) Ground quartz diffuser (ND=2.32)
Filter Wheel #2 Position ---------- (1) Neutral Density 0.494



************************************************************
HS scan start time = 02:23:05
Dark Count =  .1 


Time (GMT)  Wavelength (Ang)  Step Number  Raw Counts  Counts/Second

  143.53        2950.00           1229         110.00       479.08
  143.63        2950.25           1232         113.00       492.16
  143.66        2950.50           1236         114.00       496.52
  143.69        2950.75           1239         102.00       444.21
  143.72        2951.00           1242         101.00       439.85
  143.75        2951.25           1246         112.00       487.80
  143.77        2951.50           1249         116.00       505.24
  143.80        2951.75           1252         114.00       496.52
  143.83        2952.00           1256         114.00       496.52
  143.86        2952.25           1259         114.00       496.52
  143.89        2952.50           1262         114.00       496.52
  143.92        2952.75           1266         118.00       513.96
  143.95        2953.00           1269         110.00       479.08
  143.97        2953.25           1272         109.00       474.72
  144.00        2953.50           1276         108.00       470.36
  144.03        2953.75           1279         108.00       470.36
  144.06        2954.00           1282         113.00       492.16
  144.09        2954.25           1286         109.00       474.72
  144.11        2954.50           1289         113.00       492.16
  144.14        2954.75           1292         107.00       466.00
  144.17        2955.00           1296         112.00       487.80
  144.20        2955.25           1299         115.00       500.88
  144.23        2955.50           1302         103.00       448.57
  144.26        2955.75           1306         102.00       444.21
  144.28        2956.00           1309         116.00       505.24
  144.31        2956.25           1312         107.00       466.00
  144.34        2956.50           1316         107.00       466.00
  144.37        2956.75           1319         105.00       457.29
  144.40        2957.00           1322         111.00       483.44
  144.43        2957.25           1326         107.00       466.00
  144.45        2957.50           1329         100.00       435.49
  144.48        2957.75           1332          99.00       431.13
  144.51        2958.00           1336         103.00       448.57
  144.54        2958.25           1339         116.00       505.24
  144.57        2958.50           1342         104.00       452.93
  144.60        2958.75           1345          97.00       422.41
  144.62        2959.00           1349         102.00       444.21
  144.65        2959.25           1352         107.00       466.00
  144.68        2959.50           1355         111.00       483.44
  144.71        2959.75           1359         101.00       439.85
  144.74        2960.00           1362         118.00       513.96
  144.76        2960.25           1365         114.00       496.52
  144.79        2960.50           1369         104.00       452.93
  144.82        2960.75           1372         117.00       509.60
  144.85        2961.00           1375         123.00       535.75
  144.88        2961.25           1379         139.00       605.50
  144.91        2961.50           1382         193.00       840.91
  144.94        2961.75           1385         621.00      2706.82
  144.96        2962.00           1389        2376.00     10359.92
  144.99        2962.25           1392        4567.00     19918.73
  145.02        2962.50           1395        7190.00     31368.76
  145.05        2962.75           1399       11083.00     48375.71
  145.08        2963.00           1402       13531.00     59078.03
  145.10        2963.25           1405       16026.00     69992.22
  145.13        2963.50           1409       19735.00     86228.86
  145.16        2963.75           1412       22622.00     98876.96
  145.19        2964.00           1415       25710.00    112415.20
  145.22        2964.25           1419       29485.00    128978.90
  145.25        2964.50           1422       32076.00    140356.10
  145.27        2964.75           1425       34848.00    152535.80
  145.30        2965.00           1429       38488.00    168541.60
  145.33        2965.25           1432       41278.00    180819.20
  145.36        2965.50           1435       44280.00    194038.80
  145.39        2965.75           1439       47249.00    207122.40
  145.42        2966.00           1442       49746.00    218133.20
  145.44        2966.25           1445       52680.00    231079.40
  145.47        2966.50           1449       56281.00    246981.10
  145.50        2966.75           1452       57440.00    252102.10
  145.53        2967.00           1455       58196.00    255443.20
  145.56        2967.25           1459       58401.00    256349.30
  145.59        2967.50           1462       58514.00    256848.70
  145.62        2967.75           1465       58261.00    255730.50
  145.65        2968.00           1469       56888.00    249662.90
  145.67        2968.25           1472       55298.00    242638.90
  145.70        2968.50           1475       53004.00    232509.60
  145.73        2968.75           1479       50272.00    220453.50
  145.76        2969.00           1482       47925.00    210102.60
  145.79        2969.25           1485       45487.00    199356.60
  145.82        2969.50           1489       41533.00    181941.70
  145.84        2969.75           1492       38297.00    167701.40
  145.87        2970.00           1495       35952.00    157388.90
  145.90        2970.25           1499       32288.00    141287.30
  145.93        2970.50           1502       29558.00    129299.40
  145.96        2970.75           1505       27017.00    118148.30
  145.99        2971.00           1509       22996.00    100516.10
  146.01        2971.25           1512       20355.00     88944.38
  146.04        2971.50           1515       18125.00     79179.13
  146.07        2971.75           1519       14833.00     64772.73
  146.10        2972.00           1522       12592.00     54972.12
  146.13        2972.25           1525        9644.00     42087.48
  146.16        2972.50           1529        5908.00     25771.63
  146.18        2972.75           1532        3263.00     14229.09
  146.21        2973.00           1535        1440.00      6277.87
  146.24        2973.25           1539         400.00      1743.33
  146.27        2973.50           1542         199.00       867.06
  146.30        2973.75           1546         156.00       679.61
  146.33        2974.00           1549         140.00       609.86
  146.35        2974.25           1552         132.00       574.99
  146.38        2974.50           1556         125.00       544.47
  146.41        2974.75           1559         121.00       527.03
  146.44        2975.00           1562         121.00       527.03
  146.47        2975.25           1566         101.00       439.85
  146.50        2975.50           1569         102.00       444.21
  146.52        2975.75           1572         107.00       466.00
  146.55        2976.00           1576          93.00       404.97
  146.58        2976.25           1579         103.00       448.57
  146.61        2976.50           1582         107.00       466.00
  146.64        2976.75           1586          94.00       409.33
  146.67        2977.00           1589          92.00       400.61
  146.69        2977.25           1592          95.00       413.69
  146.72        2977.50           1596         102.00       444.21
  146.75        2977.75           1599         107.00       466.00
  146.78        2978.00           1602         103.00       448.57
  146.81        2978.25           1606          97.00       422.41
  146.84        2978.50           1609          93.00       404.97
  146.86        2978.75           1612         102.00       444.21
  146.89        2979.00           1616         105.00       457.29
  146.92        2979.25           1619          97.00       422.41
  146.95        2979.50           1622          99.00       431.13
  146.98        2979.75           1626          97.00       422.41
  147.00        2980.00           1629          95.00       413.69
  147.03        2980.25           1632         106.00       461.64
  147.06        2980.50           1636          94.00       409.33
  147.09        2980.75           1639          97.00       422.41
  147.12        2981.00           1642          92.00       400.61
  147.15        2981.25           1646         105.00       457.29
  147.17        2981.50           1649          81.00       352.66
  147.20        2981.75           1653          95.00       413.69
  147.23        2982.00           1656         100.00       435.49
  147.26        2982.25           1659          92.00       400.61
  147.29        2982.50           1663          99.00       431.13
  147.32        2982.75           1666          99.00       431.13
  147.34        2983.00           1669          98.00       426.77
  147.37        2983.25           1673          90.00       391.90
  147.40        2983.50           1676          89.00       387.54
  147.43        2983.75           1679          99.00       431.13
  147.46        2984.00           1683          91.00       396.26
HS scan finished at 02:27:45
end
