************************************************************
  HS Scan of (1) Internal mercury lamp
************************************************************
Integration time is 0.2294 seconds per sample
dh060518Brussels 50.799-4.357 2.750537pr1000
************************************************************
Dead Time -------------------------  2.7E-08 
Number of Cycles Used -------------  4 
Starting Wavelength (Angstroms) ---  2950 
Final Wavelength (Angstoms) -------  2984 
Wavelength Increment (Angstroms) --  .25 
Filter Wheel #1 Position ---------- (1) Ground quartz diffuser (ND=2.32)
Filter Wheel #2 Position ---------- (1) Neutral Density 0.494



************************************************************
HS scan start time = 02:11:20
Dark Count =  .1 


Time (GMT)  Wavelength (Ang)  Step Number  Raw Counts  Counts/Second

  131.79        2950.00           1229         128.00       557.55
  131.89        2950.25           1232         110.00       479.08
  131.92        2950.50           1236         118.00       513.96
  131.95        2950.75           1239         131.00       570.63
  131.98        2951.00           1242         116.00       505.24
  132.01        2951.25           1246         118.00       513.96
  132.03        2951.50           1249         115.00       500.88
  132.06        2951.75           1252         135.00       588.07
  132.09        2952.00           1256         119.00       518.32
  132.12        2952.25           1259         121.00       527.03
  132.15        2952.50           1262         127.00       553.19
  132.18        2952.75           1266         118.00       513.96
  132.21        2953.00           1269         120.00       522.68
  132.24        2953.25           1272         123.00       535.75
  132.26        2953.50           1276         114.00       496.52
  132.29        2953.75           1279         112.00       487.80
  132.32        2954.00           1282         119.00       518.32
  132.35        2954.25           1286         112.00       487.80
  132.38        2954.50           1289         117.00       509.60
  132.41        2954.75           1292         119.00       518.32
  132.44        2955.00           1296         121.00       527.03
  132.47        2955.25           1299         119.00       518.32
  132.50        2955.50           1302         118.00       513.96
  132.52        2955.75           1306         109.00       474.72
  132.55        2956.00           1309         119.00       518.32
  132.58        2956.25           1312         121.00       527.03
  132.61        2956.50           1316         123.00       535.75
  132.64        2956.75           1319         116.00       505.24
  132.67        2957.00           1322         102.00       444.21
  132.69        2957.25           1326         119.00       518.32
  132.72        2957.50           1329         116.00       505.24
  132.75        2957.75           1332         113.00       492.16
  132.78        2958.00           1336         123.00       535.75
  132.81        2958.25           1339         120.00       522.68
  132.84        2958.50           1342         110.00       479.08
  132.86        2958.75           1345         113.00       492.16
  132.89        2959.00           1349         117.00       509.60
  132.92        2959.25           1352         105.00       457.29
  132.95        2959.50           1355         113.00       492.16
  132.98        2959.75           1359         116.00       505.24
  133.00        2960.00           1362         121.00       527.03
  133.03        2960.25           1365         123.00       535.75
  133.06        2960.50           1369         108.00       470.36
  133.09        2960.75           1372         120.00       522.68
  133.12        2961.00           1375         135.00       588.07
  133.15        2961.25           1379         145.00       631.66
  133.17        2961.50           1382         202.00       880.14
  133.20        2961.75           1385         716.00      3121.01
  133.23        2962.00           1389        2462.00     10735.02
  133.26        2962.25           1392        4872.00     21249.76
  133.29        2962.50           1395        7374.00     32172.22
  133.32        2962.75           1399       10737.00     46863.53
  133.34        2963.00           1402       13543.00     59130.51
  133.37        2963.25           1405       16509.00     72105.81
  133.40        2963.50           1409       20209.00     88304.89
  133.43        2963.75           1412       22676.00     99113.62
  133.46        2964.00           1415       24738.00    108152.80
  133.49        2964.25           1419       28293.00    123747.10
  133.51        2964.50           1422       30780.00    134664.40
  133.54        2964.75           1425       33581.00    146967.80
  133.57        2965.00           1429       37072.00    162313.50
  133.60        2965.25           1432       39159.00    171493.60
  133.63        2965.50           1435       41684.00    182606.50
  133.66        2965.75           1439       44754.00    196126.90
  133.68        2966.00           1442       47541.00    208409.60
  133.71        2966.25           1445       50483.00    221384.30
  133.74        2966.50           1449       53028.00    232615.50
  133.77        2966.75           1452       54216.00    237860.60
  133.80        2967.00           1455       54868.00    240739.80
  133.83        2967.25           1459       55072.00    241640.70
  133.85        2967.50           1462       54953.00    241115.20
  133.88        2967.75           1465       55026.00    241437.50
  133.91        2968.00           1469       53782.00    235944.20
  133.94        2968.25           1472       51877.00    227535.30
  133.97        2968.50           1475       50011.00    219302.10
  134.00        2968.75           1479       46343.00    203128.90
  134.03        2969.00           1482       44120.00    193334.00
  134.05        2969.25           1485       41971.00    183870.00
  134.08        2969.50           1489       38849.00    170129.80
  134.11        2969.75           1492       36426.00    159472.90
  134.14        2970.00           1495       33929.00    148497.00
  134.17        2970.25           1499       30107.00    131709.50
  134.20        2970.50           1502       27321.00    119482.00
  134.23        2970.75           1505       24692.00    107951.10
  134.25        2971.00           1509       21457.00     93771.99
  134.28        2971.25           1512       19139.00     83618.83
  134.31        2971.50           1515       16556.00     72311.49
  134.34        2971.75           1519       13082.00     57114.60
  134.37        2972.00           1522       10366.00     45242.24
  134.40        2972.25           1525        8225.00     35888.73
  134.42        2972.50           1529        5259.00     22938.79
  134.45        2972.75           1532        3219.00     14037.14
  134.48        2973.00           1535        1573.00      6857.85
  134.51        2973.25           1539         372.00      1621.26
  134.54        2973.50           1542         188.00       819.11
  134.56        2973.75           1546         148.00       644.74
  134.59        2974.00           1549         139.00       605.50
  134.62        2974.25           1552         132.00       574.99
  134.65        2974.50           1556         118.00       513.96
  134.68        2974.75           1559         125.00       544.47
  134.71        2975.00           1562         117.00       509.60
  134.73        2975.25           1566         109.00       474.72
  134.76        2975.50           1569         102.00       444.21
  134.79        2975.75           1572         110.00       479.08
  134.82        2976.00           1576         101.00       439.85
  134.85        2976.25           1579         110.00       479.08
  134.87        2976.50           1582         104.00       452.93
  134.90        2976.75           1586         108.00       470.36
  134.93        2977.00           1589         106.00       461.64
  134.96        2977.25           1592         103.00       448.57
  134.99        2977.50           1596         104.00       452.93
  135.02        2977.75           1599         106.00       461.64
  135.05        2978.00           1602         112.00       487.80
  135.07        2978.25           1606         111.00       483.44
  135.10        2978.50           1609          98.00       426.77
  135.13        2978.75           1612         114.00       496.52
  135.16        2979.00           1616         109.00       474.72
  135.19        2979.25           1619         101.00       439.85
  135.22        2979.50           1622          98.00       426.77
  135.24        2979.75           1626         111.00       483.44
  135.27        2980.00           1629         113.00       492.16
  135.30        2980.25           1632         103.00       448.57
  135.33        2980.50           1636         100.00       435.49
  135.36        2980.75           1639         100.00       435.49
  135.38        2981.00           1642          99.00       431.13
  135.41        2981.25           1646          95.00       413.69
  135.44        2981.50           1649          99.00       431.13
  135.47        2981.75           1653         100.00       435.49
  135.50        2982.00           1656         107.00       466.00
  135.53        2982.25           1659         102.00       444.21
  135.55        2982.50           1663         106.00       461.64
  135.58        2982.75           1666         106.00       461.64
  135.61        2983.00           1669          91.00       396.26
  135.64        2983.25           1673         103.00       448.57
  135.67        2983.50           1676          98.00       426.77
  135.70        2983.75           1679         108.00       470.36
  135.72        2984.00           1683         101.00       439.85
HS scan finished at 02:16:01
end
************************************************************
  HS Scan of (1) Internal mercury lamp
************************************************************
Integration time is 0.2294 seconds per sample
dh060518Brussels 50.799-4.357 3.179721pr1000
************************************************************
Dead Time -------------------------  2.7E-08 
Number of Cycles Used -------------  4 
Starting Wavelength (Angstroms) ---  2950 
Final Wavelength (Angstoms) -------  2984 
Wavelength Increment (Angstroms) --  .25 
Filter Wheel #1 Position ---------- (1) Ground quartz diffuser (ND=2.32)
Filter Wheel #2 Position ---------- (1) Neutral Density 0.494



************************************************************
HS scan start time = 20:11:20
Dark Count =  .1 


Time (GMT)  Wavelength (Ang)  Step Number  Raw Counts  Counts/Second

 1211.78        2950.00           1229         110.00       479.08
 1211.88        2950.25           1232         103.00       448.57
 1211.91        2950.50           1236         103.00       448.57
 1211.94        2950.75           1239         110.00       479.08
 1211.96        2951.00           1242         102.00       444.21
 1211.99        2951.25           1246         103.00       448.57
 1212.02        2951.50           1249         101.00       439.85
 1212.05        2951.75           1252         100.00       435.49
 1212.08        2952.00           1256          95.00       413.69
 1212.11        2952.25           1259         111.00       483.44
 1212.14        2952.50           1262         109.00       474.72
 1212.16        2952.75           1266         105.00       457.29
 1212.19        2953.00           1269         110.00       479.08
 1212.22        2953.25           1272         103.00       448.57
 1212.25        2953.50           1276         100.00       435.49
 1212.28        2953.75           1279         108.00       470.36
 1212.31        2954.00           1282         106.00       461.64
 1212.34        2954.25           1286         105.00       457.29
 1212.37        2954.50           1289          96.00       418.05
 1212.40        2954.75           1292         102.00       444.21
 1212.42        2955.00           1296         104.00       452.93
 1212.45        2955.25           1299         100.00       435.49
 1212.48        2955.50           1302         111.00       483.44
 1212.51        2955.75           1306          97.00       422.41
 1212.54        2956.00           1309         104.00       452.93
 1212.57        2956.25           1312         102.00       444.21
 1212.60        2956.50           1316         102.00       444.21
 1212.62        2956.75           1319         107.00       466.00
 1212.65        2957.00           1322         100.00       435.49
 1212.68        2957.25           1326         100.00       435.49
 1212.71        2957.50           1329          98.00       426.77
 1212.74        2957.75           1332         105.00       457.29
 1212.76        2958.00           1336         105.00       457.29
 1212.79        2958.25           1339          99.00       431.13
 1212.82        2958.50           1342          98.00       426.77
 1212.85        2958.75           1345          94.00       409.33
 1212.88        2959.00           1349         109.00       474.72
 1212.91        2959.25           1352          93.00       404.97
 1212.93        2959.50           1355          94.00       409.33
 1212.96        2959.75           1359          94.00       409.33
 1212.99        2960.00           1362         109.00       474.72
 1213.02        2960.25           1365          92.00       400.61
 1213.05        2960.50           1369         116.00       505.24
 1213.07        2960.75           1372         114.00       496.52
 1213.10        2961.00           1375         121.00       527.03
 1213.13        2961.25           1379         132.00       574.99
 1213.16        2961.50           1382         188.00       819.11
 1213.19        2961.75           1385         687.00      2994.58
 1213.21        2962.00           1389        2990.00     13038.16
 1213.24        2962.25           1392        5394.00     23528.02
 1213.27        2962.50           1395        7910.00     34512.97
 1213.30        2962.75           1399       11914.00     52008.03
 1213.33        2963.00           1402       15039.00     65673.90
 1213.36        2963.25           1405       18353.00     80177.31
 1213.39        2963.50           1409       22015.00     96216.94
 1213.41        2963.75           1412       24601.00    107552.10
 1213.44        2964.00           1415       27369.00    119692.60
 1213.47        2964.25           1419       30952.00    135419.70
 1213.50        2964.50           1422       34033.00    148954.00
 1213.53        2964.75           1425       36989.00    161948.50
 1213.56        2965.00           1429       40702.00    178283.80
 1213.58        2965.25           1432       43128.00    188964.70
 1213.61        2965.50           1435       46055.00    201859.60
 1213.64        2965.75           1439       49908.00    218847.70
 1213.67        2966.00           1442       52637.00    230889.60
 1213.70        2966.25           1445       55607.00    244003.70
 1213.73        2966.50           1449       58083.00    254943.70
 1213.75        2966.75           1452       59933.00    263122.00
 1213.78        2967.00           1455       60540.00    265806.20
 1213.81        2967.25           1459       60514.00    265691.20
 1213.84        2967.50           1462       60706.00    266540.30
 1213.87        2967.75           1465       60563.00    265907.90
 1213.90        2968.00           1469       59218.00    259960.80
 1213.92        2968.25           1472       57213.00    251099.00
 1213.95        2968.50           1475       55011.00    241371.30
 1213.98        2968.75           1479       51102.00    224115.40
 1214.01        2969.00           1482       48887.00    214344.60
 1214.04        2969.25           1485       46059.00    201877.20
 1214.07        2969.50           1489       43006.00    188427.40
 1214.10        2969.75           1492       40254.00    176312.10
 1214.12        2970.00           1495       37360.00    163580.10
 1214.15        2970.25           1499       33054.00    144652.40
 1214.18        2970.50           1502       30185.00    132051.90
 1214.21        2970.75           1505       27619.00    120789.60
 1214.24        2971.00           1509       23741.00    103781.70
 1214.27        2971.25           1512       20983.00     91695.35
 1214.29        2971.50           1515       18165.00     79354.24
 1214.32        2971.75           1519       14268.00     62301.32
 1214.35        2972.00           1522       11817.00     51584.01
 1214.38        2972.25           1525        9407.00     41052.02
 1214.41        2972.50           1529        6178.00     26950.29
 1214.44        2972.75           1532        3486.00     15201.97
 1214.46        2973.00           1535        1432.00      6242.99
 1214.49        2973.25           1539         327.00      1425.08
 1214.52        2973.50           1542         172.00       749.36
 1214.55        2973.75           1546         143.00       622.94
 1214.58        2974.00           1549         131.00       570.63
 1214.60        2974.25           1552         128.00       557.55
 1214.63        2974.50           1556         116.00       505.24
 1214.66        2974.75           1559         112.00       487.80
 1214.69        2975.00           1562          97.00       422.41
 1214.72        2975.25           1566          97.00       422.41
 1214.75        2975.50           1569          94.00       409.33
 1214.77        2975.75           1572          97.00       422.41
 1214.80        2976.00           1576          92.00       400.61
 1214.83        2976.25           1579          92.00       400.61
 1214.86        2976.50           1582          97.00       422.41
 1214.89        2976.75           1586         101.00       439.85
 1214.92        2977.00           1589          90.00       391.90
 1214.94        2977.25           1592          98.00       426.77
 1214.97        2977.50           1596          97.00       422.41
 1215.00        2977.75           1599          92.00       400.61
 1215.03        2978.00           1602          96.00       418.05
 1215.06        2978.25           1606          91.00       396.26
 1215.09        2978.50           1609          86.00       374.46
 1215.11        2978.75           1612          91.00       396.26
 1215.14        2979.00           1616          93.00       404.97
 1215.17        2979.25           1619          91.00       396.26
 1215.20        2979.50           1622          95.00       413.69
 1215.23        2979.75           1626          87.00       378.82
 1215.25        2980.00           1629          92.00       400.61
 1215.28        2980.25           1632          90.00       391.90
 1215.31        2980.50           1636          87.00       378.82
 1215.34        2980.75           1639          94.00       409.33
 1215.37        2981.00           1642          93.00       404.97
 1215.40        2981.25           1646          90.00       391.90
 1215.42        2981.50           1649          94.00       409.33
 1215.45        2981.75           1653          86.00       374.46
 1215.48        2982.00           1656          78.00       339.58
 1215.51        2982.25           1659          87.00       378.82
 1215.54        2982.50           1663          91.00       396.26
 1215.57        2982.75           1666          85.00       370.10
 1215.59        2983.00           1669          85.00       370.10
 1215.62        2983.25           1673          93.00       404.97
 1215.65        2983.50           1676          85.00       370.10
 1215.68        2983.75           1679          92.00       400.61
 1215.71        2984.00           1683          89.00       387.54
HS scan finished at 20:16:00
end
