************************************************************
  HS Scan of (1) Internal mercury lamp
************************************************************
Integration time is 0.2294 seconds per sample
dh070517De Bilt 52.1-5.183 2.589593pr1000
************************************************************
Dead Time -------------------------  3E-08 
Number of Cycles Used -------------  4 
Starting Wavelength (Angstroms) ---  2950 
Final Wavelength (Angstoms) -------  2984 
Wavelength Increment (Angstroms) --  .25 
Filter Wheel #1 Position ---------- (1) Ground quartz diffuser (ND=2.32)
Filter Wheel #2 Position ---------- (1) Neutral Density 0.494



************************************************************
HS scan start time = 01:07:42
Dark Count =  0 


Time (GMT)  Wavelength (Ang)  Step Number  Raw Counts  Counts/Second

   68.15        2950.00           1229         119.00       518.75
   68.25        2950.25           1232         130.00       566.71
   68.27        2950.50           1236         120.00       523.11
   68.30        2950.75           1239         128.00       557.99
   68.33        2951.00           1242         112.00       488.24
   68.36        2951.25           1246         133.00       579.78
   68.38        2951.50           1249         120.00       523.11
   68.41        2951.75           1252         124.00       540.55
   68.44        2952.00           1255         127.00       553.63
   68.47        2952.25           1259         129.00       562.35
   68.49        2952.50           1262         147.00       640.81
   68.52        2952.75           1265         119.00       518.75
   68.55        2953.00           1269         126.00       549.27
   68.58        2953.25           1272         128.00       557.99
   68.60        2953.50           1275         121.00       527.47
   68.63        2953.75           1279         133.00       579.78
   68.66        2954.00           1282         125.00       544.91
   68.69        2954.25           1285         128.00       557.99
   68.72        2954.50           1289         121.00       527.47
   68.75        2954.75           1292         123.00       536.19
   68.78        2955.00           1295         112.00       488.24
   68.81        2955.25           1299         116.00       505.67
   68.83        2955.50           1302         129.00       562.35
   68.86        2955.75           1305         115.00       501.32
   68.89        2956.00           1309         114.00       496.96
   68.92        2956.25           1312         114.00       496.96
   68.95        2956.50           1315         120.00       523.11
   68.97        2956.75           1319         125.00       544.91
   69.00        2957.00           1322         123.00       536.19
   69.03        2957.25           1325         109.00       475.16
   69.06        2957.50           1329         119.00       518.75
   69.08        2957.75           1332         120.00       523.11
   69.11        2958.00           1335         133.00       579.78
   69.14        2958.25           1339         121.00       527.47
   69.17        2958.50           1342         126.00       549.27
   69.20        2958.75           1345         123.00       536.19
   69.23        2959.00           1349         120.00       523.11
   69.26        2959.25           1352         113.00       492.60
   69.28        2959.50           1355         113.00       492.60
   69.31        2959.75           1359         132.00       575.42
   69.34        2960.00           1362         124.00       540.55
   69.37        2960.25           1365         141.00       614.66
   69.39        2960.50           1369         134.00       584.14
   69.42        2960.75           1372         147.00       640.81
   69.45        2961.00           1375         152.00       662.61
   69.48        2961.25           1379         170.00       741.08
   69.51        2961.50           1382         247.00      1076.76
   69.54        2961.75           1385         930.00      4054.55
   69.57        2962.00           1389        2994.00     13056.55
   69.59        2962.25           1392        5552.00     24219.86
   69.62        2962.50           1395        7905.00     34495.14
   69.65        2962.75           1399       10711.00     46756.91
   69.68        2963.00           1402       13601.00     59395.20
   69.70        2963.25           1405       16627.00     72638.50
   69.73        2963.50           1409       20492.00     89569.04
   69.76        2963.75           1412       23462.00    102590.80
   69.79        2964.00           1415       25883.00    113213.00
   69.81        2964.25           1419       29089.00    127289.90
   69.84        2964.50           1422       31889.00    139593.90
   69.87        2964.75           1425       34611.00    151563.80
   69.90        2965.00           1429       38498.00    168671.80
   69.93        2965.25           1432       40953.00    179486.10
   69.95        2965.50           1435       43427.00    190391.30
   69.98        2965.75           1439       47191.00    206996.40
   70.01        2966.00           1442       49737.00    218237.60
   70.04        2966.25           1445       52566.00    230737.30
   70.07        2966.50           1449       55354.00    243065.00
   70.09        2966.75           1452       57001.00    250351.90
   70.13        2967.00           1455       57210.00    251276.80
   70.16        2967.25           1459       57373.00    251998.20
   70.19        2967.50           1462       57047.00    250555.50
   70.21        2967.75           1465       56933.00    250051.00
   70.24        2968.00           1469       55085.00    241875.20
   70.27        2968.25           1472       53643.00    235498.40
   70.30        2968.50           1475       51880.00    227705.40
   70.33        2968.75           1479       48413.00    212390.90
   70.35        2969.00           1482       45741.00    200597.60
   70.38        2969.25           1485       42990.00    188464.50
   70.41        2969.50           1489       39553.00    173318.20
   70.44        2969.75           1492       37034.00    162226.10
   70.46        2970.00           1495       34668.00    151814.50
   70.49        2970.25           1499       31100.00    136125.80
   70.52        2970.50           1502       28154.00    123183.20
   70.55        2970.75           1505       25347.00    110860.70
   70.58        2971.00           1509       22241.00     97236.16
   70.61        2971.25           1512       19720.00     86185.93
   70.64        2971.50           1515       17519.00     76544.36
   70.66        2971.75           1519       14192.00     61980.89
   70.69        2972.00           1522       11192.00     48859.71
   70.72        2972.25           1525        8556.00     37339.10
   70.75        2972.50           1529        5067.00     22102.71
   70.77        2972.75           1532        2636.00     11494.81
   70.80        2973.00           1536         932.00      4063.27
   70.84        2973.25           1539         319.00      1390.64
   70.86        2973.50           1542         179.00       780.31
   70.89        2973.75           1546         156.00       680.05
   70.92        2974.00           1549         144.00       627.74
   70.95        2974.25           1552         134.00       584.14
   70.97        2974.50           1556         127.00       553.63
   71.00        2974.75           1559         124.00       540.55
   71.03        2975.00           1562         111.00       483.88
   71.06        2975.25           1566         110.00       479.52
   71.08        2975.50           1569         121.00       527.47
   71.11        2975.75           1572         117.00       510.03
   71.14        2976.00           1576         111.00       483.88
   71.17        2976.25           1579         109.00       475.16
   71.20        2976.50           1582         113.00       492.60
   71.22        2976.75           1586         108.00       470.80
   71.25        2977.00           1589         109.00       475.16
   71.28        2977.25           1592         112.00       488.24
   71.31        2977.50           1596         106.00       462.08
   71.33        2977.75           1599         114.00       496.96
   71.36        2978.00           1602         106.00       462.08
   71.39        2978.25           1606         113.00       492.60
   71.42        2978.50           1609         110.00       479.52
   71.44        2978.75           1612         110.00       479.52
   71.47        2979.00           1616         108.00       470.80
   71.50        2979.25           1619         107.00       466.44
   71.53        2979.50           1623         112.00       488.24
   71.56        2979.75           1626         111.00       483.88
   71.59        2980.00           1629         116.00       505.67
   71.62        2980.25           1633         111.00       483.88
   71.64        2980.50           1636         111.00       483.88
   71.67        2980.75           1639         105.00       457.72
   71.70        2981.00           1643         103.00       449.00
   71.73        2981.25           1646         104.00       453.36
   71.75        2981.50           1649         103.00       449.00
   71.78        2981.75           1653         100.00       435.93
   71.81        2982.00           1656          99.00       431.57
   71.84        2982.25           1659         109.00       475.16
   71.86        2982.50           1663         112.00       488.24
   71.89        2982.75           1666         102.00       444.64
   71.92        2983.00           1669         104.00       453.36
   71.95        2983.25           1673         108.00       470.80
   71.98        2983.50           1676         102.00       444.64
   72.00        2983.75           1679          96.00       418.49
   72.03        2984.00           1683         107.00       466.44
HS scan finished at 01:12:20
end
************************************************************
  HS Scan of (1) Internal mercury lamp
************************************************************
Integration time is 0.2294 seconds per sample
dh070517De Bilt 52.1-5.183 2.589593pr1000
************************************************************
Dead Time -------------------------  3E-08 
Number of Cycles Used -------------  4 
Starting Wavelength (Angstroms) ---  2950 
Final Wavelength (Angstoms) -------  2984 
Wavelength Increment (Angstroms) --  .25 
Filter Wheel #1 Position ---------- (1) Ground quartz diffuser (ND=2.32)
Filter Wheel #2 Position ---------- (1) Neutral Density 0.494



************************************************************
HS scan start time = 01:34:02
Dark Count =  0 


Time (GMT)  Wavelength (Ang)  Step Number  Raw Counts  Counts/Second

   94.49        2950.00           1229         126.00       549.27
   94.59        2950.25           1232         126.00       549.27
   94.62        2950.50           1236         124.00       540.55
   94.64        2950.75           1239         129.00       562.35
   94.67        2951.00           1242         132.00       575.42
   94.70        2951.25           1246         123.00       536.19
   94.73        2951.50           1249         122.00       531.83
   94.75        2951.75           1252         126.00       549.27
   94.78        2952.00           1255         116.00       505.67
   94.81        2952.25           1259         123.00       536.19
   94.84        2952.50           1262         125.00       544.91
   94.86        2952.75           1265         120.00       523.11
   94.89        2953.00           1269         130.00       566.71
   94.92        2953.25           1272         132.00       575.42
   94.95        2953.50           1275         126.00       549.27
   94.98        2953.75           1279         126.00       549.27
   95.00        2954.00           1282         138.00       601.58
   95.03        2954.25           1285         128.00       557.99
   95.06        2954.50           1289         114.00       496.96
   95.09        2954.75           1292         139.00       605.94
   95.11        2955.00           1295         119.00       518.75
   95.14        2955.25           1299         117.00       510.03
   95.17        2955.50           1302         127.00       553.63
   95.20        2955.75           1305         134.00       584.14
   95.22        2956.00           1309         126.00       549.27
   95.25        2956.25           1312         121.00       527.47
   95.28        2956.50           1315         122.00       531.83
   95.31        2956.75           1319         134.00       584.14
   95.34        2957.00           1322         134.00       584.14
   95.36        2957.25           1325         119.00       518.75
   95.39        2957.50           1329         130.00       566.71
   95.42        2957.75           1332         125.00       544.91
   95.45        2958.00           1335         119.00       518.75
   95.47        2958.25           1339         131.00       571.06
   95.50        2958.50           1342         124.00       540.55
   95.53        2958.75           1345         122.00       531.83
   95.56        2959.00           1349         111.00       483.88
   95.58        2959.25           1352         122.00       531.83
   95.61        2959.50           1355         116.00       505.67
   95.64        2959.75           1359         127.00       553.63
   95.67        2960.00           1362         122.00       531.83
   95.70        2960.25           1365         130.00       566.71
   95.72        2960.50           1369         132.00       575.42
   95.75        2960.75           1372         144.00       627.74
   95.78        2961.00           1375         140.00       610.30
   95.81        2961.25           1379         157.00       684.41
   95.83        2961.50           1382         274.00      1194.46
   95.86        2961.75           1385         861.00      3753.69
   95.89        2962.00           1389        2231.00      9728.21
   95.92        2962.25           1392        3876.00     16904.82
   95.94        2962.50           1395        5741.00     25044.97
   95.97        2962.75           1399        8715.00     38033.78
   96.00        2963.00           1402       11267.00     49187.62
   96.03        2963.25           1405       13320.00     58165.93
   96.06        2963.50           1409       16115.00     70397.00
   96.09        2963.75           1412       18488.00     80788.43
   96.12        2964.00           1415       20605.00     90064.29
   96.14        2964.25           1419       23792.00    104038.30
   96.17        2964.50           1422       25661.00    112238.70
   96.20        2964.75           1425       27627.00    120869.10
   96.23        2965.00           1429       30503.00    133502.20
   96.25        2965.25           1432       32828.00    143722.10
   96.29        2965.50           1435       34989.00    153226.70
   96.32        2965.75           1439       37843.00    165787.70
   96.34        2966.00           1442       40313.00    176666.20
   96.37        2966.25           1445       42477.00    186202.90
   96.40        2966.50           1449       44455.00    194924.70
   96.43        2966.75           1452       45433.00    199238.80
   96.46        2967.00           1455       45711.00    200465.30
   96.49        2967.25           1459       45728.00    200540.30
   96.52        2967.50           1462       45674.00    200302.00
   96.55        2967.75           1465       45896.00    201281.50
   96.57        2968.00           1469       44577.00    195462.80
   96.60        2968.25           1472       43148.00    189161.10
   96.63        2968.50           1475       41165.00    180420.30
   96.66        2968.75           1479       38347.00    168006.80
   96.68        2969.00           1482       36753.00    160989.30
   96.71        2969.25           1485       34657.00    151766.10
   96.75        2969.50           1489       31743.00    138952.00
   96.77        2969.75           1492       29735.00    130127.80
   96.80        2970.00           1495       27604.00    120768.10
   96.83        2970.25           1499       25158.00    110031.30
   96.86        2970.50           1502       22933.00    100270.70
   96.88        2970.75           1505       20793.00     90888.29
   96.91        2971.00           1509       17992.00     78615.88
   96.94        2971.25           1512       15617.00     68217.06
   96.97        2971.50           1515       13696.00     59810.80
   97.00        2971.75           1519       11005.00     48042.17
   97.02        2972.00           1522        8963.00     39117.37
   97.05        2972.25           1525        6840.00     29843.62
   97.08        2972.50           1529        4123.00     17982.67
   97.11        2972.75           1532        2209.00      9632.25
   97.13        2973.00           1536         854.00      3723.17
   97.16        2973.25           1539         382.00      1665.30
   97.19        2973.50           1542         174.00       758.52
   97.22        2973.75           1546         144.00       627.74
   97.24        2974.00           1549         137.00       597.22
   97.27        2974.25           1552         121.00       527.47
   97.30        2974.50           1556         121.00       527.47
   97.33        2974.75           1559         114.00       496.96
   97.35        2975.00           1562         118.00       514.39
   97.38        2975.25           1566         115.00       501.32
   97.41        2975.50           1569         113.00       492.60
   97.44        2975.75           1572         106.00       462.08
   97.46        2976.00           1576         112.00       488.24
   97.49        2976.25           1579         106.00       462.08
   97.52        2976.50           1582         108.00       470.80
   97.55        2976.75           1586         118.00       514.39
   97.58        2977.00           1589         109.00       475.16
   97.60        2977.25           1592         113.00       492.60
   97.63        2977.50           1596         113.00       492.60
   97.66        2977.75           1599         111.00       483.88
   97.69        2978.00           1602         106.00       462.08
   97.71        2978.25           1606         101.00       440.28
   97.74        2978.50           1609         111.00       483.88
   97.77        2978.75           1612         108.00       470.80
   97.80        2979.00           1616         111.00       483.88
   97.82        2979.25           1619         101.00       440.28
   97.85        2979.50           1623         105.00       457.72
   97.88        2979.75           1626         108.00       470.80
   97.91        2980.00           1629         109.00       475.16
   97.93        2980.25           1633         103.00       449.00
   97.96        2980.50           1636         100.00       435.93
   97.99        2980.75           1639         105.00       457.72
   98.02        2981.00           1643         104.00       453.36
   98.05        2981.25           1646         103.00       449.00
   98.07        2981.50           1649          93.00       405.41
   98.10        2981.75           1653         103.00       449.00
   98.13        2982.00           1656         114.00       496.96
   98.16        2982.25           1659         100.00       435.93
   98.18        2982.50           1663         109.00       475.16
   98.21        2982.75           1666         105.00       457.72
   98.24        2983.00           1669         102.00       444.64
   98.27        2983.25           1673         102.00       444.64
   98.30        2983.50           1676         103.00       449.00
   98.33        2983.75           1679         101.00       440.28
   98.36        2984.00           1683         108.00       470.80
HS scan finished at 01:38:39
end
************************************************************
  HS Scan of (1) Internal mercury lamp
************************************************************
Integration time is 0.2294 seconds per sample
dh070517De Bilt 52.1-5.183 2.535944pr1000
************************************************************
Dead Time -------------------------  3E-08 
Number of Cycles Used -------------  4 
Starting Wavelength (Angstroms) ---  2950 
Final Wavelength (Angstoms) -------  2984 
Wavelength Increment (Angstroms) --  .25 
Filter Wheel #1 Position ---------- (1) Ground quartz diffuser (ND=2.32)
Filter Wheel #2 Position ---------- (1) Neutral Density 0.494



************************************************************
HS scan start time = 20:10:33
Dark Count =  0 


Time (GMT)  Wavelength (Ang)  Step Number  Raw Counts  Counts/Second

 1211.00        2950.00           1229         129.00       562.35
 1211.10        2950.25           1232         124.00       540.55
 1211.12        2950.50           1236         132.00       575.42
 1211.16        2950.75           1239         116.00       505.67
 1211.19        2951.00           1242         128.00       557.99
 1211.21        2951.25           1246         129.00       562.35
 1211.24        2951.50           1249         135.00       588.50
 1211.27        2951.75           1252         130.00       566.71
 1211.30        2952.00           1255         124.00       540.55
 1211.32        2952.25           1259         120.00       523.11
 1211.35        2952.50           1262         132.00       575.42
 1211.38        2952.75           1265         131.00       571.06
 1211.41        2953.00           1269         130.00       566.71
 1211.43        2953.25           1272         121.00       527.47
 1211.46        2953.50           1275         142.00       619.02
 1211.50        2953.75           1279         118.00       514.39
 1211.53        2954.00           1282         137.00       597.22
 1211.56        2954.25           1285         135.00       588.50
 1211.58        2954.50           1289         121.00       527.47
 1211.61        2954.75           1292         127.00       553.63
 1211.64        2955.00           1295         127.00       553.63
 1211.67        2955.25           1299         128.00       557.99
 1211.69        2955.50           1302         116.00       505.67
 1211.72        2955.75           1305         126.00       549.27
 1211.75        2956.00           1309         132.00       575.42
 1211.78        2956.25           1312         118.00       514.39
 1211.80        2956.50           1315         119.00       518.75
 1211.83        2956.75           1319         119.00       518.75
 1211.86        2957.00           1322         120.00       523.11
 1211.89        2957.25           1325         117.00       510.03
 1211.91        2957.50           1329         125.00       544.91
 1211.94        2957.75           1332         126.00       549.27
 1211.97        2958.00           1335         124.00       540.55
 1212.00        2958.25           1339         129.00       562.35
 1212.02        2958.50           1342         128.00       557.99
 1212.05        2958.75           1345         121.00       527.47
 1212.08        2959.00           1349         117.00       510.03
 1212.11        2959.25           1352         129.00       562.35
 1212.13        2959.50           1355         127.00       553.63
 1212.16        2959.75           1359         125.00       544.91
 1212.19        2960.00           1362         127.00       553.63
 1212.22        2960.25           1365         126.00       549.27
 1212.25        2960.50           1369         139.00       605.94
 1212.27        2960.75           1372         136.00       592.86
 1212.30        2961.00           1375         146.00       636.46
 1212.33        2961.25           1379         162.00       706.21
 1212.36        2961.50           1382         205.00       893.66
 1212.38        2961.75           1385         791.00      3448.48
 1212.41        2962.00           1389        2675.00     11664.94
 1212.44        2962.25           1392        4429.00     19318.08
 1212.47        2962.50           1395        6414.00     27983.38
 1212.49        2962.75           1399        9528.00     41586.29
 1212.52        2963.00           1402       12558.00     54832.94
 1212.55        2963.25           1405       15342.00     67013.40
 1212.58        2963.50           1409       18619.00     81362.25
 1212.61        2963.75           1412       21004.00     91813.13
 1212.64        2964.00           1415       23579.00    103104.00
 1212.67        2964.25           1419       27332.00    119573.80
 1212.70        2964.50           1422       29428.00    128779.00
 1212.72        2964.75           1425       32002.00    140090.60
 1212.75        2965.00           1429       35979.00    157582.80
 1212.78        2965.25           1432       38353.00    168033.30
 1212.81        2965.50           1435       41076.00    180028.10
 1212.83        2965.75           1439       44463.00    194960.00
 1212.86        2966.00           1442       46527.00    204065.90
 1212.89        2966.25           1445       49159.00    215684.90
 1212.92        2966.50           1449       51382.00    225504.80
 1212.95        2966.75           1452       52822.00    231868.90
 1212.98        2967.00           1455       53192.00    233504.50
 1213.00        2967.25           1459       53324.00    234088.10
 1213.03        2967.50           1462       53159.00    233358.60
 1213.06        2967.75           1465       52905.00    232235.80
 1213.08        2968.00           1469       51814.00    227413.70
 1213.12        2968.25           1472       50357.00    220976.20
 1213.15        2968.50           1475       48346.00    212095.00
 1213.18        2968.75           1479       44984.00    197258.00
 1213.21        2969.00           1482       42731.00    187322.60
 1213.23        2969.25           1485       40821.00    178904.50
 1213.26        2969.50           1489       37710.00    165202.10
 1213.29        2969.75           1492       35415.00    155101.00
 1213.32        2970.00           1495       32941.00    144219.00
 1213.35        2970.25           1499       29653.00    129767.50
 1213.37        2970.50           1502       26507.00    115951.90
 1213.41        2970.75           1505       23785.00    104007.50
 1213.44        2971.00           1509       20863.00     91195.09
 1213.47        2971.25           1512       18563.00     81116.96
 1213.49        2971.50           1515       15863.00     69293.87
 1213.52        2971.75           1519       12679.00     55362.15
 1213.55        2972.00           1522       10755.00     46949.26
 1213.58        2972.25           1525        8579.00     37439.59
 1213.61        2972.50           1529        5363.00     23394.79
 1213.63        2972.75           1532        2961.00     12912.59
 1213.66        2973.00           1536         915.00      3989.14
 1213.69        2973.25           1539         327.00      1425.52
 1213.72        2973.50           1542         193.00       841.35
 1213.74        2973.75           1546         144.00       627.74
 1213.77        2974.00           1549         141.00       614.66
 1213.80        2974.25           1552         144.00       627.74
 1213.83        2974.50           1556         125.00       544.91
 1213.85        2974.75           1559         132.00       575.42
 1213.89        2975.00           1562         116.00       505.67
 1213.92        2975.25           1566         120.00       523.11
 1213.95        2975.50           1569         105.00       457.72
 1213.97        2975.75           1572         116.00       505.67
 1214.00        2976.00           1576         122.00       531.83
 1214.03        2976.25           1579         112.00       488.24
 1214.06        2976.50           1582         107.00       466.44
 1214.08        2976.75           1586         104.00       453.36
 1214.11        2977.00           1589         104.00       453.36
 1214.14        2977.25           1592         114.00       496.96
 1214.17        2977.50           1596         105.00       457.72
 1214.19        2977.75           1599         108.00       470.80
 1214.22        2978.00           1602         108.00       470.80
 1214.25        2978.25           1606         109.00       475.16
 1214.28        2978.50           1609         110.00       479.52
 1214.30        2978.75           1612         109.00       475.16
 1214.33        2979.00           1616         110.00       479.52
 1214.36        2979.25           1619         114.00       496.96
 1214.39        2979.50           1623         103.00       449.00
 1214.41        2979.75           1626         108.00       470.80
 1214.44        2980.00           1629         111.00       483.88
 1214.47        2980.25           1633          89.00       387.97
 1214.50        2980.50           1636          96.00       418.49
 1214.52        2980.75           1639         108.00       470.80
 1214.55        2981.00           1643         109.00       475.16
 1214.58        2981.25           1646         115.00       501.32
 1214.61        2981.50           1649         107.00       466.44
 1214.63        2981.75           1653         111.00       483.88
 1214.66        2982.00           1656         112.00       488.24
 1214.69        2982.25           1659         105.00       457.72
 1214.72        2982.50           1663          98.00       427.21
 1214.75        2982.75           1666         102.00       444.64
 1214.77        2983.00           1669         100.00       435.93
 1214.80        2983.25           1673         113.00       492.60
 1214.83        2983.50           1676          97.00       422.85
 1214.86        2983.75           1679         106.00       462.08
 1214.88        2984.00           1683         106.00       462.08
HS scan finished at 20:15:11
end
