************************************************************
  HS Scan of (1) Internal mercury lamp
************************************************************
Integration time is 0.2294 seconds per sample
dh040518Brussels 50.799-4.357 2.428648pr1000
************************************************************
Dead Time -------------------------  2.7E-08 
Number of Cycles Used -------------  4 
Starting Wavelength (Angstroms) ---  2950 
Final Wavelength (Angstoms) -------  2984 
Wavelength Increment (Angstroms) --  .25 
Filter Wheel #1 Position ---------- (1) Ground quartz diffuser (ND=2.32)
Filter Wheel #2 Position ---------- (1) Neutral Density 0.494



************************************************************
HS scan start time = 02:21:42
Dark Count =  .1 


Time (GMT)  Wavelength (Ang)  Step Number  Raw Counts  Counts/Second

  142.15        2950.00           1229         126.00       548.83
  142.25        2950.25           1232         127.00       553.19
  142.27        2950.50           1236         123.00       535.75
  142.30        2950.75           1239         132.00       574.99
  142.33        2951.00           1242         132.00       574.99
  142.36        2951.25           1246         135.00       588.07
  142.39        2951.50           1249         130.00       566.27
  142.42        2951.75           1252         132.00       574.99
  142.44        2952.00           1256         122.00       531.39
  142.47        2952.25           1259         126.00       548.83
  142.50        2952.50           1262         125.00       544.47
  142.53        2952.75           1266         122.00       531.39
  142.56        2953.00           1269         117.00       509.60
  142.59        2953.25           1272         128.00       557.55
  142.61        2953.50           1276         121.00       527.03
  142.64        2953.75           1279         120.00       522.68
  142.67        2954.00           1282         139.00       605.50
  142.70        2954.25           1286         128.00       557.55
  142.73        2954.50           1289         122.00       531.39
  142.76        2954.75           1292         126.00       548.83
  142.78        2955.00           1296         132.00       574.99
  142.81        2955.25           1299         125.00       544.47
  142.84        2955.50           1302         114.00       496.52
  142.87        2955.75           1306         112.00       487.80
  142.90        2956.00           1309         131.00       570.63
  142.93        2956.25           1312         125.00       544.47
  142.95        2956.50           1316         127.00       553.19
  142.98        2956.75           1319         131.00       570.63
  143.01        2957.00           1322         112.00       487.80
  143.04        2957.25           1326         121.00       527.03
  143.07        2957.50           1329         119.00       518.32
  143.09        2957.75           1332         123.00       535.75
  143.12        2958.00           1336         125.00       544.47
  143.15        2958.25           1339         131.00       570.63
  143.18        2958.50           1342         129.00       561.91
  143.21        2958.75           1345         128.00       557.55
  143.24        2959.00           1349         130.00       566.27
  143.26        2959.25           1352         132.00       574.99
  143.29        2959.50           1355         117.00       509.60
  143.32        2959.75           1359         116.00       505.24
  143.35        2960.00           1362         122.00       531.39
  143.38        2960.25           1365         122.00       531.39
  143.41        2960.50           1369         126.00       548.83
  143.44        2960.75           1372         134.00       583.71
  143.46        2961.00           1375         138.00       601.14
  143.49        2961.25           1379         141.00       614.22
  143.52        2961.50           1382         203.00       884.50
  143.55        2961.75           1385         630.00      2746.06
  143.58        2962.00           1389        1844.00      8039.67
  143.61        2962.25           1392        3406.00     14852.95
  143.63        2962.50           1395        5684.00     24793.84
  143.66        2962.75           1399        8534.00     37238.38
  143.69        2963.00           1402       11119.00     48533.05
  143.72        2963.25           1405       13720.00     59904.58
  143.75        2963.50           1409       16909.00     73856.38
  143.78        2963.75           1412       19409.00     84801.19
  143.80        2964.00           1415       21849.00     95489.56
  143.83        2964.25           1419       24952.00    109091.10
  143.86        2964.50           1422       27312.00    119442.60
  143.89        2964.75           1425       29463.00    128882.30
  143.92        2965.00           1429       32215.00    140966.60
  143.95        2965.25           1432       34191.00    149648.30
  143.98        2965.50           1435       36362.00    159191.50
  144.00        2965.75           1439       39556.00    173240.50
  144.03        2966.00           1442       41490.00    181752.40
  144.06        2966.25           1445       44018.00    192884.60
  144.09        2966.50           1449       46428.00    203503.50
  144.12        2966.75           1452       47874.00    209877.80
  144.15        2967.00           1455       48740.00    213696.30
  144.18        2967.25           1459       48791.00    213921.20
  144.20        2967.50           1462       48788.00    213908.00
  144.23        2967.75           1465       48678.00    213422.90
  144.26        2968.00           1469       47846.00    209754.30
  144.29        2968.25           1472       46961.00    205852.80
  144.32        2968.50           1475       45125.00    197761.50
  144.35        2968.75           1479       41968.00    183856.80
  144.38        2969.00           1482       39597.00    173420.90
  144.40        2969.25           1485       37525.00    164305.80
  144.43        2969.50           1489       34866.00    152614.90
  144.46        2969.75           1492       32422.00    141875.90
  144.49        2970.00           1495       30324.00    132662.20
  144.52        2970.25           1499       27311.00    119438.20
  144.55        2970.50           1502       25346.00    110818.90
  144.57        2970.75           1505       22818.00     99735.97
  144.60        2971.00           1509       19739.00     86246.38
  144.63        2971.25           1512       17315.00     75633.38
  144.66        2971.50           1515       14666.00     64042.21
  144.69        2971.75           1519       11961.00     52213.49
  144.72        2972.00           1522        9593.00     41864.65
  144.75        2972.25           1525        7651.00     33381.86
  144.77        2972.50           1529        4899.00     21367.60
  144.80        2972.75           1532        2694.00     11746.97
  144.83        2973.00           1535        1273.00      5549.66
  144.86        2973.25           1539         405.00      1765.12
  144.89        2973.50           1542         205.00       893.22
  144.92        2973.75           1546         154.00       670.89
  144.94        2974.00           1549         153.00       666.53
  144.97        2974.25           1552         143.00       622.94
  145.00        2974.50           1556         121.00       527.03
  145.03        2974.75           1559         125.00       544.47
  145.06        2975.00           1562         118.00       513.96
  145.09        2975.25           1566         104.00       452.93
  145.11        2975.50           1569         112.00       487.80
  145.14        2975.75           1572         123.00       535.75
  145.17        2976.00           1576         104.00       452.93
  145.20        2976.25           1579         116.00       505.24
  145.23        2976.50           1582          98.00       426.77
  145.26        2976.75           1586         111.00       483.44
  145.28        2977.00           1589         106.00       461.64
  145.31        2977.25           1592         112.00       487.80
  145.34        2977.50           1596         108.00       470.36
  145.37        2977.75           1599          97.00       422.41
  145.40        2978.00           1602         112.00       487.80
  145.43        2978.25           1606         109.00       474.72
  145.45        2978.50           1609         126.00       548.83
  145.48        2978.75           1612          96.00       418.05
  145.51        2979.00           1616         106.00       461.64
  145.54        2979.25           1619         117.00       509.60
  145.57        2979.50           1622          95.00       413.69
  145.60        2979.75           1626         108.00       470.36
  145.62        2980.00           1629         106.00       461.64
  145.65        2980.25           1632         102.00       444.21
  145.68        2980.50           1636         101.00       439.85
  145.71        2980.75           1639         106.00       461.64
  145.74        2981.00           1642         104.00       452.93
  145.77        2981.25           1646         111.00       483.44
  145.79        2981.50           1649         107.00       466.00
  145.82        2981.75           1653         109.00       474.72
  145.85        2982.00           1656         109.00       474.72
  145.88        2982.25           1659         112.00       487.80
  145.91        2982.50           1663         107.00       466.00
  145.94        2982.75           1666         108.00       470.36
  145.96        2983.00           1669         113.00       492.16
  145.99        2983.25           1673         105.00       457.29
  146.02        2983.50           1676         107.00       466.00
  146.05        2983.75           1679         111.00       483.44
  146.08        2984.00           1683         105.00       457.29
HS scan finished at 02:26:22
end
************************************************************
  HS Scan of (1) Internal mercury lamp
************************************************************
Integration time is 0.2294 seconds per sample
dh040518Brussels 50.799-4.357 2.857833pr1000
************************************************************
Dead Time -------------------------  2.7E-08 
Number of Cycles Used -------------  4 
Starting Wavelength (Angstroms) ---  2950 
Final Wavelength (Angstoms) -------  2984 
Wavelength Increment (Angstroms) --  .25 
Filter Wheel #1 Position ---------- (1) Ground quartz diffuser (ND=2.32)
Filter Wheel #2 Position ---------- (1) Neutral Density 0.494



************************************************************
HS scan start time = 20:08:11
Dark Count =  .1 


Time (GMT)  Wavelength (Ang)  Step Number  Raw Counts  Counts/Second

 1208.63        2950.00           1229         126.00       548.83
 1208.73        2950.25           1232         113.00       492.16
 1208.76        2950.50           1236         124.00       540.11
 1208.79        2950.75           1239         106.00       461.64
 1208.81        2951.00           1242         120.00       522.68
 1208.84        2951.25           1246         113.00       492.16
 1208.87        2951.50           1249         111.00       483.44
 1208.90        2951.75           1252         111.00       483.44
 1208.93        2952.00           1256         120.00       522.68
 1208.96        2952.25           1259         116.00       505.24
 1208.98        2952.50           1262         113.00       492.16
 1209.01        2952.75           1266         116.00       505.24
 1209.04        2953.00           1269         126.00       548.83
 1209.07        2953.25           1272         119.00       518.32
 1209.10        2953.50           1276         119.00       518.32
 1209.12        2953.75           1279         118.00       513.96
 1209.15        2954.00           1282         111.00       483.44
 1209.18        2954.25           1286         115.00       500.88
 1209.21        2954.50           1289         106.00       461.64
 1209.24        2954.75           1292         116.00       505.24
 1209.27        2955.00           1296         116.00       505.24
 1209.30        2955.25           1299         112.00       487.80
 1209.32        2955.50           1302         117.00       509.60
 1209.35        2955.75           1306         113.00       492.16
 1209.38        2956.00           1309         109.00       474.72
 1209.41        2956.25           1312         111.00       483.44
 1209.44        2956.50           1316         108.00       470.36
 1209.47        2956.75           1319         118.00       513.96
 1209.49        2957.00           1322         114.00       496.52
 1209.52        2957.25           1326         114.00       496.52
 1209.55        2957.50           1329         111.00       483.44
 1209.58        2957.75           1332         108.00       470.36
 1209.61        2958.00           1336         113.00       492.16
 1209.63        2958.25           1339         104.00       452.93
 1209.66        2958.50           1342         107.00       466.00
 1209.69        2958.75           1345         113.00       492.16
 1209.72        2959.00           1349         113.00       492.16
 1209.75        2959.25           1352         110.00       479.08
 1209.78        2959.50           1355         121.00       527.03
 1209.80        2959.75           1359         119.00       518.32
 1209.83        2960.00           1362         119.00       518.32
 1209.86        2960.25           1365         126.00       548.83
 1209.89        2960.50           1369         111.00       483.44
 1209.92        2960.75           1372         128.00       557.55
 1209.95        2961.00           1375         131.00       570.63
 1209.97        2961.25           1379         141.00       614.22
 1210.00        2961.50           1382         169.00       736.28
 1210.03        2961.75           1385         479.00      2087.74
 1210.06        2962.00           1389        2330.00     10159.28
 1210.09        2962.25           1392        4373.00     19072.15
 1210.11        2962.50           1395        6898.00     30093.76
 1210.14        2962.75           1399        9949.00     43420.10
 1210.17        2963.00           1402       12481.00     54486.82
 1210.20        2963.25           1405       15154.00     66177.00
 1210.23        2963.50           1409       18966.00     82861.29
 1210.26        2963.75           1412       21887.00     95656.06
 1210.28        2964.00           1415       24747.00    108192.20
 1210.31        2964.25           1419       28064.00    122742.20
 1210.34        2964.50           1422       30566.00    133724.80
 1210.37        2964.75           1425       33254.00    145531.10
 1210.40        2965.00           1429       36999.00    161992.50
 1210.43        2965.25           1432       40140.00    175810.30
 1210.46        2965.50           1435       42354.00    185556.40
 1210.48        2965.75           1439       45092.00    197616.10
 1210.51        2966.00           1442       47866.00    209842.50
 1210.54        2966.25           1445       51041.00    223846.20
 1210.57        2966.50           1449       54048.00    237118.70
 1210.60        2966.75           1452       55741.00    244595.60
 1210.63        2967.00           1455       56574.00    248275.60
 1210.65        2967.25           1459       56403.00    247520.10
 1210.68        2967.50           1462       56385.00    247440.60
 1210.71        2967.75           1465       56396.00    247489.20
 1210.74        2968.00           1469       55238.00    242373.90
 1210.77        2968.25           1472       53664.00    235423.30
 1210.80        2968.50           1475       51452.00    225659.70
 1210.82        2968.75           1479       49140.00    215460.30
 1210.85        2969.00           1482       46379.00    203287.60
 1210.88        2969.25           1485       43761.00    191752.60
 1210.91        2969.50           1489       40309.00    176554.10
 1210.94        2969.75           1492       37483.00    164121.00
 1210.97        2970.00           1495       35223.00    154184.10
 1210.99        2970.25           1499       31756.00    138950.60
 1211.02        2970.50           1502       28914.00    126472.60
 1211.05        2970.75           1505       26108.00    114160.90
 1211.08        2971.00           1509       22570.00     98649.07
 1211.11        2971.25           1512       20378.00     89045.12
 1211.14        2971.50           1515       17913.00     78251.03
 1211.16        2971.75           1519       14935.00     65218.94
 1211.19        2972.00           1522       11789.00     51461.61
 1211.22        2972.25           1525        9184.00     40077.79
 1211.25        2972.50           1529        5833.00     25444.24
 1211.28        2972.75           1532        3311.00     14438.50
 1211.31        2973.00           1535        1566.00      6827.33
 1211.33        2973.25           1539         453.00      1974.39
 1211.36        2973.50           1542         195.00       849.63
 1211.39        2973.75           1546         148.00       644.74
 1211.42        2974.00           1549         144.00       627.30
 1211.45        2974.25           1552         130.00       566.27
 1211.48        2974.50           1556         125.00       544.47
 1211.51        2974.75           1559         128.00       557.55
 1211.54        2975.00           1562         119.00       518.32
 1211.57        2975.25           1566         113.00       492.16
 1211.59        2975.50           1569         110.00       479.08
 1211.62        2975.75           1572         101.00       439.85
 1211.65        2976.00           1576         109.00       474.72
 1211.68        2976.25           1579         106.00       461.64
 1211.71        2976.50           1582         106.00       461.64
 1211.74        2976.75           1586         100.00       435.49
 1211.77        2977.00           1589         105.00       457.29
 1211.80        2977.25           1592         103.00       448.57
 1211.82        2977.50           1596         100.00       435.49
 1211.85        2977.75           1599          96.00       418.05
 1211.88        2978.00           1602          96.00       418.05
 1211.91        2978.25           1606         100.00       435.49
 1211.94        2978.50           1609          98.00       426.77
 1211.97        2978.75           1612         112.00       487.80
 1212.00        2979.00           1616          91.00       396.26
 1212.02        2979.25           1619          91.00       396.26
 1212.05        2979.50           1622         101.00       439.85
 1212.08        2979.75           1626         100.00       435.49
 1212.11        2980.00           1629          98.00       426.77
 1212.14        2980.25           1632          99.00       431.13
 1212.17        2980.50           1636          93.00       404.97
 1212.20        2980.75           1639         100.00       435.49
 1212.23        2981.00           1642         100.00       435.49
 1212.26        2981.25           1646         103.00       448.57
 1212.28        2981.50           1649          97.00       422.41
 1212.31        2981.75           1653          91.00       396.26
 1212.34        2982.00           1656          98.00       426.77
 1212.37        2982.25           1659         101.00       439.85
 1212.40        2982.50           1663          93.00       404.97
 1212.43        2982.75           1666          98.00       426.77
 1212.46        2983.00           1669          96.00       418.05
 1212.49        2983.25           1673          91.00       396.26
 1212.52        2983.50           1676          89.00       387.54
 1212.54        2983.75           1679         105.00       457.29
 1212.57        2984.00           1683          93.00       404.97
HS scan finished at 20:12:52
end
