************************************************************
  HS Scan of (1) Internal mercury lamp
************************************************************
Integration time is 0.2294 seconds per sample
dh300418Delft 51.9969-4.3863 2.535944pr1000
************************************************************
Dead Time -------------------------  2.7E-08 
Number of Cycles Used -------------  4 
Starting Wavelength (Angstroms) ---  2950 
Final Wavelength (Angstoms) -------  2984 
Wavelength Increment (Angstroms) --  .25 
Filter Wheel #1 Position ---------- (1) Ground quartz diffuser (ND=2.32)
Filter Wheel #2 Position ---------- (1) Neutral Density 0.494



************************************************************
HS scan start time = 02:28:19
Dark Count =  0 


Time (GMT)  Wavelength (Ang)  Step Number  Raw Counts  Counts/Second

  148.77        2950.00           1229         125.00       544.91
  148.87        2950.25           1232         126.00       549.27
  148.90        2950.50           1236         144.00       627.74
  148.93        2950.75           1239         128.00       557.99
  148.96        2951.00           1242         127.00       553.63
  148.99        2951.25           1246         132.00       575.42
  149.01        2951.50           1249         117.00       510.03
  149.04        2951.75           1252         127.00       553.63
  149.07        2952.00           1256         127.00       553.63
  149.10        2952.25           1259         117.00       510.03
  149.13        2952.50           1262         121.00       527.47
  149.16        2952.75           1266         131.00       571.06
  149.19        2953.00           1269         121.00       527.47
  149.22        2953.25           1272         117.00       510.03
  149.25        2953.50           1276         125.00       544.91
  149.28        2953.75           1279         125.00       544.91
  149.31        2954.00           1282         117.00       510.03
  149.34        2954.25           1286         134.00       584.14
  149.37        2954.50           1289         121.00       527.47
  149.40        2954.75           1292         126.00       549.27
  149.43        2955.00           1296         119.00       518.75
  149.46        2955.25           1299         129.00       562.35
  149.49        2955.50           1302         117.00       510.03
  149.52        2955.75           1306         115.00       501.31
  149.55        2956.00           1309         116.00       505.67
  149.58        2956.25           1312         132.00       575.42
  149.61        2956.50           1316         121.00       527.47
  149.64        2956.75           1319         110.00       479.52
  149.67        2957.00           1322         110.00       479.52
  149.70        2957.25           1326         129.00       562.35
  149.73        2957.50           1329         114.00       496.96
  149.76        2957.75           1332         117.00       510.03
  149.79        2958.00           1336         126.00       549.27
  149.82        2958.25           1339         119.00       518.75
  149.85        2958.50           1342         121.00       527.47
  149.88        2958.75           1345         114.00       496.96
  149.91        2959.00           1349         128.00       557.99
  149.94        2959.25           1352         125.00       544.91
  149.97        2959.50           1355         123.00       536.19
  150.00        2959.75           1359         117.00       510.03
  150.03        2960.00           1362         128.00       557.99
  150.06        2960.25           1365         115.00       501.31
  150.09        2960.50           1369         134.00       584.14
  150.12        2960.75           1372         134.00       584.14
  150.15        2961.00           1375         134.00       584.14
  150.18        2961.25           1379         157.00       684.41
  150.21        2961.50           1382         199.00       867.50
  150.24        2961.75           1385         647.00      2820.62
  150.27        2962.00           1389        2315.00     10094.29
  150.30        2962.25           1392        4171.00     18191.15
  150.33        2962.50           1395        5769.00     25165.31
  150.36        2962.75           1399        8536.00     37247.56
  150.39        2963.00           1402       11287.00     49267.76
  150.42        2963.25           1405       13793.00     60224.26
  150.45        2963.50           1409       17500.00     76443.59
  150.48        2963.75           1412       19928.00     87074.58
  150.51        2964.00           1415       22049.00     96366.38
  150.54        2964.25           1419       25079.00    109648.50
  150.57        2964.50           1422       27716.00    121215.60
  150.60        2964.75           1425       30408.00    133031.50
  150.63        2965.00           1429       33367.00    146028.00
  150.66        2965.25           1432       35431.00    155098.90
  150.69        2965.50           1435       37522.00    164293.00
  150.72        2965.75           1439       40933.00    179301.00
  150.75        2966.00           1442       43328.00    189846.00
  150.78        2966.25           1445       45393.00    198942.80
  150.80        2966.50           1449       49176.00    215619.60
  150.84        2966.75           1452       49898.00    218804.10
  150.87        2967.00           1455       50585.00    221834.80
  150.90        2967.25           1459       50425.00    221128.90
  150.93        2967.50           1462       50317.00    220652.40
  150.95        2967.75           1465       50319.00    220661.20
  150.99        2968.00           1469       49256.00    215972.40
  151.02        2968.25           1472       48090.00    210830.60
  151.05        2968.50           1475       46406.00    203407.00
  151.07        2968.75           1479       43505.00    190625.50
  151.10        2969.00           1482       40796.00    178698.00
  151.13        2969.25           1485       38571.00    168907.20
  151.16        2969.50           1489       35610.00    155885.80
  151.19        2969.75           1492       33342.00    145918.10
  151.22        2970.00           1495       31032.00    135771.50
  151.25        2970.25           1499       27874.00    121908.90
  151.28        2970.50           1502       25317.00    110692.10
  151.31        2970.75           1505       23450.00    102506.50
  151.34        2971.00           1509       20392.00     89106.88
  151.37        2971.25           1512       18429.00     80510.49
  151.40        2971.50           1515       16047.00     70084.55
  151.43        2971.75           1519       12632.00     55147.45
  151.46        2972.00           1522       10329.00     45081.00
  151.49        2972.25           1525        7993.00     34875.90
  151.52        2972.50           1529        5108.00     22280.18
  151.55        2972.75           1532        3016.00     13152.01
  151.58        2973.00           1535        1411.00      6151.85
  151.61        2973.25           1539         421.00      1835.31
  151.64        2973.50           1542         205.00       893.66
  151.67        2973.75           1546         164.00       714.92
  151.70        2974.00           1549         149.00       649.53
  151.73        2974.25           1552         138.00       601.58
  151.76        2974.50           1556         124.00       540.55
  151.79        2974.75           1559         127.00       553.63
  151.82        2975.00           1562         112.00       488.24
  151.85        2975.25           1566         125.00       544.91
  151.88        2975.50           1569         113.00       492.60
  151.91        2975.75           1572         113.00       492.60
  151.94        2976.00           1576         110.00       479.52
  151.97        2976.25           1579         109.00       475.16
  152.00        2976.50           1582         118.00       514.39
  152.03        2976.75           1586         100.00       435.92
  152.06        2977.00           1589         106.00       462.08
  152.09        2977.25           1592         107.00       466.44
  152.12        2977.50           1596         111.00       483.88
  152.15        2977.75           1599         104.00       453.36
  152.18        2978.00           1602         101.00       440.28
  152.21        2978.25           1606         102.00       444.64
  152.24        2978.50           1609         108.00       470.80
  152.27        2978.75           1612         112.00       488.24
  152.30        2979.00           1616         106.00       462.08
  152.33        2979.25           1619         106.00       462.08
  152.36        2979.50           1622         105.00       457.72
  152.39        2979.75           1626         114.00       496.96
  152.42        2980.00           1629         116.00       505.67
  152.45        2980.25           1632         110.00       479.52
  152.48        2980.50           1636         106.00       462.08
  152.51        2980.75           1639         108.00       470.80
  152.54        2981.00           1642         101.00       440.28
  152.57        2981.25           1646         101.00       440.28
  152.60        2981.50           1649         105.00       457.72
  152.63        2981.75           1653         109.00       475.16
  152.66        2982.00           1656         114.00       496.96
  152.69        2982.25           1659         105.00       457.72
  152.72        2982.50           1663         110.00       479.52
  152.75        2982.75           1666         101.00       440.28
  152.78        2983.00           1669          96.00       418.49
  152.81        2983.25           1673          99.00       431.57
  152.84        2983.50           1676         102.00       444.64
  152.87        2983.75           1679         109.00       475.16
  152.90        2984.00           1683         100.00       435.92
HS scan finished at 02:33:12
end
