************************************************************
  HS Scan of (1) Internal mercury lamp
************************************************************
Integration time is 0.2294 seconds per sample
dh070518Brussels 50.799-4.357 2.857833pr1000
************************************************************
Dead Time -------------------------  2.7E-08 
Number of Cycles Used -------------  4 
Starting Wavelength (Angstroms) ---  2950 
Final Wavelength (Angstoms) -------  2984 
Wavelength Increment (Angstroms) --  .25 
Filter Wheel #1 Position ---------- (1) Ground quartz diffuser (ND=2.32)
Filter Wheel #2 Position ---------- (1) Neutral Density 0.494



************************************************************
HS scan start time = 02:23:01
Dark Count =  .1 


Time (GMT)  Wavelength (Ang)  Step Number  Raw Counts  Counts/Second

  143.46        2950.00           1229         118.00       513.96
  143.56        2950.25           1232         111.00       483.44
  143.59        2950.50           1236         117.00       509.60
  143.62        2950.75           1239         110.00       479.08
  143.65        2951.00           1242         115.00       500.88
  143.67        2951.25           1246         117.00       509.60
  143.70        2951.50           1249         114.00       496.52
  143.73        2951.75           1252         124.00       540.11
  143.76        2952.00           1256         116.00       505.24
  143.79        2952.25           1259         112.00       487.80
  143.81        2952.50           1262         117.00       509.60
  143.84        2952.75           1266         105.00       457.29
  143.87        2953.00           1269         117.00       509.60
  143.90        2953.25           1272         118.00       513.96
  143.93        2953.50           1276         109.00       474.72
  143.96        2953.75           1279         114.00       496.52
  143.98        2954.00           1282         110.00       479.08
  144.01        2954.25           1286         108.00       470.36
  144.04        2954.50           1289         106.00       461.64
  144.07        2954.75           1292         113.00       492.16
  144.10        2955.00           1296         111.00       483.44
  144.12        2955.25           1299         101.00       439.85
  144.15        2955.50           1302         118.00       513.96
  144.18        2955.75           1306         109.00       474.72
  144.21        2956.00           1309         121.00       527.03
  144.24        2956.25           1312         114.00       496.52
  144.26        2956.50           1316         117.00       509.60
  144.29        2956.75           1319         108.00       470.36
  144.32        2957.00           1322         109.00       474.72
  144.35        2957.25           1326         115.00       500.88
  144.38        2957.50           1329         117.00       509.60
  144.41        2957.75           1332         105.00       457.29
  144.44        2958.00           1336          96.00       418.05
  144.46        2958.25           1339         109.00       474.72
  144.49        2958.50           1342         104.00       452.93
  144.52        2958.75           1345         101.00       439.85
  144.55        2959.00           1349         104.00       452.93
  144.58        2959.25           1352         108.00       470.36
  144.61        2959.50           1355          99.00       431.13
  144.63        2959.75           1359         109.00       474.72
  144.66        2960.00           1362         112.00       487.80
  144.69        2960.25           1365         112.00       487.80
  144.72        2960.50           1369         107.00       466.00
  144.75        2960.75           1372         132.00       574.99
  144.78        2961.00           1375         142.00       618.58
  144.80        2961.25           1379         143.00       622.94
  144.83        2961.50           1382         246.00      1071.96
  144.86        2961.75           1385        1016.00      4429.04
  144.89        2962.00           1389        2723.00     11873.47
  144.92        2962.25           1392        4689.00     20451.13
  144.95        2962.50           1395        7247.00     31617.65
  144.97        2962.75           1399       10888.00     47523.46
  145.00        2963.00           1402       14017.00     61203.51
  145.03        2963.25           1405       16801.00     73383.71
  145.06        2963.50           1409       20133.00     87972.01
  145.09        2963.75           1412       22796.00     99639.54
  145.12        2964.00           1415       25873.00    113130.10
  145.15        2964.25           1419       29480.00    128957.00
  145.17        2964.50           1422       32062.00    140294.60
  145.20        2964.75           1425       35465.00    155247.90
  145.23        2965.00           1429       39081.00    171150.50
  145.26        2965.25           1432       41449.00    181571.90
  145.29        2965.50           1435       44294.00    194100.40
  145.32        2965.75           1439       47819.00    209635.30
  145.34        2966.00           1442       50102.00    219703.50
  145.37        2966.25           1445       52938.00    232218.20
  145.40        2966.50           1449       55147.00    241972.00
  145.43        2966.75           1452       56569.00    248253.50
  145.46        2967.00           1455       56928.00    249839.70
  145.49        2967.25           1459       57211.00    251090.10
  145.51        2967.50           1462       57170.00    250909.00
  145.54        2967.75           1465       56942.00    249901.50
  145.57        2968.00           1469       55716.00    244485.20
  145.60        2968.25           1472       54148.00    237560.30
  145.63        2968.50           1475       51706.00    226780.60
  145.66        2968.75           1479       48073.00    210755.20
  145.68        2969.00           1482       46348.00    203150.90
  145.71        2969.25           1485       43867.00    192219.50
  145.74        2969.50           1489       40698.00    178266.20
  145.77        2969.75           1492       37767.00    165370.10
  145.80        2970.00           1495       35187.00    154025.90
  145.83        2970.25           1499       31186.00    136447.30
  145.86        2970.50           1502       28282.00    123698.90
  145.88        2970.75           1505       25707.00    112402.10
  145.91        2971.00           1509       22340.00     97641.12
  145.94        2971.25           1512       19547.00     85405.52
  145.97        2971.50           1515       16587.00     72447.16
  146.00        2971.75           1519       13739.00     59987.67
  146.03        2972.00           1522       11315.00     49389.71
  146.06        2972.25           1525        8621.00     37618.40
  146.08        2972.50           1529        5393.00     23523.66
  146.11        2972.75           1532        2729.00     11899.64
  146.14        2973.00           1535        1030.00      4490.08
  146.17        2973.25           1539         274.00      1194.02
  146.20        2973.50           1542         167.00       727.56
  146.23        2973.75           1546         145.00       631.66
  146.25        2974.00           1549         141.00       614.22
  146.28        2974.25           1552         136.00       592.42
  146.31        2974.50           1556         118.00       513.96
  146.34        2974.75           1559         113.00       492.16
  146.37        2975.00           1562         103.00       448.57
  146.40        2975.25           1566         108.00       470.36
  146.42        2975.50           1569         115.00       500.88
  146.45        2975.75           1572         101.00       439.85
  146.48        2976.00           1576         103.00       448.57
  146.51        2976.25           1579         108.00       470.36
  146.54        2976.50           1582         113.00       492.16
  146.57        2976.75           1586         113.00       492.16
  146.59        2977.00           1589          93.00       404.97
  146.62        2977.25           1592          90.00       391.90
  146.65        2977.50           1596          94.00       409.33
  146.68        2977.75           1599         102.00       444.21
  146.71        2978.00           1602          97.00       422.41
  146.74        2978.25           1606         101.00       439.85
  146.76        2978.50           1609          90.00       391.90
  146.79        2978.75           1612         109.00       474.72
  146.82        2979.00           1616         106.00       461.64
  146.85        2979.25           1619         100.00       435.49
  146.88        2979.50           1622         110.00       479.08
  146.91        2979.75           1626          99.00       431.13
  146.93        2980.00           1629          97.00       422.41
  146.96        2980.25           1632         103.00       448.57
  146.99        2980.50           1636         100.00       435.49
  147.02        2980.75           1639          95.00       413.69
  147.05        2981.00           1642         103.00       448.57
  147.07        2981.25           1646          93.00       404.97
  147.10        2981.50           1649         101.00       439.85
  147.13        2981.75           1653          88.00       383.18
  147.16        2982.00           1656         100.00       435.49
  147.19        2982.25           1659          99.00       431.13
  147.22        2982.50           1663         103.00       448.57
  147.24        2982.75           1666          97.00       422.41
  147.27        2983.00           1669          97.00       422.41
  147.30        2983.25           1673         101.00       439.85
  147.33        2983.50           1676          92.00       400.61
  147.36        2983.75           1679          88.00       383.18
  147.39        2984.00           1683          92.00       400.61
HS scan finished at 02:27:41
end
************************************************************
  HS Scan of (1) Internal mercury lamp
************************************************************
Integration time is 0.2294 seconds per sample
dh070518Brussels 50.799-4.357 3.179721pr1000
************************************************************
Dead Time -------------------------  2.7E-08 
Number of Cycles Used -------------  4 
Starting Wavelength (Angstroms) ---  2950 
Final Wavelength (Angstoms) -------  2984 
Wavelength Increment (Angstroms) --  .25 
Filter Wheel #1 Position ---------- (1) Ground quartz diffuser (ND=2.32)
Filter Wheel #2 Position ---------- (1) Neutral Density 0.494



************************************************************
HS scan start time = 20:11:55
Dark Count =  .2 


Time (GMT)  Wavelength (Ang)  Step Number  Raw Counts  Counts/Second

 1212.37        2950.00           1229         107.00       465.57
 1212.47        2950.25           1232         103.00       448.13
 1212.50        2950.50           1236         105.00       456.85
 1212.53        2950.75           1239         106.00       461.21
 1212.56        2951.00           1242         102.00       443.77
 1212.59        2951.25           1246         106.00       461.21
 1212.61        2951.50           1249         113.00       491.72
 1212.64        2951.75           1252         101.00       439.41
 1212.67        2952.00           1256         107.00       465.57
 1212.70        2952.25           1259          99.00       430.69
 1212.73        2952.50           1262         115.00       500.44
 1212.76        2952.75           1266          98.00       426.33
 1212.78        2953.00           1269          99.00       430.69
 1212.81        2953.25           1272         103.00       448.13
 1212.84        2953.50           1276          90.00       391.46
 1212.87        2953.75           1279         103.00       448.13
 1212.90        2954.00           1282         103.00       448.13
 1212.93        2954.25           1286          96.00       417.62
 1212.95        2954.50           1289         107.00       465.57
 1212.98        2954.75           1292          98.00       426.33
 1213.01        2955.00           1296          97.00       421.98
 1213.04        2955.25           1299          99.00       430.69
 1213.07        2955.50           1302         105.00       456.85
 1213.10        2955.75           1306          98.00       426.33
 1213.12        2956.00           1309         108.00       469.93
 1213.15        2956.25           1312          91.00       395.82
 1213.18        2956.50           1316         103.00       448.13
 1213.21        2956.75           1319         110.00       478.65
 1213.24        2957.00           1322         104.00       452.49
 1213.27        2957.25           1326          98.00       426.33
 1213.29        2957.50           1329          94.00       408.90
 1213.32        2957.75           1332          94.00       408.90
 1213.35        2958.00           1336          99.00       430.69
 1213.38        2958.25           1339         100.00       435.05
 1213.41        2958.50           1342          98.00       426.33
 1213.43        2958.75           1345          93.00       404.54
 1213.46        2959.00           1349          99.00       430.69
 1213.49        2959.25           1352          99.00       430.69
 1213.52        2959.50           1355          95.00       413.26
 1213.55        2959.75           1359         104.00       452.49
 1213.58        2960.00           1362         105.00       456.85
 1213.60        2960.25           1365          99.00       430.69
 1213.63        2960.50           1369          99.00       430.69
 1213.66        2960.75           1372         113.00       491.72
 1213.69        2961.00           1375         112.00       487.36
 1213.72        2961.25           1379         125.00       544.04
 1213.75        2961.50           1382         204.00       888.43
 1213.77        2961.75           1385         642.00      2797.94
 1213.80        2962.00           1389        2632.00     11476.09
 1213.83        2962.25           1392        4863.00     21210.05
 1213.86        2962.50           1395        7453.00     32516.77
 1213.89        2962.75           1399       11240.00     49061.46
 1213.91        2963.00           1402       14019.00     61211.80
 1213.94        2963.25           1405       16712.00     72993.77
 1213.97        2963.50           1409       21123.00     92308.24
 1214.00        2963.75           1412       24129.00    105482.20
 1214.03        2964.00           1415       26792.00    117160.80
 1214.06        2964.25           1419       31265.00    136793.80
 1214.09        2964.50           1422       34356.00    150373.00
 1214.11        2964.75           1425       37305.00    163337.80
 1214.14        2965.00           1429       40937.00    179317.70
 1214.17        2965.25           1432       43799.00    191919.60
 1214.20        2965.50           1435       46632.00    204402.20
 1214.23        2965.75           1439       50149.00    219910.40
 1214.26        2966.00           1442       52381.00    229759.20
 1214.28        2966.25           1445       54997.00    241309.00
 1214.31        2966.50           1449       58854.00    258351.20
 1214.34        2966.75           1452       60299.00    264740.00
 1214.37        2967.00           1455       60679.00    266420.50
 1214.40        2967.25           1459       60942.00    267583.60
 1214.43        2967.50           1462       60973.00    267720.70
 1214.46        2967.75           1465       60963.00    267676.50
 1214.48        2968.00           1469       60003.00    263431.10
 1214.51        2968.25           1472       58025.00    254687.00
 1214.54        2968.50           1475       55881.00    245213.60
 1214.57        2968.75           1479       52848.00    231820.50
 1214.60        2969.00           1482       50182.00    220056.00
 1214.63        2969.25           1485       47743.00    209299.80
 1214.65        2969.50           1489       43747.00    191690.50
 1214.68        2969.75           1492       40589.00    177786.00
 1214.71        2970.00           1495       37475.00    164085.40
 1214.74        2970.25           1499       33356.00    145978.80
 1214.77        2970.50           1502       30850.00    134971.40
 1214.80        2970.75           1505       27902.00    122030.90
 1214.82        2971.00           1509       23717.00    103676.10
 1214.85        2971.25           1512       21166.00     92496.62
 1214.88        2971.50           1515       18937.00     82733.88
 1214.91        2971.75           1519       15388.00     67200.28
 1214.94        2972.00           1522       12402.00     54140.99
 1214.97        2972.25           1525        9501.00     41462.26
 1214.99        2972.50           1529        5573.00     24308.89
 1215.02        2972.75           1532        2984.00     13011.55
 1215.05        2973.00           1535        1369.00      5967.83
 1215.08        2973.25           1539         368.00      1603.38
 1215.11        2973.50           1542         187.00       814.32
 1215.14        2973.75           1546         152.00       661.74
 1215.16        2974.00           1549         141.00       613.79
 1215.19        2974.25           1552         126.00       548.40
 1215.22        2974.50           1556         109.00       474.29
 1215.25        2974.75           1559         119.00       517.88
 1215.28        2975.00           1562         107.00       465.57
 1215.30        2975.25           1566         106.00       461.21
 1215.33        2975.50           1569          98.00       426.33
 1215.36        2975.75           1572          96.00       417.62
 1215.39        2976.00           1576          96.00       417.62
 1215.42        2976.25           1579          95.00       413.26
 1215.45        2976.50           1582          99.00       430.69
 1215.47        2976.75           1586          90.00       391.46
 1215.50        2977.00           1589          89.00       387.10
 1215.53        2977.25           1592          89.00       387.10
 1215.56        2977.50           1596          90.00       391.46
 1215.59        2977.75           1599         100.00       435.05
 1215.62        2978.00           1602          93.00       404.54
 1215.65        2978.25           1606          98.00       426.33
 1215.67        2978.50           1609          89.00       387.10
 1215.70        2978.75           1612          92.00       400.18
 1215.73        2979.00           1616          92.00       400.18
 1215.76        2979.25           1619          92.00       400.18
 1215.79        2979.50           1622          94.00       408.90
 1215.81        2979.75           1626          94.00       408.90
 1215.84        2980.00           1629          88.00       382.74
 1215.87        2980.25           1632          94.00       408.90
 1215.90        2980.50           1636          92.00       400.18
 1215.93        2980.75           1639          86.00       374.02
 1215.95        2981.00           1642          96.00       417.62
 1215.98        2981.25           1646          79.00       343.51
 1216.01        2981.50           1649          91.00       395.82
 1216.04        2981.75           1653          91.00       395.82
 1216.07        2982.00           1656          89.00       387.10
 1216.10        2982.25           1659          88.00       382.74
 1216.13        2982.50           1663          85.00       369.66
 1216.15        2982.75           1666          85.00       369.66
 1216.18        2983.00           1669         101.00       439.41
 1216.21        2983.25           1673          94.00       408.90
 1216.24        2983.50           1676          93.00       404.54
 1216.27        2983.75           1679          91.00       395.82
 1216.29        2984.00           1683          96.00       417.62
HS scan finished at 20:16:36
end
