************************************************************
  HS Scan of (1) Internal mercury lamp
************************************************************
Integration time is 0.2294 seconds per sample
dh020517DelftKZ 51.997-4.386 2.643241pr1000
************************************************************
Dead Time -------------------------  3E-08 
Number of Cycles Used -------------  4 
Starting Wavelength (Angstroms) ---  2950 
Final Wavelength (Angstoms) -------  2984 
Wavelength Increment (Angstroms) --  .25 
Filter Wheel #1 Position ---------- (1) Ground quartz diffuser (ND=2.32)
Filter Wheel #2 Position ---------- (1) Neutral Density 0.494



************************************************************
HS scan start time = 10:18:04
Dark Count =  .1 


Time (GMT)  Wavelength (Ang)  Step Number  Raw Counts  Counts/Second

  618.51        2950.00           1229         131.00       570.63
  618.61        2950.25           1232         126.00       548.83
  618.64        2950.50           1236         122.00       531.39
  618.67        2950.75           1239         130.00       566.27
  618.70        2951.00           1242         134.00       583.71
  618.72        2951.25           1246         126.00       548.83
  618.75        2951.50           1249         129.00       561.91
  618.78        2951.75           1252         122.00       531.39
  618.81        2952.00           1255         125.00       544.47
  618.83        2952.25           1259         134.00       583.71
  618.86        2952.50           1262         129.00       561.91
  618.89        2952.75           1265         131.00       570.63
  618.92        2953.00           1269         125.00       544.47
  618.94        2953.25           1272         130.00       566.27
  618.97        2953.50           1275         131.00       570.63
  619.00        2953.75           1279         136.00       592.43
  619.03        2954.00           1282         119.00       518.32
  619.06        2954.25           1285         137.00       596.78
  619.08        2954.50           1289         124.00       540.11
  619.11        2954.75           1292         131.00       570.63
  619.14        2955.00           1295         126.00       548.83
  619.17        2955.25           1299         126.00       548.83
  619.19        2955.50           1302         125.00       544.47
  619.22        2955.75           1305         117.00       509.60
  619.25        2956.00           1309         119.00       518.32
  619.28        2956.25           1312         130.00       566.27
  619.30        2956.50           1315         127.00       553.19
  619.33        2956.75           1319         129.00       561.91
  619.36        2957.00           1322         118.00       513.96
  619.39        2957.25           1325         130.00       566.27
  619.41        2957.50           1329         122.00       531.39
  619.44        2957.75           1332         118.00       513.96
  619.47        2958.00           1335         119.00       518.32
  619.50        2958.25           1339         131.00       570.63
  619.52        2958.50           1342         128.00       557.55
  619.55        2958.75           1345         123.00       535.75
  619.58        2959.00           1349         119.00       518.32
  619.61        2959.25           1352         110.00       479.08
  619.63        2959.50           1355         121.00       527.04
  619.66        2959.75           1359         125.00       544.47
  619.69        2960.00           1362         121.00       527.04
  619.72        2960.25           1365         119.00       518.32
  619.74        2960.50           1369         126.00       548.83
  619.77        2960.75           1372         142.00       618.58
  619.80        2961.00           1375         144.00       627.30
  619.83        2961.25           1379         159.00       692.69
  619.85        2961.50           1382         201.00       875.79
  619.88        2961.75           1385         575.00      2506.29
  619.91        2962.00           1389        2244.00      9784.48
  619.94        2962.25           1392        4419.00     19274.00
  619.97        2962.50           1395        6816.00     29738.38
  619.99        2962.75           1399        9956.00     43456.36
  620.03        2963.00           1402       12255.00     53507.36
  620.06        2963.25           1405       14901.00     65082.93
  620.08        2963.50           1409       18556.00     81085.85
  620.11        2963.75           1412       21859.00     95560.84
  620.14        2964.00           1415       24557.00    107393.80
  620.17        2964.25           1419       28477.00    124601.40
  620.20        2964.50           1422       31576.00    138217.60
  620.22        2964.75           1425       34549.00    151290.60
  620.25        2965.00           1429       38031.00    166615.00
  620.28        2965.25           1432       40779.00    178719.00
  620.31        2965.50           1435       43704.00    191612.30
  620.33        2965.75           1439       46763.00    205106.90
  620.36        2966.00           1442       48891.00    214501.00
  620.39        2966.25           1445       51685.00    226843.20
  620.42        2966.50           1449       54807.00    240645.20
  620.44        2966.75           1452       56581.00    248492.90
  620.47        2967.00           1455       57178.00    251134.70
  620.50        2967.25           1459       57412.00    252170.30
  620.53        2967.50           1462       57422.00    252214.60
  620.56        2967.75           1465       57208.00    251267.50
  620.58        2968.00           1469       56434.00    247842.50
  620.61        2968.25           1472       54943.00    241246.70
  620.64        2968.50           1475       53319.00    234065.50
  620.67        2968.75           1479       50194.00    220255.70
  620.69        2969.00           1482       47956.00    210372.80
  620.72        2969.25           1485       44931.00    197023.80
  620.75        2969.50           1489       41023.00    179794.10
  620.78        2969.75           1492       38035.00    166632.60
  620.80        2970.00           1495       35685.00    156288.60
  620.83        2970.25           1499       32232.00    141101.30
  620.86        2970.50           1502       29645.00    129731.90
  620.89        2970.75           1505       27293.00    119402.10
  620.92        2971.00           1509       23384.00    102248.20
  620.94        2971.25           1512       21234.00     92820.89
  620.97        2971.50           1515       18932.00     82733.00
  621.00        2971.75           1519       15235.00     66544.66
  621.03        2972.00           1522       12382.00     54062.77
  621.05        2972.25           1525        9482.00     41384.83
  621.09        2972.50           1529        5791.00     25262.82
  621.12        2972.75           1532        3289.00     14343.14
  621.15        2973.00           1536        1167.00      5087.52
  621.18        2973.25           1539         443.00      1930.80
  621.20        2973.50           1542         220.00       958.62
  621.23        2973.75           1546         168.00       731.93
  621.26        2974.00           1549         160.00       697.05
  621.29        2974.25           1552         134.00       583.71
  621.31        2974.50           1556         123.00       535.75
  621.34        2974.75           1559         123.00       535.75
  621.37        2975.00           1562         118.00       513.96
  621.40        2975.25           1566         117.00       509.60
  621.42        2975.50           1569         113.00       492.16
  621.45        2975.75           1572         123.00       535.75
  621.48        2976.00           1576         115.00       500.88
  621.51        2976.25           1579         111.00       483.44
  621.54        2976.50           1582         104.00       452.93
  621.56        2976.75           1586         116.00       505.24
  621.59        2977.00           1589         113.00       492.16
  621.62        2977.25           1592         111.00       483.44
  621.65        2977.50           1596         112.00       487.80
  621.67        2977.75           1599         111.00       483.44
  621.70        2978.00           1602         105.00       457.29
  621.73        2978.25           1606          98.00       426.77
  621.76        2978.50           1609         108.00       470.36
  621.78        2978.75           1612         108.00       470.36
  621.81        2979.00           1616         114.00       496.52
  621.84        2979.25           1619         104.00       452.93
  621.87        2979.50           1623         103.00       448.57
  621.89        2979.75           1626         112.00       487.80
  621.92        2980.00           1629         111.00       483.44
  621.95        2980.25           1633         109.00       474.72
  621.98        2980.50           1636         111.00       483.44
  622.01        2980.75           1639         112.00       487.80
  622.03        2981.00           1643         105.00       457.29
  622.06        2981.25           1646         106.00       461.65
  622.09        2981.50           1649         111.00       483.44
  622.12        2981.75           1653         111.00       483.44
  622.14        2982.00           1656         109.00       474.72
  622.17        2982.25           1659          96.00       418.05
  622.20        2982.50           1663         112.00       487.80
  622.23        2982.75           1666         116.00       505.24
  622.25        2983.00           1669          98.00       426.77
  622.28        2983.25           1673         109.00       474.72
  622.31        2983.50           1676         110.00       479.08
  622.34        2983.75           1679         112.00       487.80
  622.36        2984.00           1683         105.00       457.29
HS scan finished at 10:22:40
end
************************************************************
  HS Scan of (1) Internal mercury lamp
************************************************************
Integration time is 0.2294 seconds per sample
dh020517DelftKZ 51.997-4.386 2.696889pr1000
************************************************************
Dead Time -------------------------  3E-08 
Number of Cycles Used -------------  4 
Starting Wavelength (Angstroms) ---  2950 
Final Wavelength (Angstoms) -------  2984 
Wavelength Increment (Angstroms) --  .25 
Filter Wheel #1 Position ---------- (1) Ground quartz diffuser (ND=2.32)
Filter Wheel #2 Position ---------- (1) Neutral Density 0.494



************************************************************
HS scan start time = 11:23:10
Dark Count =  .2 


Time (GMT)  Wavelength (Ang)  Step Number  Raw Counts  Counts/Second

  683.61        2950.00           1229         111.00       483.01
  683.71        2950.25           1232         132.00       574.55
  683.74        2950.50           1236         124.00       539.68
  683.77        2950.75           1239         126.00       548.40
  683.80        2951.00           1242         124.00       539.68
  683.82        2951.25           1246         119.00       517.88
  683.85        2951.50           1249         127.00       552.76
  683.88        2951.75           1252         129.00       561.47
  683.91        2952.00           1255         126.00       548.40
  683.93        2952.25           1259         131.00       570.19
  683.96        2952.50           1262         120.00       522.24
  683.99        2952.75           1265         123.00       535.32
  684.02        2953.00           1269         110.00       478.65
  684.04        2953.25           1272         129.00       561.47
  684.07        2953.50           1275         122.00       530.96
  684.10        2953.75           1279         119.00       517.88
  684.13        2954.00           1282         126.00       548.40
  684.15        2954.25           1285         130.00       565.83
  684.18        2954.50           1289         126.00       548.40
  684.21        2954.75           1292         124.00       539.68
  684.24        2955.00           1295         123.00       535.32
  684.27        2955.25           1299         122.00       530.96
  684.30        2955.50           1302         130.00       565.83
  684.32        2955.75           1305         121.00       526.60
  684.35        2956.00           1309         121.00       526.60
  684.38        2956.25           1312         115.00       500.44
  684.40        2956.50           1315         114.00       496.08
  684.43        2956.75           1319         131.00       570.19
  684.46        2957.00           1322         121.00       526.60
  684.49        2957.25           1325         123.00       535.32
  684.52        2957.50           1329         114.00       496.08
  684.54        2957.75           1332         132.00       574.55
  684.57        2958.00           1335         118.00       513.52
  684.60        2958.25           1339         118.00       513.52
  684.63        2958.50           1342         120.00       522.24
  684.65        2958.75           1345         112.00       487.37
  684.68        2959.00           1349         118.00       513.52
  684.71        2959.25           1352         123.00       535.32
  684.74        2959.50           1355         125.00       544.04
  684.77        2959.75           1359         121.00       526.60
  684.80        2960.00           1362         121.00       526.60
  684.82        2960.25           1365         114.00       496.08
  684.85        2960.50           1369         125.00       544.04
  684.88        2960.75           1372         137.00       596.35
  684.91        2961.00           1375         138.00       600.71
  684.94        2961.25           1379         159.00       692.26
  684.96        2961.50           1382         189.00       823.04
  684.99        2961.75           1385         635.00      2767.45
  685.02        2962.00           1389        2482.00     10822.17
  685.05        2962.25           1392        4952.00     21599.87
  685.07        2962.50           1395        7597.00     33148.90
  685.10        2962.75           1399       11128.00     48579.03
  685.13        2963.00           1402       14145.00     61774.36
  685.16        2963.25           1405       17030.00     74402.16
  685.18        2963.50           1409       20721.00     90571.83
  685.21        2963.75           1412       24170.00    105695.60
  685.24        2964.00           1415       26604.00    116376.80
  685.27        2964.25           1419       30044.00    131484.50
  685.30        2964.50           1422       33329.00    145924.30
  685.32        2964.75           1425       36324.00    159100.20
  685.35        2965.00           1429       40314.00    176669.70
  685.39        2965.25           1432       42950.00    188287.30
  685.42        2965.50           1435       45431.00    199229.10
  685.45        2965.75           1439       49448.00    216960.30
  685.47        2966.00           1442       52111.00    228725.40
  685.50        2966.25           1445       54670.00    240038.90
  685.53        2966.50           1449       58276.00    255994.20
  685.56        2966.75           1452       59548.00    261626.10
  685.58        2967.00           1455       60439.00    265572.10
  685.61        2967.25           1459       60657.00    266537.80
  685.64        2967.50           1462       60657.00    266537.80
  685.68        2967.75           1465       60766.00    267020.60
  685.71        2968.00           1469       59674.00    262184.10
  685.73        2968.25           1472       57619.00    253086.10
  685.77        2968.50           1475       55483.00    243634.80
  685.80        2968.75           1479       52223.00    229220.40
  685.82        2969.00           1482       49271.00    216178.60
  685.85        2969.25           1485       46519.00    204029.70
  685.88        2969.50           1489       43019.00    188591.50
  685.91        2969.75           1492       40764.00    178652.40
  685.93        2970.00           1495       38228.00    167481.90
  685.96        2970.25           1499       34310.00    150238.90
  685.99        2970.50           1502       31355.00    137245.70
  686.02        2970.75           1505       28634.00    125290.50
  686.04        2971.00           1509       24917.00    108972.90
  686.07        2971.25           1512       22216.00     97125.66
  686.10        2971.50           1515       19401.00     84787.33
  686.14        2971.75           1519       15533.00     67848.51
  686.17        2972.00           1522       12260.00     53528.79
  686.20        2972.25           1525        9654.00     42136.06
  686.23        2972.50           1529        6356.00     27729.25
  686.25        2972.75           1532        3989.00     17397.05
  686.28        2973.00           1536        1464.00      6382.22
  686.31        2973.25           1539         486.00      2117.83
  686.34        2973.50           1542         199.00       866.63
  686.37        2973.75           1546         156.00       679.18
  686.40        2974.00           1549         139.00       605.07
  686.43        2974.25           1552         135.00       587.63
  686.46        2974.50           1556         132.00       574.55
  686.49        2974.75           1559         136.00       591.99
  686.53        2975.00           1562         116.00       504.80
  686.56        2975.25           1566         110.00       478.65
  686.59        2975.50           1569         109.00       474.29
  686.61        2975.75           1572         115.00       500.44
  686.64        2976.00           1576         116.00       504.80
  686.67        2976.25           1579         119.00       517.88
  686.70        2976.50           1582         101.00       439.41
  686.72        2976.75           1586          99.00       430.69
  686.75        2977.00           1589         118.00       513.52
  686.78        2977.25           1592         101.00       439.41
  686.81        2977.50           1596         116.00       504.80
  686.83        2977.75           1599         105.00       456.85
  686.86        2978.00           1602         110.00       478.65
  686.89        2978.25           1606         105.00       456.85
  686.92        2978.50           1609         100.00       435.05
  686.94        2978.75           1612         115.00       500.44
  686.97        2979.00           1616         104.00       452.49
  687.00        2979.25           1619         106.00       461.21
  687.03        2979.50           1623         112.00       487.37
  687.05        2979.75           1626          93.00       404.54
  687.08        2980.00           1629         104.00       452.49
  687.11        2980.25           1633         104.00       452.49
  687.14        2980.50           1636          96.00       417.62
  687.17        2980.75           1639         105.00       456.85
  687.19        2981.00           1643         100.00       435.05
  687.22        2981.25           1646          89.00       387.10
  687.25        2981.50           1649         107.00       465.57
  687.28        2981.75           1653         103.00       448.13
  687.31        2982.00           1656          98.00       426.34
  687.33        2982.25           1659         113.00       491.72
  687.36        2982.50           1663         113.00       491.72
  687.39        2982.75           1666         114.00       496.08
  687.42        2983.00           1669         105.00       456.85
  687.44        2983.25           1673          95.00       413.26
  687.47        2983.50           1676         105.00       456.85
  687.50        2983.75           1679         107.00       465.57
  687.53        2984.00           1683         101.00       439.41
HS scan finished at 11:27:50
end
************************************************************
  HS Scan of (1) Internal mercury lamp
************************************************************
Integration time is 0.2294 seconds per sample
dh020517De Bilt 52.1-5.183 2.643241pr1000
************************************************************
Dead Time -------------------------  3E-08 
Number of Cycles Used -------------  4 
Starting Wavelength (Angstroms) ---  2950 
Final Wavelength (Angstoms) -------  2984 
Wavelength Increment (Angstroms) --  .25 
Filter Wheel #1 Position ---------- (1) Ground quartz diffuser (ND=2.32)
Filter Wheel #2 Position ---------- (1) Neutral Density 0.494



************************************************************
HS scan start time = 20:03:45
Dark Count =  0 


Time (GMT)  Wavelength (Ang)  Step Number  Raw Counts  Counts/Second

 1204.20        2950.00           1229         138.00       601.58
 1204.30        2950.25           1232         126.00       549.27
 1204.33        2950.50           1236         125.00       544.91
 1204.36        2950.75           1239         134.00       584.14
 1204.38        2951.00           1242         126.00       549.27
 1204.41        2951.25           1246         127.00       553.63
 1204.44        2951.50           1249         128.00       557.99
 1204.47        2951.75           1252         123.00       536.19
 1204.49        2952.00           1255         125.00       544.91
 1204.52        2952.25           1259         120.00       523.11
 1204.55        2952.50           1262         133.00       579.78
 1204.58        2952.75           1265         131.00       571.06
 1204.61        2953.00           1269         114.00       496.96
 1204.63        2953.25           1272         137.00       597.22
 1204.66        2953.50           1275         123.00       536.19
 1204.70        2953.75           1279         120.00       523.11
 1204.73        2954.00           1282         125.00       544.91
 1204.76        2954.25           1285         117.00       510.03
 1204.78        2954.50           1289         129.00       562.35
 1204.81        2954.75           1292         130.00       566.71
 1204.84        2955.00           1295         129.00       562.35
 1204.87        2955.25           1299         123.00       536.19
 1204.89        2955.50           1302         125.00       544.91
 1204.92        2955.75           1305         126.00       549.27
 1204.95        2956.00           1309         110.00       479.52
 1204.98        2956.25           1312         124.00       540.55
 1205.01        2956.50           1315         123.00       536.19
 1205.03        2956.75           1319         111.00       483.88
 1205.06        2957.00           1322         124.00       540.55
 1205.09        2957.25           1325         126.00       549.27
 1205.12        2957.50           1329         123.00       536.19
 1205.14        2957.75           1332         114.00       496.96
 1205.17        2958.00           1335         124.00       540.55
 1205.21        2958.25           1339         135.00       588.50
 1205.24        2958.50           1342         131.00       571.06
 1205.27        2958.75           1345         124.00       540.55
 1205.29        2959.00           1349         119.00       518.75
 1205.32        2959.25           1352         114.00       496.96
 1205.35        2959.50           1355         128.00       557.99
 1205.38        2959.75           1359         124.00       540.55
 1205.40        2960.00           1362         134.00       584.14
 1205.43        2960.25           1365         125.00       544.91
 1205.46        2960.50           1369         139.00       605.94
 1205.49        2960.75           1372         146.00       636.46
 1205.52        2961.00           1375         144.00       627.74
 1205.54        2961.25           1379         162.00       706.21
 1205.57        2961.50           1382         279.00      1216.26
 1205.60        2961.75           1385         889.00      3875.78
 1205.63        2962.00           1389        2705.00     11795.81
 1205.65        2962.25           1392        4786.00     20876.19
 1205.68        2962.50           1395        7176.00     31311.00
 1205.71        2962.75           1399       10541.00     46013.78
 1205.74        2963.00           1402       13195.00     57619.14
 1205.76        2963.25           1405       15626.00     68256.46
 1205.79        2963.50           1409       19480.00     85134.34
 1205.82        2963.75           1412       22483.00     98297.30
 1205.85        2964.00           1415       24918.00    108978.20
 1205.87        2964.25           1419       28985.00    126833.00
 1205.90        2964.50           1422       31418.00    137523.50
 1205.93        2964.75           1425       33950.00    148656.30
 1205.96        2965.00           1429       37604.00    164735.40
 1205.99        2965.25           1432       40438.00    177216.90
 1206.01        2965.50           1435       42820.00    187715.00
 1206.04        2965.75           1439       46468.00    203805.50
 1206.07        2966.00           1442       48330.00    212024.40
 1206.10        2966.25           1445       51071.00    224130.60
 1206.12        2966.50           1449       53448.00    234636.20
 1206.15        2966.75           1452       55061.00    241769.00
 1206.18        2967.00           1455       55584.00    244082.40
 1206.21        2967.25           1459       55692.00    244560.20
 1206.24        2967.50           1462       55311.00    242874.80
 1206.26        2967.75           1465       55408.00    243303.90
 1206.29        2968.00           1469       54314.00    238465.40
 1206.32        2968.25           1472       52632.00    231029.00
 1206.35        2968.50           1475       50830.00    223065.80
 1206.37        2968.75           1479       47674.00    209128.30
 1206.40        2969.00           1482       45366.00    198943.20
 1206.44        2969.25           1485       43091.00    188909.80
 1206.46        2969.50           1489       39544.00    173278.60
 1206.49        2969.75           1492       36659.00    160575.50
 1206.52        2970.00           1495       33672.00    147433.60
 1206.55        2970.25           1499       30230.00    132302.60
 1206.57        2970.50           1502       27621.00    120842.70
 1206.60        2970.75           1505       25078.00    109680.30
 1206.63        2971.00           1509       21427.00     93667.38
 1206.66        2971.25           1512       18680.00     81629.48
 1206.68        2971.50           1515       16836.00     73553.59
 1206.71        2971.75           1519       13867.00     60558.92
 1206.74        2972.00           1522       11345.00     49528.64
 1206.77        2972.25           1525        8776.00     38300.30
 1206.80        2972.50           1529        4850.00     21155.54
 1206.83        2972.75           1532        2434.00     10613.67
 1206.86        2973.00           1536         898.00      3915.02
 1206.88        2973.25           1539         344.00      1499.63
 1206.91        2973.50           1542         176.00       767.24
 1206.94        2973.75           1546         141.00       614.66
 1206.97        2974.00           1549         140.00       610.30
 1207.00        2974.25           1552         141.00       614.66
 1207.02        2974.50           1556         127.00       553.63
 1207.05        2974.75           1559         117.00       510.03
 1207.08        2975.00           1562         124.00       540.55
 1207.11        2975.25           1566         114.00       496.96
 1207.13        2975.50           1569         117.00       510.03
 1207.16        2975.75           1572         117.00       510.03
 1207.19        2976.00           1576         109.00       475.16
 1207.22        2976.25           1579         113.00       492.60
 1207.25        2976.50           1582         105.00       457.72
 1207.27        2976.75           1586         112.00       488.24
 1207.30        2977.00           1589         106.00       462.08
 1207.33        2977.25           1592         114.00       496.96
 1207.36        2977.50           1596         105.00       457.72
 1207.38        2977.75           1599         114.00       496.96
 1207.41        2978.00           1602         122.00       531.83
 1207.44        2978.25           1606         101.00       440.28
 1207.47        2978.50           1609         117.00       510.03
 1207.49        2978.75           1612         106.00       462.08
 1207.52        2979.00           1616         104.00       453.36
 1207.55        2979.25           1619         117.00       510.03
 1207.58        2979.50           1623         109.00       475.16
 1207.60        2979.75           1626         107.00       466.44
 1207.63        2980.00           1629         113.00       492.60
 1207.66        2980.25           1633         109.00       475.16
 1207.69        2980.50           1636         111.00       483.88
 1207.72        2980.75           1639         101.00       440.28
 1207.75        2981.00           1643         113.00       492.60
 1207.77        2981.25           1646         103.00       449.00
 1207.80        2981.50           1649         107.00       466.44
 1207.83        2981.75           1653         106.00       462.08
 1207.86        2982.00           1656         101.00       440.28
 1207.88        2982.25           1659         101.00       440.28
 1207.91        2982.50           1663         104.00       453.36
 1207.94        2982.75           1666         108.00       470.80
 1207.97        2983.00           1669         102.00       444.64
 1208.00        2983.25           1673         108.00       470.80
 1208.02        2983.50           1676          97.00       422.85
 1208.05        2983.75           1679          99.00       431.57
 1208.08        2984.00           1683          97.00       422.85
HS scan finished at 20:08:23
end
