************************************************************
  HS Scan of (1) Internal mercury lamp
************************************************************
Integration time is 0.2294 seconds per sample
dh050517De Bilt 52.1-5.183 2.375pr1000
************************************************************
Dead Time -------------------------  3E-08 
Number of Cycles Used -------------  4 
Starting Wavelength (Angstroms) ---  2950 
Final Wavelength (Angstoms) -------  2984 
Wavelength Increment (Angstroms) --  .25 
Filter Wheel #1 Position ---------- (1) Ground quartz diffuser (ND=2.32)
Filter Wheel #2 Position ---------- (1) Neutral Density 0.494



************************************************************
HS scan start time = 00:14:35
Dark Count =  0 


Time (GMT)  Wavelength (Ang)  Step Number  Raw Counts  Counts/Second

   15.02        2950.00           1229         144.00       627.74
   15.12        2950.25           1232         137.00       597.22
   15.15        2950.50           1236         125.00       544.91
   15.18        2950.75           1239         132.00       575.42
   15.21        2951.00           1242         129.00       562.35
   15.23        2951.25           1246         132.00       575.42
   15.26        2951.50           1249         127.00       553.63
   15.29        2951.75           1252         147.00       640.81
   15.32        2952.00           1255         135.00       588.50
   15.35        2952.25           1259         128.00       557.99
   15.38        2952.50           1262         128.00       557.99
   15.41        2952.75           1265         132.00       575.42
   15.43        2953.00           1269         131.00       571.06
   15.46        2953.25           1272         136.00       592.86
   15.49        2953.50           1275         129.00       562.35
   15.52        2953.75           1279         134.00       584.14
   15.55        2954.00           1282         132.00       575.42
   15.59        2954.25           1285         135.00       588.50
   15.62        2954.50           1289         128.00       557.99
   15.64        2954.75           1292         118.00       514.39
   15.67        2955.00           1295         126.00       549.27
   15.70        2955.25           1299         124.00       540.55
   15.73        2955.50           1302         113.00       492.60
   15.75        2955.75           1305         132.00       575.42
   15.78        2956.00           1309         123.00       536.19
   15.81        2956.25           1312         129.00       562.35
   15.84        2956.50           1315         120.00       523.11
   15.87        2956.75           1319         121.00       527.47
   15.89        2957.00           1322         129.00       562.35
   15.92        2957.25           1325         127.00       553.63
   15.95        2957.50           1329         119.00       518.75
   15.98        2957.75           1332         131.00       571.06
   16.01        2958.00           1335         124.00       540.55
   16.03        2958.25           1339         124.00       540.55
   16.06        2958.50           1342         127.00       553.63
   16.09        2958.75           1345         132.00       575.42
   16.12        2959.00           1349         125.00       544.91
   16.14        2959.25           1352         122.00       531.83
   16.17        2959.50           1355         134.00       584.14
   16.20        2959.75           1359         132.00       575.42
   16.23        2960.00           1362         126.00       549.27
   16.25        2960.25           1365         131.00       571.06
   16.28        2960.50           1369         127.00       553.63
   16.32        2960.75           1372         140.00       610.30
   16.34        2961.00           1375         141.00       614.66
   16.37        2961.25           1379         175.00       762.88
   16.40        2961.50           1382         208.00       906.74
   16.43        2961.75           1385         688.00      2999.40
   16.45        2962.00           1389        2457.00     10713.99
   16.48        2962.25           1392        4484.00     19558.12
   16.51        2962.50           1395        6347.00     27690.83
   16.54        2962.75           1399        8903.00     38855.21
   16.56        2963.00           1402       11756.00     51325.70
   16.59        2963.25           1405       14257.00     62265.29
   16.62        2963.50           1409       17600.00     76899.09
   16.65        2963.75           1412       20041.00     87592.56
   16.67        2964.00           1415       22078.00     96521.47
   16.70        2964.25           1419       25244.00    110408.70
   16.73        2964.50           1422       27801.00    121633.10
   16.76        2964.75           1425       30070.00    131599.60
   16.79        2965.00           1429       33329.00    145925.10
   16.81        2965.25           1432       35990.00    157631.20
   16.84        2965.50           1435       38316.00    167870.30
   16.87        2965.75           1439       41503.00    181909.80
   16.90        2966.00           1442       43769.00    191899.30
   16.93        2966.25           1445       45977.00    201638.90
   16.96        2966.50           1449       48322.00    211989.10
   16.99        2966.75           1452       49242.00    216051.50
   17.02        2967.00           1455       49636.00    217791.50
   17.05        2967.25           1459       49639.00    217804.80
   17.08        2967.50           1462       49721.00    218167.00
   17.10        2967.75           1465       49649.00    217849.00
   17.13        2968.00           1469       48328.00    212015.60
   17.16        2968.25           1472       46921.00    205804.70
   17.19        2968.50           1475       45105.00    197791.80
   17.21        2968.75           1479       41969.00    183963.70
   17.24        2969.00           1482       40082.00    175648.50
   17.27        2969.25           1485       37666.00    165008.40
   17.30        2969.50           1489       35085.00    153649.10
   17.33        2969.75           1492       33020.00    144566.40
   17.35        2970.00           1495       30974.00    135572.10
   17.38        2970.25           1499       27463.00    120149.00
   17.41        2970.50           1502       24794.00    108434.10
   17.44        2970.75           1505       22361.00     97762.33
   17.46        2971.00           1509       19096.00     83451.91
   17.49        2971.25           1512       16901.00     73838.19
   17.52        2971.50           1515       14703.00     64216.89
   17.55        2971.75           1519       11792.00     51483.12
   17.58        2972.00           1522        9525.00     41573.18
   17.60        2972.25           1525        7550.00     32944.49
   17.63        2972.50           1529        5030.00     21941.21
   17.66        2972.75           1532        2858.00     12463.25
   17.69        2973.00           1536        1009.00      4399.01
   17.71        2973.25           1539         350.00      1525.79
   17.74        2973.50           1542         175.00       762.88
   17.77        2973.75           1546         143.00       623.38
   17.80        2974.00           1549         140.00       610.30
   17.82        2974.25           1552         135.00       588.50
   17.85        2974.50           1556         119.00       518.75
   17.88        2974.75           1559         124.00       540.55
   17.91        2975.00           1562         116.00       505.67
   17.93        2975.25           1566         112.00       488.24
   17.96        2975.50           1569         116.00       505.67
   17.99        2975.75           1572         128.00       557.99
   18.02        2976.00           1576         102.00       444.64
   18.04        2976.25           1579         104.00       453.36
   18.07        2976.50           1582         106.00       462.08
   18.10        2976.75           1586         112.00       488.24
   18.13        2977.00           1589         112.00       488.24
   18.16        2977.25           1592         112.00       488.24
   18.18        2977.50           1596         124.00       540.55
   18.21        2977.75           1599         105.00       457.72
   18.24        2978.00           1602         118.00       514.39
   18.27        2978.25           1606         115.00       501.32
   18.30        2978.50           1609         118.00       514.39
   18.33        2978.75           1612         108.00       470.80
   18.35        2979.00           1616         107.00       466.44
   18.38        2979.25           1619         114.00       496.96
   18.41        2979.50           1623         112.00       488.24
   18.44        2979.75           1626         115.00       501.32
   18.47        2980.00           1629         114.00       496.96
   18.49        2980.25           1633          95.00       414.13
   18.52        2980.50           1636         110.00       479.52
   18.55        2980.75           1639         102.00       444.64
   18.58        2981.00           1643         100.00       435.93
   18.60        2981.25           1646         108.00       470.80
   18.63        2981.50           1649         103.00       449.00
   18.66        2981.75           1653          93.00       405.41
   18.69        2982.00           1656         112.00       488.24
   18.72        2982.25           1659         111.00       483.88
   18.75        2982.50           1663         107.00       466.44
   18.77        2982.75           1666         106.00       462.08
   18.80        2983.00           1669         105.00       457.72
   18.83        2983.25           1673         109.00       475.16
   18.86        2983.50           1676         102.00       444.64
   18.89        2983.75           1679         103.00       449.00
   18.91        2984.00           1683         109.00       475.16
HS scan finished at 00:19:13
end
************************************************************
  HS Scan of (1) Internal mercury lamp
************************************************************
Integration time is 0.2294 seconds per sample
dh050517De Bilt 52.1-5.183 2.428648pr1000
************************************************************
Dead Time -------------------------  3E-08 
Number of Cycles Used -------------  4 
Starting Wavelength (Angstroms) ---  2950 
Final Wavelength (Angstoms) -------  2984 
Wavelength Increment (Angstroms) --  .25 
Filter Wheel #1 Position ---------- (1) Ground quartz diffuser (ND=2.32)
Filter Wheel #2 Position ---------- (1) Neutral Density 0.494



************************************************************
HS scan start time = 01:04:44
Dark Count =  0 


Time (GMT)  Wavelength (Ang)  Step Number  Raw Counts  Counts/Second

   65.19        2950.00           1229         132.00       575.42
   65.29        2950.25           1232         131.00       571.06
   65.32        2950.50           1236         140.00       610.30
   65.34        2950.75           1239         128.00       557.99
   65.37        2951.00           1242         134.00       584.14
   65.40        2951.25           1246         122.00       531.83
   65.43        2951.50           1249         124.00       540.55
   65.46        2951.75           1252         135.00       588.50
   65.49        2952.00           1255         138.00       601.58
   65.51        2952.25           1259         132.00       575.42
   65.54        2952.50           1262         131.00       571.06
   65.57        2952.75           1265         128.00       557.99
   65.60        2953.00           1269         128.00       557.99
   65.63        2953.25           1272         132.00       575.42
   65.65        2953.50           1275         125.00       544.91
   65.68        2953.75           1279         131.00       571.06
   65.71        2954.00           1282         121.00       527.47
   65.74        2954.25           1285         136.00       592.86
   65.77        2954.50           1289         120.00       523.11
   65.80        2954.75           1292         125.00       544.91
   65.82        2955.00           1295         125.00       544.91
   65.85        2955.25           1299         138.00       601.58
   65.88        2955.50           1302         131.00       571.06
   65.91        2955.75           1305         129.00       562.35
   65.94        2956.00           1309         128.00       557.99
   65.96        2956.25           1312         124.00       540.55
   65.99        2956.50           1315         135.00       588.50
   66.02        2956.75           1319         130.00       566.71
   66.05        2957.00           1322         120.00       523.11
   66.08        2957.25           1325         121.00       527.47
   66.10        2957.50           1329         137.00       597.22
   66.13        2957.75           1332         119.00       518.75
   66.16        2958.00           1335         125.00       544.91
   66.19        2958.25           1339         127.00       553.63
   66.22        2958.50           1342         130.00       566.71
   66.25        2958.75           1345         126.00       549.27
   66.28        2959.00           1349         123.00       536.19
   66.30        2959.25           1352         124.00       540.55
   66.33        2959.50           1355         125.00       544.91
   66.36        2959.75           1359         129.00       562.35
   66.39        2960.00           1362         136.00       592.86
   66.41        2960.25           1365         125.00       544.91
   66.44        2960.50           1369         134.00       584.14
   66.47        2960.75           1372         147.00       640.81
   66.50        2961.00           1375         149.00       649.53
   66.52        2961.25           1379         171.00       745.44
   66.55        2961.50           1382         276.00      1203.18
   66.58        2961.75           1385         936.00      4080.71
   66.61        2962.00           1389        2540.00     11076.04
   66.63        2962.25           1392        4464.00     19470.83
   66.66        2962.50           1395        6682.00     29153.65
   66.69        2962.75           1399        9893.00     43181.45
   66.72        2963.00           1402       12779.00     55799.52
   66.75        2963.25           1405       15461.00     67534.25
   66.77        2963.50           1409       18393.00     80372.29
   66.80        2963.75           1412       21057.00     92045.46
   66.83        2964.00           1415       23904.00    104529.60
   66.86        2964.25           1419       26915.00    117743.00
   66.89        2964.50           1422       29870.00    130720.90
   66.92        2964.75           1425       32514.00    142341.50
   66.95        2965.00           1429       35878.00    157138.40
   66.97        2965.25           1432       38246.00    167562.10
   67.00        2965.50           1435       40603.00    177943.90
   67.03        2965.75           1439       43879.00    192384.40
   67.06        2966.00           1442       46260.00    202887.70
   67.08        2966.25           1445       48165.00    211295.90
   67.11        2966.50           1449       50735.00    222646.10
   67.14        2966.75           1452       52022.00    228333.00
   67.17        2967.00           1455       52441.00    230184.80
   67.20        2967.25           1459       52422.00    230100.80
   67.22        2967.50           1462       52674.00    231214.70
   67.25        2967.75           1465       52188.00    229066.60
   67.29        2968.00           1469       51011.00    223865.50
   67.32        2968.25           1472       49746.00    218277.40
   67.35        2968.50           1475       47643.00    208991.50
   67.37        2968.75           1479       44586.00    195502.50
   67.40        2969.00           1482       42564.00    186586.40
   67.43        2969.25           1485       40158.00    175983.30
   67.46        2969.50           1489       37088.00    162463.90
   67.49        2969.75           1492       34549.00    151291.10
   67.52        2970.00           1495       32119.00    140604.90
   67.55        2970.25           1499       28392.00    124228.50
   67.57        2970.50           1502       25923.00    113388.60
   67.60        2970.75           1505       23506.00    102783.80
   67.63        2971.00           1509       20411.00     89214.06
   67.66        2971.25           1512       17630.00     77030.47
   67.68        2971.50           1515       15246.00     66593.24
   67.71        2971.75           1519       12923.00     56429.37
   67.74        2972.00           1522       10591.00     46232.35
   67.77        2972.25           1525        8178.00     35687.71
   67.81        2972.50           1529        4871.00     21247.19
   67.84        2972.75           1532        2355.00     10269.07
   67.86        2973.00           1536         746.00      3252.28
   67.89        2973.25           1539         318.00      1386.28
   67.92        2973.50           1542         185.00       806.47
   67.95        2973.75           1546         144.00       627.74
   67.97        2974.00           1549         144.00       627.74
   68.00        2974.25           1552         141.00       614.66
   68.03        2974.50           1556         124.00       540.55
   68.06        2974.75           1559         112.00       488.24
   68.09        2975.00           1562         116.00       505.67
   68.11        2975.25           1566         104.00       453.36
   68.14        2975.50           1569         114.00       496.96
   68.17        2975.75           1572         112.00       488.24
   68.20        2976.00           1576         115.00       501.32
   68.22        2976.25           1579         118.00       514.39
   68.25        2976.50           1582         116.00       505.67
   68.28        2976.75           1586         101.00       440.28
   68.31        2977.00           1589         117.00       510.03
   68.34        2977.25           1592         116.00       505.67
   68.37        2977.50           1596         111.00       483.88
   68.40        2977.75           1599         108.00       470.80
   68.42        2978.00           1602         118.00       514.39
   68.46        2978.25           1606         109.00       475.16
   68.49        2978.50           1609         109.00       475.16
   68.52        2978.75           1612         105.00       457.72
   68.55        2979.00           1616         110.00       479.52
   68.58        2979.25           1619         104.00       453.36
   68.61        2979.50           1623         124.00       540.55
   68.63        2979.75           1626         103.00       449.00
   68.66        2980.00           1629         114.00       496.96
   68.69        2980.25           1633         104.00       453.36
   68.72        2980.50           1636         115.00       501.32
   68.75        2980.75           1639         100.00       435.93
   68.78        2981.00           1643         115.00       501.32
   68.80        2981.25           1646         111.00       483.88
   68.83        2981.50           1649         112.00       488.24
   68.86        2981.75           1653         114.00       496.96
   68.89        2982.00           1656         116.00       505.67
   68.91        2982.25           1659         106.00       462.08
   68.94        2982.50           1663         106.00       462.08
   68.97        2982.75           1666         111.00       483.88
   69.00        2983.00           1669          91.00       396.69
   69.03        2983.25           1673         106.00       462.08
   69.06        2983.50           1676         111.00       483.88
   69.09        2983.75           1679         102.00       444.64
   69.11        2984.00           1683         112.00       488.24
HS scan finished at 01:09:25
end
************************************************************
  HS Scan of (1) Internal mercury lamp
************************************************************
Integration time is 0.2294 seconds per sample
dh050517De Bilt 52.1-5.183 2.482296pr1000
************************************************************
Dead Time -------------------------  3E-08 
Number of Cycles Used -------------  4 
Starting Wavelength (Angstroms) ---  2950 
Final Wavelength (Angstoms) -------  2984 
Wavelength Increment (Angstroms) --  .25 
Filter Wheel #1 Position ---------- (1) Ground quartz diffuser (ND=2.32)
Filter Wheel #2 Position ---------- (1) Neutral Density 0.494



************************************************************
HS scan start time = 01:31:09
Dark Count =  .1 


Time (GMT)  Wavelength (Ang)  Step Number  Raw Counts  Counts/Second

   91.60        2950.00           1229         127.00       553.19
   91.70        2950.25           1232         137.00       596.78
   91.73        2950.50           1236         120.00       522.68
   91.75        2950.75           1239         122.00       531.39
   91.78        2951.00           1242         119.00       518.32
   91.81        2951.25           1246         129.00       561.91
   91.84        2951.50           1249         123.00       535.75
   91.87        2951.75           1252         120.00       522.68
   91.89        2952.00           1255         129.00       561.91
   91.92        2952.25           1259         131.00       570.63
   91.95        2952.50           1262         118.00       513.96
   91.98        2952.75           1265         131.00       570.63
   92.00        2953.00           1269         120.00       522.68
   92.03        2953.25           1272         119.00       518.32
   92.06        2953.50           1275         119.00       518.32
   92.09        2953.75           1279         121.00       527.04
   92.11        2954.00           1282         125.00       544.47
   92.14        2954.25           1285         109.00       474.72
   92.17        2954.50           1289         122.00       531.39
   92.20        2954.75           1292         132.00       574.99
   92.23        2955.00           1295         125.00       544.47
   92.25        2955.25           1299         120.00       522.68
   92.28        2955.50           1302         129.00       561.91
   92.31        2955.75           1305         120.00       522.68
   92.34        2956.00           1309         122.00       531.39
   92.37        2956.25           1312         127.00       553.19
   92.40        2956.50           1315         121.00       527.04
   92.43        2956.75           1319         124.00       540.11
   92.45        2957.00           1322         121.00       527.04
   92.48        2957.25           1325         128.00       557.55
   92.51        2957.50           1329         120.00       522.68
   92.54        2957.75           1332         115.00       500.88
   92.57        2958.00           1335         108.00       470.36
   92.60        2958.25           1339         123.00       535.75
   92.62        2958.50           1342         114.00       496.52
   92.65        2958.75           1345         119.00       518.32
   92.68        2959.00           1349         120.00       522.68
   92.71        2959.25           1352         118.00       513.96
   92.74        2959.50           1355         113.00       492.16
   92.76        2959.75           1359         121.00       527.04
   92.79        2960.00           1362         114.00       496.52
   92.82        2960.25           1365         115.00       500.88
   92.85        2960.50           1369         138.00       601.14
   92.87        2960.75           1372         143.00       622.94
   92.90        2961.00           1375         142.00       618.58
   92.93        2961.25           1379         142.00       618.58
   92.96        2961.50           1382         239.00      1041.44
   92.99        2961.75           1385         749.00      3264.92
   93.02        2962.00           1389        2263.00      9867.35
   93.05        2962.25           1392        3908.00     17044.02
   93.07        2962.50           1395        5396.00     23538.42
   93.10        2962.75           1399        7879.00     34381.13
   93.13        2963.00           1402       10081.00     44002.69
   93.16        2963.25           1405       12084.00     52759.56
   93.19        2963.50           1409       15055.00     65756.88
   93.21        2963.75           1412       17313.00     75641.82
   93.24        2964.00           1415       19299.00     84340.86
   93.27        2964.25           1419       21981.00     96095.72
   93.30        2964.50           1422       23812.00    104125.60
   93.32        2964.75           1425       25703.00    112422.60
   93.35        2965.00           1429       28315.00    123889.90
   93.38        2965.25           1432       29930.00    130984.10
   93.41        2965.50           1435       31784.00    139131.80
   93.44        2965.75           1439       34130.00    149447.50
   93.47        2966.00           1442       35984.00    157604.40
   93.50        2966.25           1445       38252.00    167588.10
   93.52        2966.50           1449       40205.00    176189.90
   93.55        2966.75           1452       41043.00    179882.20
   93.58        2967.00           1455       41612.00    182389.80
   93.61        2967.25           1459       41542.00    182081.30
   93.64        2967.50           1462       41528.00    182019.60
   93.67        2967.75           1465       41611.00    182385.40
   93.70        2968.00           1469       40685.00    178304.80
   93.73        2968.25           1472       39462.00    172916.90
   93.76        2968.50           1475       38187.00    167301.90
   93.78        2968.75           1479       35725.00    156464.60
   93.81        2969.00           1482       33929.00    148563.40
   93.84        2969.25           1485       31554.00    138120.80
   93.87        2969.50           1489       28963.00    126736.00
   93.89        2969.75           1492       26972.00    117992.80
   93.92        2970.00           1495       25381.00    111009.50
   93.95        2970.25           1499       22483.00     98296.86
   93.98        2970.50           1502       20516.00     89673.80
   94.01        2970.75           1505       18805.00     82176.63
   94.03        2971.00           1509       16436.00     71801.85
   94.06        2971.25           1512       14270.00     62321.73
   94.09        2971.50           1515       12490.00     54535.10
   94.12        2971.75           1519        9802.00     42783.31
   94.15        2972.00           1522        7710.00     33642.92
   94.17        2972.25           1525        5854.00     25537.87
   94.20        2972.50           1529        3540.00     15438.27
   94.23        2972.75           1532        1891.00      8244.85
   94.26        2973.00           1536         603.00      2628.37
   94.28        2973.25           1539         259.00      1128.63
   94.31        2973.50           1542         157.00       683.97
   94.34        2973.75           1546         141.00       614.22
   94.37        2974.00           1549         135.00       588.07
   94.39        2974.25           1552         120.00       522.68
   94.42        2974.50           1556         110.00       479.08
   94.45        2974.75           1559         105.00       457.29
   94.48        2975.00           1562         104.00       452.93
   94.50        2975.25           1566         116.00       505.24
   94.54        2975.50           1569         117.00       509.60
   94.57        2975.75           1572         114.00       496.52
   94.59        2976.00           1576         106.00       461.65
   94.62        2976.25           1579         108.00       470.36
   94.65        2976.50           1582         112.00       487.80
   94.68        2976.75           1586         113.00       492.16
   94.70        2977.00           1589         104.00       452.93
   94.73        2977.25           1592         104.00       452.93
   94.76        2977.50           1596         103.00       448.57
   94.79        2977.75           1599          99.00       431.13
   94.81        2978.00           1602         104.00       452.93
   94.84        2978.25           1606         115.00       500.88
   94.87        2978.50           1609          96.00       418.05
   94.90        2978.75           1612          98.00       426.77
   94.92        2979.00           1616         103.00       448.57
   94.95        2979.25           1619         102.00       444.21
   94.98        2979.50           1623         100.00       435.49
   95.01        2979.75           1626         102.00       444.21
   95.04        2980.00           1629         105.00       457.29
   95.06        2980.25           1633         107.00       466.00
   95.09        2980.50           1636         110.00       479.08
   95.12        2980.75           1639         108.00       470.36
   95.15        2981.00           1643         107.00       466.00
   95.17        2981.25           1646         100.00       435.49
   95.20        2981.50           1649         107.00       466.00
   95.23        2981.75           1653         102.00       444.21
   95.26        2982.00           1656         109.00       474.72
   95.29        2982.25           1659         102.00       444.21
   95.31        2982.50           1663          98.00       426.77
   95.34        2982.75           1666          93.00       404.97
   95.37        2983.00           1669          97.00       422.41
   95.40        2983.25           1673         100.00       435.49
   95.43        2983.50           1676          91.00       396.26
   95.46        2983.75           1679         101.00       439.85
   95.48        2984.00           1683         103.00       448.57
HS scan finished at 01:35:47
end
************************************************************
  HS Scan of (1) Internal mercury lamp
************************************************************
Integration time is 0.2294 seconds per sample
dh050517De Bilt 52.1-5.183 2.589593pr1000
************************************************************
Dead Time -------------------------  3E-08 
Number of Cycles Used -------------  4 
Starting Wavelength (Angstroms) ---  2950 
Final Wavelength (Angstoms) -------  2984 
Wavelength Increment (Angstroms) --  .25 
Filter Wheel #1 Position ---------- (1) Ground quartz diffuser (ND=2.32)
Filter Wheel #2 Position ---------- (1) Neutral Density 0.494



************************************************************
HS scan start time = 20:06:58
Dark Count =  .1 


Time (GMT)  Wavelength (Ang)  Step Number  Raw Counts  Counts/Second

 1207.42        2950.00           1229         138.00       601.14
 1207.52        2950.25           1232         129.00       561.91
 1207.55        2950.50           1236         122.00       531.39
 1207.58        2950.75           1239         127.00       553.19
 1207.60        2951.00           1242         132.00       574.99
 1207.63        2951.25           1246         129.00       561.91
 1207.66        2951.50           1249         125.00       544.47
 1207.69        2951.75           1252         133.00       579.35
 1207.71        2952.00           1255         117.00       509.60
 1207.74        2952.25           1259         127.00       553.19
 1207.77        2952.50           1262         124.00       540.11
 1207.80        2952.75           1265         127.00       553.19
 1207.83        2953.00           1269         117.00       509.60
 1207.86        2953.25           1272         128.00       557.55
 1207.89        2953.50           1275         122.00       531.39
 1207.91        2953.75           1279         136.00       592.43
 1207.94        2954.00           1282         138.00       601.14
 1207.97        2954.25           1285         124.00       540.11
 1208.00        2954.50           1289         131.00       570.63
 1208.02        2954.75           1292         127.00       553.19
 1208.05        2955.00           1295         117.00       509.60
 1208.08        2955.25           1299         128.00       557.55
 1208.11        2955.50           1302         121.00       527.04
 1208.14        2955.75           1305         130.00       566.27
 1208.16        2956.00           1309         118.00       513.96
 1208.19        2956.25           1312         125.00       544.47
 1208.22        2956.50           1315         127.00       553.19
 1208.25        2956.75           1319         121.00       527.04
 1208.28        2957.00           1322         133.00       579.35
 1208.31        2957.25           1325         124.00       540.11
 1208.33        2957.50           1329         122.00       531.39
 1208.36        2957.75           1332         126.00       548.83
 1208.39        2958.00           1335         121.00       527.04
 1208.42        2958.25           1339         124.00       540.11
 1208.44        2958.50           1342         122.00       531.39
 1208.47        2958.75           1345         125.00       544.47
 1208.50        2959.00           1349         115.00       500.88
 1208.53        2959.25           1352         116.00       505.24
 1208.55        2959.50           1355         123.00       535.75
 1208.58        2959.75           1359         132.00       574.99
 1208.61        2960.00           1362         127.00       553.19
 1208.64        2960.25           1365         140.00       609.86
 1208.66        2960.50           1369         142.00       618.58
 1208.69        2960.75           1372         137.00       596.78
 1208.72        2961.00           1375         153.00       666.53
 1208.75        2961.25           1379         160.00       697.05
 1208.78        2961.50           1382         229.00       997.85
 1208.80        2961.75           1385         599.00      2610.93
 1208.83        2962.00           1389        2047.00      8925.23
 1208.86        2962.25           1392        3838.00     16738.57
 1208.88        2962.50           1395        5955.00     25978.83
 1208.91        2962.75           1399        9706.00     42363.75
 1208.94        2963.00           1402       12378.00     54045.28
 1208.97        2963.25           1405       14694.00     64177.07
 1209.00        2963.50           1409       18056.00     78895.76
 1209.02        2963.75           1412       20970.00     91663.68
 1209.05        2964.00           1415       23895.00    104489.60
 1209.08        2964.25           1419       27225.00    119103.60
 1209.11        2964.50           1422       29814.00    130474.40
 1209.13        2964.75           1425       31739.00    138934.00
 1209.16        2965.00           1429       35405.00    155056.60
 1209.19        2965.25           1432       38413.00    168297.00
 1209.22        2965.50           1435       40700.00    178370.90
 1209.24        2965.75           1439       44680.00    195916.70
 1209.27        2966.00           1442       47204.00    207053.30
 1209.30        2966.25           1445       49579.00    217539.30
 1209.33        2966.50           1449       52530.00    230577.70
 1209.36        2966.75           1452       53684.00    235679.20
 1209.38        2967.00           1455       53989.00    237027.80
 1209.41        2967.25           1459       54359.00    238663.90
 1209.44        2967.50           1462       54276.00    238296.90
 1209.47        2967.75           1465       54082.00    237439.00
 1209.49        2968.00           1469       53503.00    234879.00
 1209.52        2968.25           1472       51787.00    227294.00
 1209.55        2968.50           1475       49226.00    215980.40
 1209.58        2968.75           1479       46210.00    202666.60
 1209.61        2969.00           1482       43989.00    192869.10
 1209.63        2969.25           1485       41346.00    181217.50
 1209.66        2969.50           1489       38264.00    167640.90
 1209.69        2969.75           1492       35539.00    155646.20
 1209.72        2970.00           1495       33320.00    145885.10
 1209.74        2970.25           1499       30372.00    132926.20
 1209.77        2970.50           1502       27759.00    121448.20
 1209.80        2970.75           1505       25566.00    111821.30
 1209.83        2971.00           1509       21784.00     95232.02
 1209.85        2971.25           1512       19256.00     84152.46
 1209.88        2971.50           1515       16926.00     73947.21
 1209.91        2971.75           1519       13559.00     59211.02
 1209.94        2972.00           1522       11300.00     49331.46
 1209.97        2972.25           1525        9087.00     39658.75
 1209.99        2972.50           1529        5668.00     24725.83
 1210.02        2972.75           1532        3224.00     14059.55
 1210.05        2973.00           1536        1380.00      6016.34
 1210.08        2973.25           1539         641.00      2794.04
 1210.10        2973.50           1542         230.00      1002.21
 1210.13        2973.75           1546         155.00       675.25
 1210.16        2974.00           1549         142.00       618.58
 1210.19        2974.25           1552         128.00       557.55
 1210.21        2974.50           1556         116.00       505.24
 1210.24        2974.75           1559         118.00       513.96
 1210.27        2975.00           1562         113.00       492.16
 1210.30        2975.25           1566         111.00       483.44
 1210.32        2975.50           1569         109.00       474.72
 1210.35        2975.75           1572         105.00       457.29
 1210.38        2976.00           1576         116.00       505.24
 1210.41        2976.25           1579         120.00       522.68
 1210.43        2976.50           1582         105.00       457.29
 1210.46        2976.75           1586         107.00       466.00
 1210.49        2977.00           1589         101.00       439.85
 1210.52        2977.25           1592         100.00       435.49
 1210.54        2977.50           1596         118.00       513.96
 1210.57        2977.75           1599         112.00       487.80
 1210.60        2978.00           1602         106.00       461.65
 1210.63        2978.25           1606         114.00       496.52
 1210.65        2978.50           1609         112.00       487.80
 1210.68        2978.75           1612          98.00       426.77
 1210.71        2979.00           1616         109.00       474.72
 1210.74        2979.25           1619         100.00       435.49
 1210.76        2979.50           1623         111.00       483.44
 1210.79        2979.75           1626         111.00       483.44
 1210.82        2980.00           1629         107.00       466.00
 1210.85        2980.25           1633         109.00       474.72
 1210.87        2980.50           1636         113.00       492.16
 1210.90        2980.75           1639         110.00       479.08
 1210.93        2981.00           1643         108.00       470.36
 1210.96        2981.25           1646         109.00       474.72
 1210.98        2981.50           1649         115.00       500.88
 1211.01        2981.75           1653         111.00       483.44
 1211.04        2982.00           1656         104.00       452.93
 1211.07        2982.25           1659         104.00       452.93
 1211.09        2982.50           1663         109.00       474.72
 1211.12        2982.75           1666         104.00       452.93
 1211.15        2983.00           1669         106.00       461.65
 1211.18        2983.25           1673         109.00       474.72
 1211.21        2983.50           1676         109.00       474.72
 1211.23        2983.75           1679          99.00       431.13
 1211.26        2984.00           1683         102.00       444.21
HS scan finished at 20:11:34
end
