************************************************************
  HS Scan of (1) Internal mercury lamp
************************************************************
Integration time is 0.2294 seconds per sample
dh180518Delft 52.017-4.35 2.482296pr1000
************************************************************
Dead Time -------------------------  2.7E-08 
Number of Cycles Used -------------  4 
Starting Wavelength (Angstroms) ---  2950 
Final Wavelength (Angstoms) -------  2984 
Wavelength Increment (Angstroms) --  .25 
Filter Wheel #1 Position ---------- (1) Ground quartz diffuser (ND=2.32)
Filter Wheel #2 Position ---------- (1) Neutral Density 0.494



************************************************************
HS scan start time = 01:38:38
Dark Count =  0 


Time (GMT)  Wavelength (Ang)  Step Number  Raw Counts  Counts/Second

   99.09        2950.00           1229         128.00       557.99
   99.19        2950.25           1232         128.00       557.99
   99.22        2950.50           1236         135.00       588.50
   99.25        2950.75           1239         130.00       566.70
   99.28        2951.00           1242         118.00       514.39
   99.30        2951.25           1246         131.00       571.06
   99.33        2951.50           1249         126.00       549.27
   99.36        2951.75           1252         126.00       549.27
   99.39        2952.00           1256         118.00       514.39
   99.42        2952.25           1259         128.00       557.99
   99.44        2952.50           1262         137.00       597.22
   99.47        2952.75           1266         119.00       518.75
   99.50        2953.00           1269         115.00       501.31
   99.53        2953.25           1272         124.00       540.55
   99.56        2953.50           1276         126.00       549.27
   99.59        2953.75           1279         132.00       575.42
   99.61        2954.00           1282         125.00       544.91
   99.64        2954.25           1286         126.00       549.27
   99.67        2954.50           1289         124.00       540.55
   99.70        2954.75           1292         129.00       562.35
   99.73        2955.00           1296         116.00       505.67
   99.76        2955.25           1299         121.00       527.47
   99.78        2955.50           1302         132.00       575.42
   99.81        2955.75           1306         122.00       531.83
   99.84        2956.00           1309         127.00       553.63
   99.87        2956.25           1312         121.00       527.47
   99.90        2956.50           1316         124.00       540.55
   99.93        2956.75           1319         126.00       549.27
   99.95        2957.00           1322         114.00       496.96
   99.98        2957.25           1326         121.00       527.47
  100.01        2957.50           1329         130.00       566.70
  100.04        2957.75           1332         116.00       505.67
  100.07        2958.00           1336         118.00       514.39
  100.10        2958.25           1339         121.00       527.47
  100.13        2958.50           1342         124.00       540.55
  100.15        2958.75           1345         122.00       531.83
  100.18        2959.00           1349         125.00       544.91
  100.21        2959.25           1352         112.00       488.24
  100.24        2959.50           1355         125.00       544.91
  100.27        2959.75           1359         111.00       483.88
  100.30        2960.00           1362         124.00       540.55
  100.32        2960.25           1365         119.00       518.75
  100.35        2960.50           1369         124.00       540.55
  100.38        2960.75           1372         136.00       592.86
  100.41        2961.00           1375         131.00       571.06
  100.44        2961.25           1379         149.00       649.53
  100.47        2961.50           1382         241.00      1050.60
  100.50        2961.75           1385         807.00      3518.21
  100.52        2962.00           1389        2257.00      9841.32
  100.55        2962.25           1392        3873.00     16890.88
  100.58        2962.50           1395        5822.00     25396.66
  100.61        2962.75           1399        8789.00     38352.69
  100.64        2963.00           1402       11534.00     50347.39
  100.67        2963.25           1405       14223.00     62104.93
  100.70        2963.50           1409       16901.00     73821.80
  100.72        2963.75           1412       19297.00     84311.16
  100.75        2964.00           1415       21626.00     94512.89
  100.78        2964.25           1419       25161.00    110008.10
  100.81        2964.50           1422       27613.00    120763.70
  100.84        2964.75           1425       29691.00    129883.60
  100.87        2965.00           1429       32352.00    141568.90
  100.90        2965.25           1432       34803.00    152338.50
  100.93        2965.50           1435       37326.00    163431.00
  100.95        2965.75           1439       40334.00    176664.60
  100.98        2966.00           1442       42392.00    185724.10
  101.01        2966.25           1445       45063.00    197488.80
  101.04        2966.50           1449       47521.00    208321.90
  101.07        2966.75           1452       48618.00    213158.80
  101.10        2967.00           1455       49087.00    215227.00
  101.13        2967.25           1459       49000.00    214843.40
  101.15        2967.50           1462       49089.00    215235.90
  101.18        2967.75           1465       48922.00    214499.40
  101.21        2968.00           1469       47889.00    209944.40
  101.24        2968.25           1472       46358.00    203195.40
  101.27        2968.50           1475       44408.00    194603.10
  101.29        2968.75           1479       41278.00    180819.60
  101.32        2969.00           1482       39339.00    172286.10
  101.35        2969.25           1485       37161.00    162705.40
  101.38        2969.50           1489       34433.00    150712.30
  101.41        2969.75           1492       31888.00    139530.80
  101.44        2970.00           1495       29535.00    129198.80
  101.47        2970.25           1499       26726.00    116872.10
  101.49        2970.50           1502       24647.00    107754.20
  101.52        2970.75           1505       22343.00     97654.71
  101.55        2971.00           1509       19688.00     86023.46
  101.58        2971.25           1512       17215.00     75196.11
  101.61        2971.50           1515       14780.00     64541.32
  101.64        2971.75           1519       11814.00     51571.33
  101.66        2972.00           1522        9492.00     41423.81
  101.69        2972.25           1525        7375.00     32177.03
  101.72        2972.50           1529        4729.00     20626.13
  101.75        2972.75           1532        2568.00     11197.81
  101.78        2973.00           1535        1191.00      5192.53
  101.81        2973.25           1539         424.00      1848.39
  101.83        2973.50           1542         219.00       954.69
  101.86        2973.75           1546         162.00       706.20
  101.89        2974.00           1549         145.00       632.09
  101.92        2974.25           1552         135.00       588.50
  101.95        2974.50           1556         122.00       531.83
  101.98        2974.75           1559         131.00       571.06
  102.00        2975.00           1562         117.00       510.03
  102.03        2975.25           1566         120.00       523.11
  102.06        2975.50           1569         102.00       444.64
  102.09        2975.75           1572         117.00       510.03
  102.12        2976.00           1576         109.00       475.16
  102.15        2976.25           1579         104.00       453.36
  102.17        2976.50           1582         108.00       470.80
  102.20        2976.75           1586         107.00       466.44
  102.23        2977.00           1589         109.00       475.16
  102.26        2977.25           1592         112.00       488.24
  102.29        2977.50           1596         107.00       466.44
  102.32        2977.75           1599         107.00       466.44
  102.34        2978.00           1602         105.00       457.72
  102.37        2978.25           1606         104.00       453.36
  102.40        2978.50           1609         108.00       470.80
  102.43        2978.75           1612         113.00       492.60
  102.46        2979.00           1616         109.00       475.16
  102.49        2979.25           1619         112.00       488.24
  102.51        2979.50           1622         110.00       479.52
  102.54        2979.75           1626         107.00       466.44
  102.57        2980.00           1629         106.00       462.08
  102.60        2980.25           1632         110.00       479.52
  102.63        2980.50           1636         109.00       475.16
  102.65        2980.75           1639          98.00       427.21
  102.68        2981.00           1642         107.00       466.44
  102.71        2981.25           1646         101.00       440.28
  102.74        2981.50           1649         105.00       457.72
  102.77        2981.75           1653         116.00       505.67
  102.79        2982.00           1656         104.00       453.36
  102.82        2982.25           1659         101.00       440.28
  102.85        2982.50           1663         101.00       440.28
  102.88        2982.75           1666          97.00       422.85
  102.91        2983.00           1669          98.00       427.21
  102.94        2983.25           1673         107.00       466.44
  102.96        2983.50           1676         109.00       475.16
  102.99        2983.75           1679         107.00       466.44
  103.02        2984.00           1683         107.00       466.44
HS scan finished at 01:43:19
end
************************************************************
  HS Scan of (1) Internal mercury lamp
************************************************************
Integration time is 0.2294 seconds per sample
dh180518Delft 52.017-4.35 2.696889pr1000
************************************************************
Dead Time -------------------------  2.7E-08 
Number of Cycles Used -------------  4 
Starting Wavelength (Angstroms) ---  2950 
Final Wavelength (Angstoms) -------  2984 
Wavelength Increment (Angstroms) --  .25 
Filter Wheel #1 Position ---------- (1) Ground quartz diffuser (ND=2.32)
Filter Wheel #2 Position ---------- (1) Neutral Density 0.494



************************************************************
HS scan start time = 20:35:37
Dark Count =  0 


Time (GMT)  Wavelength (Ang)  Step Number  Raw Counts  Counts/Second

 1236.07        2950.00           1229         111.00       483.88
 1236.17        2950.25           1232         117.00       510.03
 1236.19        2950.50           1236         119.00       518.75
 1236.22        2950.75           1239         127.00       553.63
 1236.25        2951.00           1242         109.00       475.16
 1236.28        2951.25           1246         125.00       544.91
 1236.31        2951.50           1249         112.00       488.24
 1236.34        2951.75           1252         128.00       557.99
 1236.36        2952.00           1256         118.00       514.39
 1236.39        2952.25           1259         128.00       557.99
 1236.42        2952.50           1262         126.00       549.27
 1236.45        2952.75           1266         119.00       518.75
 1236.48        2953.00           1269         118.00       514.39
 1236.50        2953.25           1272         110.00       479.52
 1236.53        2953.50           1276         118.00       514.39
 1236.56        2953.75           1279         125.00       544.91
 1236.59        2954.00           1282         118.00       514.39
 1236.62        2954.25           1286         117.00       510.03
 1236.65        2954.50           1289         113.00       492.60
 1236.67        2954.75           1292         127.00       553.63
 1236.70        2955.00           1296         114.00       496.96
 1236.73        2955.25           1299         118.00       514.39
 1236.76        2955.50           1302         120.00       523.11
 1236.79        2955.75           1306         126.00       549.27
 1236.81        2956.00           1309         115.00       501.31
 1236.84        2956.25           1312         120.00       523.11
 1236.87        2956.50           1316         113.00       492.60
 1236.90        2956.75           1319         119.00       518.75
 1236.93        2957.00           1322         113.00       492.60
 1236.95        2957.25           1326         118.00       514.39
 1236.98        2957.50           1329         119.00       518.75
 1237.01        2957.75           1332         123.00       536.19
 1237.04        2958.00           1336         115.00       501.31
 1237.07        2958.25           1339         112.00       488.24
 1237.10        2958.50           1342         117.00       510.03
 1237.12        2958.75           1345         120.00       523.11
 1237.15        2959.00           1349         112.00       488.24
 1237.18        2959.25           1352         113.00       492.60
 1237.21        2959.50           1355         118.00       514.39
 1237.24        2959.75           1359         118.00       514.39
 1237.27        2960.00           1362         117.00       510.03
 1237.29        2960.25           1365         117.00       510.03
 1237.32        2960.50           1369         116.00       505.67
 1237.35        2960.75           1372         127.00       553.63
 1237.38        2961.00           1375         135.00       588.50
 1237.41        2961.25           1379         135.00       588.50
 1237.43        2961.50           1382         220.00       959.05
 1237.46        2961.75           1385         714.00      3112.73
 1237.49        2962.00           1389        2144.00      9348.48
 1237.52        2962.25           1392        4213.00     18374.41
 1237.55        2962.50           1395        6598.00     28784.35
 1237.58        2962.75           1399        9678.00     42236.46
 1237.60        2963.00           1402       12912.00     56371.70
 1237.63        2963.25           1405       15554.00     67927.44
 1237.66        2963.50           1409       18923.00     82673.44
 1237.69        2963.75           1412       21768.00     95135.08
 1237.72        2964.00           1415       24289.00    106184.60
 1237.74        2964.25           1419       27868.00    121882.60
 1237.77        2964.50           1422       30347.00    132763.60
 1237.80        2964.75           1425       32320.00    141428.30
 1237.83        2965.00           1429       35410.00    155006.60
 1237.86        2965.25           1432       37746.00    165278.20
 1237.89        2965.50           1435       40611.00    177883.70
 1237.91        2965.75           1439       43754.00    191722.20
 1237.94        2966.00           1442       45829.00    200864.10
 1237.97        2966.25           1445       48445.00    212395.90
 1238.00        2966.50           1449       51300.00    224989.50
 1238.03        2966.75           1452       52905.00    232073.00
 1238.06        2967.00           1455       53524.00    234805.60
 1238.08        2967.25           1459       53622.00    235238.30
 1238.11        2967.50           1462       53662.00    235414.90
 1238.14        2967.75           1465       53386.00    234196.40
 1238.17        2968.00           1469       52712.00    231221.10
 1238.20        2968.25           1472       51402.00    225439.60
 1238.23        2968.50           1475       49170.00    215593.10
 1238.25        2968.75           1479       45699.00    200291.20
 1238.28        2969.00           1482       43315.00    189788.70
 1238.31        2969.25           1485       40972.00    179472.60
 1238.34        2969.50           1489       37894.00    165929.20
 1238.37        2969.75           1492       35035.00    153358.20
 1238.40        2970.00           1495       32812.00    143589.60
 1238.42        2970.25           1499       29936.00    130959.20
 1238.45        2970.50           1502       27527.00    120386.30
 1238.48        2970.75           1505       24956.00    109109.10
 1238.51        2971.00           1509       21317.00     93159.05
 1238.54        2971.25           1512       18440.00     80558.65
 1238.56        2971.50           1515       16018.00     69957.65
 1238.59        2971.75           1519       13010.00     56800.21
 1238.62        2972.00           1522       10526.00     45941.87
 1238.65        2972.25           1525        8184.00     35710.09
 1238.68        2972.50           1529        5033.00     21952.85
 1238.71        2972.75           1532        2582.00     11258.87
 1238.73        2973.00           1535        1288.00      5615.50
 1238.76        2973.25           1539         384.00      1674.01
 1238.79        2973.50           1542         200.00       871.86
 1238.82        2973.75           1546         151.00       658.25
 1238.85        2974.00           1549         146.00       636.45
 1238.88        2974.25           1552         137.00       597.22
 1238.90        2974.50           1556         124.00       540.55
 1238.93        2974.75           1559         115.00       501.31
 1238.96        2975.00           1562         123.00       536.19
 1238.99        2975.25           1566         106.00       462.08
 1239.02        2975.50           1569         112.00       488.24
 1239.05        2975.75           1572         112.00       488.24
 1239.07        2976.00           1576         104.00       453.36
 1239.10        2976.25           1579          98.00       427.21
 1239.13        2976.50           1582          94.00       409.77
 1239.16        2976.75           1586         116.00       505.67
 1239.19        2977.00           1589          99.00       431.57
 1239.21        2977.25           1592         101.00       440.28
 1239.24        2977.50           1596         107.00       466.44
 1239.27        2977.75           1599         100.00       435.92
 1239.30        2978.00           1602         101.00       440.28
 1239.33        2978.25           1606         109.00       475.16
 1239.35        2978.50           1609         105.00       457.72
 1239.38        2978.75           1612         106.00       462.08
 1239.41        2979.00           1616         109.00       475.16
 1239.44        2979.25           1619         115.00       501.31
 1239.47        2979.50           1622         102.00       444.64
 1239.50        2979.75           1626         100.00       435.92
 1239.52        2980.00           1629         109.00       475.16
 1239.55        2980.25           1632         103.00       449.00
 1239.58        2980.50           1636         102.00       444.64
 1239.61        2980.75           1639          96.00       418.49
 1239.64        2981.00           1642          99.00       431.57
 1239.67        2981.25           1646         106.00       462.08
 1239.69        2981.50           1649         101.00       440.28
 1239.72        2981.75           1653          98.00       427.21
 1239.75        2982.00           1656         101.00       440.28
 1239.78        2982.25           1659          99.00       431.57
 1239.81        2982.50           1663         100.00       435.92
 1239.83        2982.75           1666         102.00       444.64
 1239.86        2983.00           1669         103.00       449.00
 1239.89        2983.25           1673          99.00       431.57
 1239.92        2983.50           1676          98.00       427.21
 1239.95        2983.75           1679         100.00       435.92
 1239.97        2984.00           1683         100.00       435.92
HS scan finished at 20:40:16
end
