************************************************************
  HS Scan of (1) Internal mercury lamp
************************************************************
Integration time is 0.2294 seconds per sample
dh140518Delft 52.017-4.35 2.911481pr1000
************************************************************
Dead Time -------------------------  2.7E-08 
Number of Cycles Used -------------  4 
Starting Wavelength (Angstroms) ---  2950 
Final Wavelength (Angstoms) -------  2984 
Wavelength Increment (Angstroms) --  .25 
Filter Wheel #1 Position ---------- (1) Ground quartz diffuser (ND=2.32)
Filter Wheel #2 Position ---------- (1) Neutral Density 0.494



************************************************************
HS scan start time = 20:27:04
Dark Count =  0 


Time (GMT)  Wavelength (Ang)  Step Number  Raw Counts  Counts/Second

 1227.53        2950.00           1229         122.00       531.83
 1227.63        2950.25           1232         114.00       496.96
 1227.65        2950.50           1236         107.00       466.44
 1227.68        2950.75           1239         112.00       488.24
 1227.71        2951.00           1242         115.00       501.31
 1227.74        2951.25           1246         122.00       531.83
 1227.77        2951.50           1249         123.00       536.19
 1227.79        2951.75           1252         113.00       492.60
 1227.82        2952.00           1256         122.00       531.83
 1227.85        2952.25           1259         123.00       536.19
 1227.88        2952.50           1262         117.00       510.03
 1227.91        2952.75           1266         107.00       466.44
 1227.94        2953.00           1269         117.00       510.03
 1227.96        2953.25           1272         107.00       466.44
 1227.99        2953.50           1276         113.00       492.60
 1228.02        2953.75           1279         111.00       483.88
 1228.05        2954.00           1282         105.00       457.72
 1228.08        2954.25           1286         121.00       527.47
 1228.10        2954.50           1289         118.00       514.39
 1228.13        2954.75           1292         106.00       462.08
 1228.16        2955.00           1296         122.00       531.83
 1228.19        2955.25           1299         111.00       483.88
 1228.22        2955.50           1302         110.00       479.52
 1228.25        2955.75           1306         124.00       540.55
 1228.27        2956.00           1309          98.00       427.21
 1228.30        2956.25           1312         105.00       457.72
 1228.33        2956.50           1316         106.00       462.08
 1228.36        2956.75           1319         109.00       475.16
 1228.39        2957.00           1322         109.00       475.16
 1228.41        2957.25           1326         114.00       496.96
 1228.44        2957.50           1329         108.00       470.80
 1228.47        2957.75           1332         109.00       475.16
 1228.50        2958.00           1336         114.00       496.96
 1228.53        2958.25           1339         104.00       453.36
 1228.56        2958.50           1342         104.00       453.36
 1228.58        2958.75           1345         105.00       457.72
 1228.61        2959.00           1349         113.00       492.60
 1228.64        2959.25           1352         114.00       496.96
 1228.67        2959.50           1355         101.00       440.28
 1228.70        2959.75           1359         112.00       488.24
 1228.72        2960.00           1362         109.00       475.16
 1228.75        2960.25           1365         124.00       540.55
 1228.78        2960.50           1369         111.00       483.88
 1228.81        2960.75           1372         113.00       492.60
 1228.84        2961.00           1375         129.00       562.35
 1228.87        2961.25           1379         139.00       605.94
 1228.90        2961.50           1382         185.00       806.47
 1228.92        2961.75           1385         637.00      2777.02
 1228.95        2962.00           1389        2553.00     11132.38
 1228.98        2962.25           1392        4549.00     19840.62
 1229.01        2962.50           1395        6965.00     30386.74
 1229.04        2962.75           1399       10686.00     46641.10
 1229.07        2963.00           1402       13629.00     59507.05
 1229.09        2963.25           1405       16301.00     71196.02
 1229.12        2963.50           1409       19796.00     86496.46
 1229.15        2963.75           1412       22582.00     98702.09
 1229.18        2964.00           1415       25267.00    110472.90
 1229.21        2964.25           1419       29148.00    127500.10
 1229.23        2964.50           1422       31826.00    139258.50
 1229.26        2964.75           1425       34545.00    151204.60
 1229.29        2965.00           1429       37588.00    164583.30
 1229.32        2965.25           1432       40522.00    177492.00
 1229.35        2965.50           1435       42981.00    188317.80
 1229.38        2965.75           1439       47095.00    206444.00
 1229.41        2966.00           1442       49016.00    214913.90
 1229.43        2966.25           1445       51569.00    226176.50
 1229.46        2966.50           1449       54814.00    240501.70
 1229.49        2966.75           1452       56535.00    248103.70
 1229.52        2967.00           1455       57216.00    251112.70
 1229.55        2967.25           1459       57187.00    250984.50
 1229.57        2967.50           1462       57164.00    250882.90
 1229.60        2967.75           1465       57174.00    250927.10
 1229.63        2968.00           1469       56015.00    245806.50
 1229.66        2968.25           1472       54509.00    239154.80
 1229.69        2968.50           1475       51751.00    226979.70
 1229.72        2968.75           1479       48714.00    213582.10
 1229.75        2969.00           1482       46693.00    204672.00
 1229.77        2969.25           1485       44293.00    194096.50
 1229.80        2969.50           1489       40803.00    178728.80
 1229.83        2969.75           1492       38026.00    166509.80
 1229.86        2970.00           1495       35285.00    154457.10
 1229.89        2970.25           1499       31637.00    138428.40
 1229.92        2970.50           1502       29153.00    127522.00
 1229.94        2970.75           1505       26336.00    115161.40
 1229.97        2971.00           1509       22843.00     99845.97
 1230.00        2971.25           1512       20096.00     87810.39
 1230.03        2971.50           1515       17319.00     75651.32
 1230.06        2971.75           1519       14427.00     62997.22
 1230.09        2972.00           1522       11928.00     52069.67
 1230.11        2972.25           1525        9702.00     42341.32
 1230.14        2972.50           1529        6184.00     26976.92
 1230.17        2972.75           1532        3304.00     14408.40
 1230.20        2973.00           1535        1484.00      6470.18
 1230.23        2973.25           1539         409.00      1783.00
 1230.25        2973.50           1542         176.00       767.23
 1230.28        2973.75           1546         161.00       701.84
 1230.31        2974.00           1549         137.00       597.22
 1230.34        2974.25           1552         136.00       592.86
 1230.37        2974.50           1556         136.00       592.86
 1230.40        2974.75           1559         112.00       488.24
 1230.42        2975.00           1562         115.00       501.31
 1230.45        2975.25           1566          96.00       418.49
 1230.48        2975.50           1569         105.00       457.72
 1230.51        2975.75           1572         104.00       453.36
 1230.54        2976.00           1576         100.00       435.92
 1230.56        2976.25           1579         103.00       449.00
 1230.59        2976.50           1582         111.00       483.88
 1230.62        2976.75           1586         104.00       453.36
 1230.65        2977.00           1589         100.00       435.92
 1230.68        2977.25           1592          99.00       431.57
 1230.71        2977.50           1596         103.00       449.00
 1230.73        2977.75           1599          94.00       409.77
 1230.76        2978.00           1602          96.00       418.49
 1230.79        2978.25           1606         100.00       435.92
 1230.82        2978.50           1609         100.00       435.92
 1230.85        2978.75           1612          97.00       422.85
 1230.88        2979.00           1616         106.00       462.08
 1230.90        2979.25           1619         109.00       475.16
 1230.93        2979.50           1622         107.00       466.44
 1230.96        2979.75           1626         112.00       488.24
 1230.99        2980.00           1629          95.00       414.13
 1231.02        2980.25           1632          99.00       431.57
 1231.04        2980.50           1636          93.00       405.41
 1231.07        2980.75           1639          99.00       431.57
 1231.10        2981.00           1642          92.00       401.05
 1231.13        2981.25           1646         101.00       440.28
 1231.16        2981.50           1649         100.00       435.92
 1231.19        2981.75           1653          94.00       409.77
 1231.21        2982.00           1656         100.00       435.92
 1231.24        2982.25           1659          96.00       418.49
 1231.27        2982.50           1663          94.00       409.77
 1231.30        2982.75           1666          96.00       418.49
 1231.33        2983.00           1669          86.00       374.89
 1231.35        2983.25           1673          87.00       379.25
 1231.38        2983.50           1676          83.00       361.82
 1231.41        2983.75           1679          95.00       414.13
 1231.44        2984.00           1683          98.00       427.21
HS scan finished at 20:31:44
end
