************************************************************
  HS Scan of (1) Internal mercury lamp
************************************************************
Integration time is 0.2294 seconds per sample
dh170517Kaunas 54.88398-23.83586 2.428648pr1000
************************************************************
Dead Time -------------------------  3E-08 
Number of Cycles Used -------------  4 
Starting Wavelength (Angstroms) ---  2950 
Final Wavelength (Angstoms) -------  2984 
Wavelength Increment (Angstroms) --  .25 
Filter Wheel #1 Position ---------- (1) Ground quartz diffuser (ND=2.32)
Filter Wheel #2 Position ---------- (1) Neutral Density 0.494



************************************************************
HS scan start time = 00:24:12
Dark Count =  .1 


Time (GMT)  Wavelength (Ang)  Step Number  Raw Counts  Counts/Second

   24.66        2950.00           1229         129.00       561.91
   24.75        2950.25           1232         130.00       566.27
   24.78        2950.50           1236         127.00       553.19
   24.81        2950.75           1239         142.00       618.58
   24.84        2951.00           1242         129.00       561.91
   24.87        2951.25           1246         121.00       527.04
   24.90        2951.50           1249         137.00       596.78
   24.93        2951.75           1252         137.00       596.78
   24.95        2952.00           1255         123.00       535.75
   24.98        2952.25           1259         135.00       588.07
   25.01        2952.50           1262         129.00       561.91
   25.04        2952.75           1265         124.00       540.11
   25.07        2953.00           1269         134.00       583.71
   25.09        2953.25           1272         130.00       566.27
   25.12        2953.50           1275         124.00       540.11
   25.15        2953.75           1279         127.00       553.19
   25.18        2954.00           1282         127.00       553.19
   25.20        2954.25           1285         124.00       540.11
   25.23        2954.50           1289         120.00       522.68
   25.26        2954.75           1292         123.00       535.75
   25.29        2955.00           1295         126.00       548.83
   25.31        2955.25           1299         130.00       566.27
   25.34        2955.50           1302         127.00       553.19
   25.37        2955.75           1305         131.00       570.63
   25.40        2956.00           1309         121.00       527.04
   25.43        2956.25           1312         128.00       557.55
   25.45        2956.50           1315         126.00       548.83
   25.48        2956.75           1319         125.00       544.47
   25.51        2957.00           1322         132.00       574.99
   25.54        2957.25           1325         130.00       566.27
   25.57        2957.50           1329         120.00       522.68
   25.60        2957.75           1332         122.00       531.39
   25.62        2958.00           1335         125.00       544.47
   25.65        2958.25           1339         124.00       540.11
   25.68        2958.50           1342         112.00       487.80
   25.71        2958.75           1345         121.00       527.04
   25.73        2959.00           1349         122.00       531.39
   25.76        2959.25           1352         125.00       544.47
   25.79        2959.50           1355         123.00       535.75
   25.82        2959.75           1359         123.00       535.75
   25.84        2960.00           1362         131.00       570.63
   25.87        2960.25           1365         122.00       531.39
   25.90        2960.50           1369         125.00       544.47
   25.93        2960.75           1372         153.00       666.53
   25.96        2961.00           1375         159.00       692.69
   25.98        2961.25           1379         161.00       701.41
   26.01        2961.50           1382         255.00      1111.20
   26.04        2961.75           1385         711.00      3099.24
   26.07        2962.00           1389        2435.00     10617.59
   26.09        2962.25           1392        4397.00     19177.99
   26.12        2962.50           1395        6596.00     28777.67
   26.15        2962.75           1399        9876.00     43106.71
   26.18        2963.00           1402       12301.00     53708.53
   26.21        2963.25           1405       14720.00     64290.84
   26.24        2963.50           1409       18427.00     80520.78
   26.27        2963.75           1412       21038.00     91961.74
   26.29        2964.00           1415       23608.00    103230.70
   26.32        2964.25           1419       27357.00    119683.10
   26.35        2964.50           1422       29822.00    130509.60
   26.38        2964.75           1425       32257.00    141211.20
   26.41        2965.00           1429       35764.00    156636.30
   26.43        2965.25           1432       38031.00    166615.00
   26.46        2965.50           1435       40623.00    178031.60
   26.49        2965.75           1439       43721.00    191687.20
   26.52        2966.00           1442       45491.00    199494.20
   26.55        2966.25           1445       48142.00    211193.90
   26.57        2966.50           1449       50882.00    223295.10
   26.60        2966.75           1452       52272.00    229437.40
   26.63        2967.00           1455       52855.00    232014.30
   26.66        2967.25           1459       53038.00    232823.20
   26.68        2967.50           1462       52707.00    231360.10
   26.71        2967.75           1465       52747.00    231536.90
   26.74        2968.00           1469       51810.00    227395.60
   26.77        2968.25           1472       50140.00    220017.20
   26.80        2968.50           1475       48601.00    213220.50
   26.82        2968.75           1479       45713.00    200473.70
   26.85        2969.00           1482       43231.00    189526.60
   26.88        2969.25           1485       41234.00    180723.90
   26.91        2969.50           1489       37718.00    165236.90
   26.93        2969.75           1492       35092.00    153679.40
   26.96        2970.00           1495       32298.00    141391.40
   26.99        2970.25           1499       29144.00    127531.00
   27.02        2970.50           1502       26544.00    116113.90
   27.05        2970.75           1505       23856.00    104318.60
   27.07        2971.00           1509       20576.00     89936.75
   27.10        2971.25           1512       18268.00     79824.33
   27.13        2971.50           1515       16493.00     72051.40
   27.16        2971.75           1519       13485.00     58887.30
   27.18        2972.00           1522       11002.00     48028.62
   27.21        2972.25           1525        8384.00     36587.22
   27.24        2972.50           1529        4800.00     20936.86
   27.28        2972.75           1532        2552.00     11127.95
   27.31        2973.00           1536         969.00      4224.16
   27.34        2973.25           1539         405.00      1765.13
   27.37        2973.50           1542         202.00       880.15
   27.39        2973.75           1546         151.00       657.82
   27.42        2974.00           1549         141.00       614.22
   27.45        2974.25           1552         141.00       614.22
   27.48        2974.50           1556         129.00       561.91
   27.51        2974.75           1559         116.00       505.24
   27.53        2975.00           1562         121.00       527.04
   27.56        2975.25           1566         115.00       500.88
   27.59        2975.50           1569         116.00       505.24
   27.62        2975.75           1572         119.00       518.32
   27.65        2976.00           1576         106.00       461.65
   27.68        2976.25           1579         124.00       540.11
   27.70        2976.50           1582         113.00       492.16
   27.73        2976.75           1586         126.00       548.83
   27.76        2977.00           1589         101.00       439.85
   27.79        2977.25           1592         121.00       527.04
   27.82        2977.50           1596         108.00       470.36
   27.84        2977.75           1599         108.00       470.36
   27.87        2978.00           1602         111.00       483.44
   27.90        2978.25           1606         111.00       483.44
   27.93        2978.50           1609         107.00       466.00
   27.95        2978.75           1612         104.00       452.93
   27.98        2979.00           1616         112.00       487.80
   28.01        2979.25           1619         110.00       479.08
   28.04        2979.50           1623         118.00       513.96
   28.06        2979.75           1626         107.00       466.00
   28.09        2980.00           1629          96.00       418.05
   28.12        2980.25           1633         106.00       461.65
   28.15        2980.50           1636         118.00       513.96
   28.18        2980.75           1639          99.00       431.13
   28.21        2981.00           1643          99.00       431.13
   28.24        2981.25           1646         107.00       466.00
   28.26        2981.50           1649         104.00       452.93
   28.29        2981.75           1653         106.00       461.65
   28.32        2982.00           1656         117.00       509.60
   28.35        2982.25           1659         103.00       448.57
   28.38        2982.50           1663         110.00       479.08
   28.41        2982.75           1666         106.00       461.65
   28.44        2983.00           1669         109.00       474.72
   28.46        2983.25           1673         101.00       439.85
   28.49        2983.50           1676         104.00       452.93
   28.52        2983.75           1679         108.00       470.36
   28.55        2984.00           1683         110.00       479.08
HS scan finished at 00:28:51
end
************************************************************
  HS Scan of (1) Internal mercury lamp
************************************************************
Integration time is 0.2294 seconds per sample
dh170517Kaunas 54.88398-23.83586 2.428648pr1000
************************************************************
Dead Time -------------------------  3E-08 
Number of Cycles Used -------------  4 
Starting Wavelength (Angstroms) ---  2950 
Final Wavelength (Angstoms) -------  2984 
Wavelength Increment (Angstroms) --  .25 
Filter Wheel #1 Position ---------- (1) Ground quartz diffuser (ND=2.32)
Filter Wheel #2 Position ---------- (1) Neutral Density 0.494



************************************************************
HS scan start time = 00:50:32
Dark Count =  0 


Time (GMT)  Wavelength (Ang)  Step Number  Raw Counts  Counts/Second

   50.99        2950.00           1229         123.00       536.19
   51.09        2950.25           1232         129.00       562.35
   51.12        2950.50           1236         126.00       549.27
   51.14        2950.75           1239         123.00       536.19
   51.17        2951.00           1242         126.00       549.27
   51.20        2951.25           1246         126.00       549.27
   51.23        2951.50           1249         117.00       510.03
   51.25        2951.75           1252         124.00       540.55
   51.28        2952.00           1255         131.00       571.06
   51.31        2952.25           1259         126.00       549.27
   51.34        2952.50           1262         120.00       523.11
   51.36        2952.75           1265         122.00       531.83
   51.40        2953.00           1269         119.00       518.75
   51.43        2953.25           1272         122.00       531.83
   51.46        2953.50           1275         119.00       518.75
   51.49        2953.75           1279         125.00       544.91
   51.51        2954.00           1282         122.00       531.83
   51.54        2954.25           1285         122.00       531.83
   51.57        2954.50           1289         134.00       584.14
   51.60        2954.75           1292         116.00       505.67
   51.62        2955.00           1295         124.00       540.55
   51.65        2955.25           1299         116.00       505.67
   51.68        2955.50           1302         126.00       549.27
   51.71        2955.75           1305         127.00       553.63
   51.74        2956.00           1309         118.00       514.39
   51.76        2956.25           1312         129.00       562.35
   51.79        2956.50           1315         119.00       518.75
   51.83        2956.75           1319         123.00       536.19
   51.86        2957.00           1322         120.00       523.11
   51.89        2957.25           1325         121.00       527.47
   51.92        2957.50           1329         112.00       488.24
   51.94        2957.75           1332         118.00       514.39
   51.97        2958.00           1335         109.00       475.16
   52.00        2958.25           1339         122.00       531.83
   52.03        2958.50           1342         118.00       514.39
   52.05        2958.75           1345         124.00       540.55
   52.08        2959.00           1349         116.00       505.67
   52.11        2959.25           1352         115.00       501.32
   52.14        2959.50           1355         128.00       557.99
   52.16        2959.75           1359         122.00       531.83
   52.19        2960.00           1362         123.00       536.19
   52.22        2960.25           1365         127.00       553.63
   52.25        2960.50           1369         124.00       540.55
   52.27        2960.75           1372         134.00       584.14
   52.30        2961.00           1375         140.00       610.30
   52.33        2961.25           1379         147.00       640.81
   52.36        2961.50           1382         209.00       911.10
   52.38        2961.75           1385         641.00      2794.48
   52.41        2962.00           1389        1873.00      8166.78
   52.44        2962.25           1392        3215.00     14020.72
   52.47        2962.50           1395        4933.00     21517.81
   52.50        2962.75           1399        7470.00     32595.07
   52.52        2963.00           1402        9510.00     41507.63
   52.55        2963.25           1405       11593.00     50612.98
   52.58        2963.50           1409       14383.00     62816.61
   52.61        2963.75           1412       16333.00     71351.35
   52.63        2964.00           1415       18309.00     80004.35
   52.66        2964.25           1419       20865.00     91203.88
   52.69        2964.50           1422       22754.00     99485.68
   52.72        2964.75           1425       24460.00    106968.70
   52.75        2965.00           1429       26913.00    117734.20
   52.77        2965.25           1432       28507.00    124733.50
   52.81        2965.50           1435       30454.00    133286.90
   52.84        2965.75           1439       33132.00    145058.90
   52.87        2966.00           1442       34694.00    151928.90
   52.90        2966.25           1445       36786.00    161134.50
   52.92        2966.50           1449       38693.00    169530.50
   52.95        2966.75           1452       39825.00    174516.40
   52.98        2967.00           1455       40266.00    176459.10
   53.01        2967.25           1459       40381.00    176965.80
   53.04        2967.50           1462       40533.00    177635.50
   53.07        2967.75           1465       40325.00    176719.10
   53.10        2968.00           1469       39623.00    173626.60
   53.12        2968.25           1472       38833.00    170147.00
   53.15        2968.50           1475       37479.00    164185.10
   53.18        2968.75           1479       34663.00    151792.50
   53.21        2969.00           1482       32674.00    143045.00
   53.24        2969.25           1485       30977.00    135585.30
   53.26        2969.50           1489       28531.00    124839.00
   53.29        2969.75           1492       26724.00    116904.50
   53.32        2970.00           1495       24864.00    108741.30
   53.35        2970.25           1499       22169.00     96920.46
   53.37        2970.50           1502       20487.00     89547.13
   53.40        2970.75           1505       18874.00     82479.33
   53.43        2971.00           1509       16213.00     70826.01
   53.46        2971.25           1512       14290.00     62409.69
   53.49        2971.50           1515       12138.00     52996.14
   53.51        2971.75           1519        9720.00     42425.37
   53.54        2972.00           1522        7904.00     34490.77
   53.57        2972.25           1525        6163.00     26887.42
   53.60        2972.50           1529        3880.00     16922.28
   53.62        2972.75           1532        2119.00      9239.70
   53.65        2973.00           1536         691.00      3012.48
   53.68        2973.25           1539         303.00      1320.89
   53.71        2973.50           1542         168.00       732.36
   53.73        2973.75           1546         140.00       610.30
   53.76        2974.00           1549         128.00       557.99
   53.79        2974.25           1552         113.00       492.60
   53.82        2974.50           1556         121.00       527.47
   53.85        2974.75           1559         107.00       466.44
   53.87        2975.00           1562         107.00       466.44
   53.90        2975.25           1566         102.00       444.64
   53.93        2975.50           1569         102.00       444.64
   53.96        2975.75           1572         123.00       536.19
   53.98        2976.00           1576         101.00       440.28
   54.01        2976.25           1579          98.00       427.21
   54.04        2976.50           1582         103.00       449.00
   54.07        2976.75           1586         112.00       488.24
   54.10        2977.00           1589         119.00       518.75
   54.13        2977.25           1592         104.00       453.36
   54.15        2977.50           1596         106.00       462.08
   54.18        2977.75           1599         106.00       462.08
   54.21        2978.00           1602         105.00       457.72
   54.24        2978.25           1606         100.00       435.93
   54.26        2978.50           1609          98.00       427.21
   54.29        2978.75           1612         106.00       462.08
   54.32        2979.00           1616         100.00       435.93
   54.35        2979.25           1619         106.00       462.08
   54.38        2979.50           1623         110.00       479.52
   54.41        2979.75           1626          95.00       414.13
   54.44        2980.00           1629         108.00       470.80
   54.46        2980.25           1633         106.00       462.08
   54.49        2980.50           1636         102.00       444.64
   54.52        2980.75           1639          99.00       431.57
   54.55        2981.00           1643         102.00       444.64
   54.57        2981.25           1646         106.00       462.08
   54.60        2981.50           1649         105.00       457.72
   54.64        2981.75           1653         100.00       435.93
   54.67        2982.00           1656         102.00       444.64
   54.70        2982.25           1659         100.00       435.93
   54.72        2982.50           1663          94.00       409.77
   54.75        2982.75           1666          95.00       414.13
   54.78        2983.00           1669         108.00       470.80
   54.81        2983.25           1673         103.00       449.00
   54.84        2983.50           1676         108.00       470.80
   54.87        2983.75           1679         101.00       440.28
   54.90        2984.00           1683          98.00       427.21
HS scan finished at 00:55:12
end
************************************************************
  HS Scan of (1) Internal mercury lamp
************************************************************
Integration time is 0.2294 seconds per sample
dh170517Kaunas 54.88398-23.83586 2.911481pr1000
************************************************************
Dead Time -------------------------  3E-08 
Number of Cycles Used -------------  4 
Starting Wavelength (Angstroms) ---  2950 
Final Wavelength (Angstoms) -------  2984 
Wavelength Increment (Angstroms) --  .25 
Filter Wheel #1 Position ---------- (1) Ground quartz diffuser (ND=2.32)
Filter Wheel #2 Position ---------- (1) Neutral Density 0.494



************************************************************
HS scan start time = 19:29:21
Dark Count =  .1 


Time (GMT)  Wavelength (Ang)  Step Number  Raw Counts  Counts/Second

 1169.79        2950.00           1229         124.00       540.11
 1169.89        2950.25           1232         116.00       505.24
 1169.92        2950.50           1236         127.00       553.19
 1169.95        2950.75           1239         119.00       518.32
 1169.97        2951.00           1242         109.00       474.72
 1170.00        2951.25           1246         116.00       505.24
 1170.03        2951.50           1249         128.00       557.55
 1170.06        2951.75           1252         131.00       570.63
 1170.08        2952.00           1255         120.00       522.68
 1170.11        2952.25           1259         121.00       527.04
 1170.14        2952.50           1262         113.00       492.16
 1170.17        2952.75           1265         118.00       513.96
 1170.19        2953.00           1269         121.00       527.04
 1170.22        2953.25           1272         120.00       522.68
 1170.25        2953.50           1275         121.00       527.04
 1170.28        2953.75           1279         115.00       500.88
 1170.31        2954.00           1282         116.00       505.24
 1170.33        2954.25           1285         121.00       527.04
 1170.36        2954.50           1289         110.00       479.08
 1170.39        2954.75           1292         117.00       509.60
 1170.42        2955.00           1295         127.00       553.19
 1170.44        2955.25           1299         120.00       522.68
 1170.47        2955.50           1302         113.00       492.16
 1170.50        2955.75           1305         117.00       509.60
 1170.53        2956.00           1309         124.00       540.11
 1170.55        2956.25           1312         112.00       487.80
 1170.58        2956.50           1315         118.00       513.96
 1170.61        2956.75           1319         109.00       474.72
 1170.64        2957.00           1322         110.00       479.08
 1170.66        2957.25           1325         115.00       500.88
 1170.69        2957.50           1329         121.00       527.04
 1170.72        2957.75           1332         118.00       513.96
 1170.75        2958.00           1335         111.00       483.44
 1170.78        2958.25           1339         115.00       500.88
 1170.81        2958.50           1342         107.00       466.00
 1170.84        2958.75           1345         118.00       513.96
 1170.86        2959.00           1349         121.00       527.04
 1170.89        2959.25           1352         120.00       522.68
 1170.92        2959.50           1355         115.00       500.88
 1170.95        2959.75           1359         117.00       509.60
 1170.97        2960.00           1362         129.00       561.91
 1171.00        2960.25           1365         119.00       518.32
 1171.03        2960.50           1369         122.00       531.39
 1171.06        2960.75           1372         134.00       583.71
 1171.08        2961.00           1375         147.00       640.38
 1171.11        2961.25           1379         152.00       662.18
 1171.14        2961.50           1382         213.00       928.10
 1171.17        2961.75           1385         697.00      3038.20
 1171.20        2962.00           1389        2845.00     12406.10
 1171.22        2962.25           1392        5206.00     22709.02
 1171.25        2962.50           1395        7914.00     34534.02
 1171.28        2962.75           1399       12095.00     52807.66
 1171.31        2963.00           1402       14678.00     64107.05
 1171.33        2963.25           1405       17398.00     76014.03
 1171.36        2963.50           1409       21519.00     94070.25
 1171.39        2963.75           1412       24590.00    107538.60
 1171.42        2964.00           1415       27920.00    122155.20
 1171.45        2964.25           1419       31694.00    138736.20
 1171.47        2964.50           1422       34703.00    151968.10
 1171.50        2964.75           1425       37654.00    164955.10
 1171.53        2965.00           1429       41500.00    181896.20
 1171.56        2965.25           1432       44949.00    197103.20
 1171.58        2965.50           1435       48045.00    210765.70
 1171.61        2965.75           1439       51362.00    225415.90
 1171.64        2966.00           1442       54088.00    237465.60
 1171.67        2966.25           1445       57137.00    250953.30
 1171.70        2966.50           1449       61056.00    268305.70
 1171.72        2966.75           1452       62168.00    273232.70
 1171.75        2967.00           1455       63266.00    278099.10
 1171.78        2967.25           1459       63219.00    277890.80
 1171.81        2967.50           1462       63318.00    278329.60
 1171.83        2967.75           1465       63222.00    277904.10
 1171.86        2968.00           1469       61670.00    271026.00
 1171.89        2968.25           1472       59839.00    262915.20
 1171.92        2968.50           1475       57586.00    252940.50
 1171.95        2968.75           1479       54675.00    240061.40
 1171.98        2969.00           1482       51453.00    225818.00
 1172.01        2969.25           1485       48746.00    213860.70
 1172.03        2969.50           1489       44682.00    195925.50
 1172.06        2969.75           1492       41428.00    181578.80
 1172.09        2970.00           1495       38928.00    170565.00
 1172.12        2970.25           1499       35143.00    153903.80
 1172.15        2970.50           1502       31905.00    139663.70
 1172.18        2970.75           1505       29159.00    127596.90
 1172.20        2971.00           1509       24666.00    107872.10
 1172.23        2971.25           1512       22135.00     96770.96
 1172.26        2971.50           1515       19607.00     85690.36
 1172.29        2971.75           1519       16204.00     70786.18
 1172.31        2972.00           1522       13725.00     59937.24
 1172.34        2972.25           1525       10511.00     45882.21
 1172.37        2972.50           1529        6344.00     27677.29
 1172.40        2972.75           1532        3472.00     15141.58
 1172.43        2973.00           1536        1134.00      4943.63
 1172.46        2973.25           1539         447.00      1948.24
 1172.49        2973.50           1542         210.00       915.02
 1172.51        2973.75           1546         150.00       653.46
 1172.54        2974.00           1549         136.00       592.43
 1172.57        2974.25           1552         148.00       644.74
 1172.60        2974.50           1556         132.00       574.99
 1172.62        2974.75           1559         114.00       496.52
 1172.65        2975.00           1562         113.00       492.16
 1172.68        2975.25           1566         106.00       461.65
 1172.71        2975.50           1569         103.00       448.57
 1172.74        2975.75           1572         112.00       487.80
 1172.76        2976.00           1576         108.00       470.36
 1172.79        2976.25           1579         112.00       487.80
 1172.82        2976.50           1582         108.00       470.36
 1172.85        2976.75           1586         112.00       487.80
 1172.87        2977.00           1589         102.00       444.21
 1172.91        2977.25           1592         112.00       487.80
 1172.94        2977.50           1596         104.00       452.93
 1172.97        2977.75           1599         104.00       452.93
 1172.99        2978.00           1602         102.00       444.21
 1173.02        2978.25           1606         104.00       452.93
 1173.05        2978.50           1609          96.00       418.05
 1173.08        2978.75           1612         107.00       466.00
 1173.11        2979.00           1616         103.00       448.57
 1173.13        2979.25           1619         104.00       452.93
 1173.16        2979.50           1623         102.00       444.21
 1173.19        2979.75           1626         105.00       457.29
 1173.22        2980.00           1629         105.00       457.29
 1173.24        2980.25           1633          95.00       413.69
 1173.27        2980.50           1636         114.00       496.52
 1173.30        2980.75           1639         110.00       479.08
 1173.33        2981.00           1643         100.00       435.49
 1173.36        2981.25           1646         113.00       492.16
 1173.39        2981.50           1649          91.00       396.26
 1173.41        2981.75           1653         107.00       466.00
 1173.44        2982.00           1656         107.00       466.00
 1173.47        2982.25           1659         106.00       461.65
 1173.50        2982.50           1663          97.00       422.41
 1173.52        2982.75           1666          99.00       431.13
 1173.55        2983.00           1669          97.00       422.41
 1173.58        2983.25           1673          97.00       422.41
 1173.61        2983.50           1676          89.00       387.54
 1173.63        2983.75           1679          99.00       431.13
 1173.66        2984.00           1683         101.00       439.85
HS scan finished at 19:33:58
end
