************************************************************
  HS Scan of (1) Internal mercury lamp
************************************************************
Integration time is 0.2294 seconds per sample
dh150518Delft 52.017-4.35 3.018777pr1000
************************************************************
Dead Time -------------------------  2.7E-08 
Number of Cycles Used -------------  4 
Starting Wavelength (Angstroms) ---  2950 
Final Wavelength (Angstoms) -------  2984 
Wavelength Increment (Angstroms) --  .25 
Filter Wheel #1 Position ---------- (1) Ground quartz diffuser (ND=2.32)
Filter Wheel #2 Position ---------- (1) Neutral Density 0.494



************************************************************
HS scan start time = 20:28:55
Dark Count =  .2 


Time (GMT)  Wavelength (Ang)  Step Number  Raw Counts  Counts/Second

 1229.37        2950.00           1229         108.00       469.93
 1229.47        2950.25           1232         102.00       443.77
 1229.50        2950.50           1236         113.00       491.72
 1229.52        2950.75           1239         108.00       469.93
 1229.55        2951.00           1242         107.00       465.57
 1229.58        2951.25           1246         115.00       500.44
 1229.61        2951.50           1249         102.00       443.77
 1229.64        2951.75           1252         102.00       443.77
 1229.67        2952.00           1256         113.00       491.72
 1229.69        2952.25           1259         107.00       465.57
 1229.72        2952.50           1262         109.00       474.29
 1229.75        2952.75           1266         101.00       439.41
 1229.78        2953.00           1269         112.00       487.36
 1229.81        2953.25           1272         101.00       439.41
 1229.83        2953.50           1276         106.00       461.21
 1229.86        2953.75           1279         114.00       496.08
 1229.89        2954.00           1282         107.00       465.57
 1229.92        2954.25           1286         106.00       461.21
 1229.95        2954.50           1289         102.00       443.77
 1229.98        2954.75           1292         105.00       456.85
 1230.01        2955.00           1296         113.00       491.72
 1230.03        2955.25           1299         101.00       439.41
 1230.06        2955.50           1302         112.00       487.36
 1230.09        2955.75           1306         105.00       456.85
 1230.12        2956.00           1309         105.00       456.85
 1230.15        2956.25           1312         112.00       487.36
 1230.17        2956.50           1316         108.00       469.93
 1230.20        2956.75           1319         102.00       443.77
 1230.23        2957.00           1322          99.00       430.69
 1230.26        2957.25           1326         118.00       513.52
 1230.29        2957.50           1329         115.00       500.44
 1230.31        2957.75           1332         108.00       469.93
 1230.34        2958.00           1336         111.00       483.01
 1230.37        2958.25           1339         105.00       456.85
 1230.40        2958.50           1342         117.00       509.16
 1230.43        2958.75           1345         111.00       483.01
 1230.46        2959.00           1349         104.00       452.49
 1230.48        2959.25           1352         108.00       469.93
 1230.51        2959.50           1355         100.00       435.05
 1230.54        2959.75           1359          99.00       430.69
 1230.57        2960.00           1362         102.00       443.77
 1230.60        2960.25           1365         102.00       443.77
 1230.62        2960.50           1369         113.00       491.72
 1230.65        2960.75           1372         110.00       478.65
 1230.68        2961.00           1375         126.00       548.40
 1230.71        2961.25           1379         134.00       583.27
 1230.74        2961.50           1382         160.00       696.61
 1230.77        2961.75           1385         537.00      2340.17
 1230.79        2962.00           1389        2044.00      8911.47
 1230.82        2962.25           1392        4177.00     18216.46
 1230.85        2962.50           1395        6740.00     29403.45
 1230.88        2962.75           1399       10658.00     46517.85
 1230.91        2963.00           1402       13638.00     59545.53
 1230.93        2963.25           1405       15906.00     69466.70
 1230.96        2963.50           1409       19526.00     85313.12
 1230.99        2963.75           1412       22304.00     97482.92
 1231.02        2964.00           1415       25115.00    109805.50
 1231.05        2964.25           1419       29608.00    129518.40
 1231.08        2964.50           1422       32146.00    140663.10
 1231.10        2964.75           1425       34558.00    151260.80
 1231.13        2965.00           1429       38570.00    168901.90
 1231.16        2965.25           1432       41316.00    180986.00
 1231.19        2965.50           1435       44244.00    193879.70
 1231.22        2965.75           1439       47733.00    209255.70
 1231.25        2966.00           1442       50119.00    219778.10
 1231.27        2966.25           1445       52631.00    230862.70
 1231.30        2966.50           1449       56299.00    247060.20
 1231.33        2966.75           1452       58348.00    256114.60
 1231.36        2967.00           1455       59171.00    259752.60
 1231.39        2967.25           1459       59291.00    260283.10
 1231.42        2967.50           1462       59154.00    259677.50
 1231.44        2967.75           1465       59130.00    259571.30
 1231.47        2968.00           1469       58093.00    254987.50
 1231.50        2968.25           1472       56292.00    247029.30
 1231.53        2968.50           1475       53809.00    236063.00
 1231.56        2968.75           1479       51055.00    223907.50
 1231.59        2969.00           1482       48843.00    214150.10
 1231.61        2969.25           1485       46210.00    202542.30
 1231.64        2969.50           1489       42542.00    186383.70
 1231.67        2969.75           1492       39715.00    173939.70
 1231.70        2970.00           1495       36751.00    160901.50
 1231.73        2970.25           1499       33295.00    145710.80
 1231.76        2970.50           1502       30428.00    133118.40
 1231.78        2970.75           1505       27744.00    121337.60
 1231.81        2971.00           1509       23813.00    104096.90
 1231.84        2971.25           1512       21138.00     92373.96
 1231.87        2971.50           1515       18694.00     81669.87
 1231.90        2971.75           1519       15388.00     67200.28
 1231.93        2972.00           1522       13099.00     57188.50
 1231.96        2972.25           1525       10524.00     45932.26
 1231.98        2972.50           1529        6460.00     28180.98
 1232.01        2972.75           1532        4008.00     17479.04
 1232.04        2973.00           1535        1795.00      7825.54
 1232.07        2973.25           1539         459.00      2000.11
 1232.10        2973.50           1542         224.00       975.61
 1232.13        2973.75           1546         155.00       674.82
 1232.15        2974.00           1549         142.00       618.14
 1232.18        2974.25           1552         135.00       587.63
 1232.21        2974.50           1556         131.00       570.19
 1232.24        2974.75           1559         115.00       500.44
 1232.27        2975.00           1562         102.00       443.77
 1232.29        2975.25           1566         106.00       461.21
 1232.32        2975.50           1569          99.00       430.69
 1232.35        2975.75           1572         103.00       448.13
 1232.38        2976.00           1576         100.00       435.05
 1232.41        2976.25           1579          93.00       404.54
 1232.44        2976.50           1582          95.00       413.26
 1232.46        2976.75           1586         103.00       448.13
 1232.49        2977.00           1589         102.00       443.77
 1232.52        2977.25           1592         105.00       456.85
 1232.55        2977.50           1596          95.00       413.26
 1232.58        2977.75           1599          97.00       421.98
 1232.61        2978.00           1602         103.00       448.13
 1232.63        2978.25           1606         102.00       443.77
 1232.66        2978.50           1609          96.00       417.62
 1232.69        2978.75           1612         101.00       439.41
 1232.72        2979.00           1616          90.00       391.46
 1232.74        2979.25           1619          93.00       404.54
 1232.77        2979.50           1622          83.00       360.95
 1232.80        2979.75           1626         101.00       439.41
 1232.83        2980.00           1629          98.00       426.33
 1232.86        2980.25           1632          88.00       382.74
 1232.89        2980.50           1636          92.00       400.18
 1232.91        2980.75           1639          96.00       417.62
 1232.94        2981.00           1642          99.00       430.69
 1232.97        2981.25           1646          99.00       430.69
 1233.00        2981.50           1649         100.00       435.05
 1233.03        2981.75           1653         100.00       435.05
 1233.05        2982.00           1656          84.00       365.30
 1233.08        2982.25           1659         105.00       456.85
 1233.11        2982.50           1663          90.00       391.46
 1233.14        2982.75           1666         106.00       461.21
 1233.17        2983.00           1669          99.00       430.69
 1233.20        2983.25           1673          80.00       347.87
 1233.22        2983.50           1676          89.00       387.10
 1233.25        2983.75           1679          98.00       426.33
 1233.28        2984.00           1683         105.00       456.85
HS scan finished at 20:33:35
end
