************************************************************
  HS Scan of (1) Internal mercury lamp
************************************************************
Integration time is 0.2294 seconds per sample
dh150517Kaunas 54.88398-23.83586 2.857833pr1000
************************************************************
Dead Time -------------------------  3E-08 
Number of Cycles Used -------------  4 
Starting Wavelength (Angstroms) ---  2950 
Final Wavelength (Angstoms) -------  2984 
Wavelength Increment (Angstroms) --  .25 
Filter Wheel #1 Position ---------- (1) Ground quartz diffuser (ND=2.32)
Filter Wheel #2 Position ---------- (1) Neutral Density 0.494



************************************************************
HS scan start time = 19:25:37
Dark Count =  .1 


Time (GMT)  Wavelength (Ang)  Step Number  Raw Counts  Counts/Second

 1166.06        2950.00           1229         119.00       518.32
 1166.16        2950.25           1232         124.00       540.11
 1166.19        2950.50           1236         125.00       544.47
 1166.21        2950.75           1239         120.00       522.68
 1166.24        2951.00           1242         119.00       518.32
 1166.27        2951.25           1246         117.00       509.60
 1166.30        2951.50           1249         118.00       513.96
 1166.32        2951.75           1252         124.00       540.11
 1166.35        2952.00           1255         122.00       531.39
 1166.38        2952.25           1259         128.00       557.55
 1166.41        2952.50           1262         112.00       487.80
 1166.44        2952.75           1265         120.00       522.68
 1166.47        2953.00           1269         118.00       513.96
 1166.50        2953.25           1272         127.00       553.19
 1166.52        2953.50           1275         121.00       527.04
 1166.55        2953.75           1279         138.00       601.14
 1166.58        2954.00           1282         113.00       492.16
 1166.61        2954.25           1285         124.00       540.11
 1166.63        2954.50           1289         124.00       540.11
 1166.66        2954.75           1292         127.00       553.19
 1166.69        2955.00           1295         105.00       457.29
 1166.72        2955.25           1299         119.00       518.32
 1166.74        2955.50           1302         123.00       535.75
 1166.77        2955.75           1305         122.00       531.39
 1166.80        2956.00           1309         117.00       509.60
 1166.83        2956.25           1312         120.00       522.68
 1166.85        2956.50           1315         127.00       553.19
 1166.89        2956.75           1319         117.00       509.60
 1166.92        2957.00           1322         117.00       509.60
 1166.95        2957.25           1325         110.00       479.08
 1166.98        2957.50           1329         115.00       500.88
 1167.00        2957.75           1332         116.00       505.24
 1167.03        2958.00           1335         123.00       535.75
 1167.06        2958.25           1339         122.00       531.39
 1167.09        2958.50           1342         125.00       544.47
 1167.11        2958.75           1345         113.00       492.16
 1167.14        2959.00           1349         126.00       548.83
 1167.17        2959.25           1352         112.00       487.80
 1167.20        2959.50           1355         107.00       466.00
 1167.23        2959.75           1359         121.00       527.04
 1167.25        2960.00           1362         111.00       483.44
 1167.28        2960.25           1365         122.00       531.39
 1167.31        2960.50           1369         124.00       540.11
 1167.34        2960.75           1372         123.00       535.75
 1167.36        2961.00           1375         131.00       570.63
 1167.39        2961.25           1379         154.00       670.89
 1167.42        2961.50           1382         228.00       993.49
 1167.45        2961.75           1385         726.00      3164.64
 1167.47        2962.00           1389        2547.00     11106.14
 1167.50        2962.25           1392        4534.00     19775.90
 1167.53        2962.50           1395        6954.00     30341.03
 1167.56        2962.75           1399       10841.00     47324.78
 1167.59        2963.00           1402       14111.00     61626.04
 1167.61        2963.25           1405       17028.00     74393.85
 1167.64        2963.50           1409       20753.00     90712.53
 1167.67        2963.75           1412       23828.00    104195.70
 1167.70        2964.00           1415       27208.00    119028.90
 1167.72        2964.25           1419       30915.00    135312.40
 1167.75        2964.50           1422       34297.00    150182.10
 1167.78        2964.75           1425       37606.00    164743.80
 1167.81        2965.00           1429       41198.00    180565.30
 1167.84        2965.25           1432       44402.00    194690.50
 1167.87        2965.50           1435       47492.00    208324.50
 1167.90        2965.75           1439       50812.00    222985.80
 1167.92        2966.00           1442       53815.00    236258.40
 1167.95        2966.25           1445       55987.00    245864.80
 1167.98        2966.50           1449       59413.00    261028.70
 1168.01        2966.75           1452       61070.00    268367.80
 1168.03        2967.00           1455       61851.00    271828.00
 1168.06        2967.25           1459       62305.00    273839.80
 1168.09        2967.50           1462       62045.00    272687.70
 1168.12        2967.75           1465       62111.00    272980.10
 1168.15        2968.00           1469       60828.00    267295.70
 1168.18        2968.25           1472       59585.00    261790.40
 1168.21        2968.50           1475       57026.00    250462.10
 1168.23        2968.75           1479       53654.00    235546.60
 1168.26        2969.00           1482       51267.00    224996.20
 1168.29        2969.25           1485       48649.00    213432.40
 1168.32        2969.50           1489       44764.00    196287.20
 1168.35        2969.75           1492       41718.00    182856.90
 1168.37        2970.00           1495       38717.00    169635.70
 1168.40        2970.25           1499       34460.00    150899.10
 1168.43        2970.50           1502       31190.00    136521.00
 1168.46        2970.75           1505       28626.00    125255.80
 1168.49        2971.00           1509       24898.00    108890.00
 1168.51        2971.25           1512       21911.00     95788.83
 1168.54        2971.50           1515       19197.00     83893.97
 1168.58        2971.75           1519       15989.00     69844.97
 1168.61        2972.00           1522       13263.00     57916.15
 1168.64        2972.25           1525       10636.00     46428.62
 1168.66        2972.50           1529        6714.00     29292.95
 1168.69        2972.75           1532        3493.00     15233.20
 1168.72        2973.00           1536        1069.00      4660.20
 1168.75        2973.25           1539         412.00      1795.65
 1168.77        2973.50           1542         190.00       827.83
 1168.80        2973.75           1546         152.00       662.18
 1168.83        2974.00           1549         145.00       631.66
 1168.86        2974.25           1552         138.00       601.14
 1168.88        2974.50           1556         131.00       570.63
 1168.91        2974.75           1559         123.00       535.75
 1168.94        2975.00           1562         119.00       518.32
 1168.97        2975.25           1566         116.00       505.24
 1168.99        2975.50           1569         111.00       483.44
 1169.02        2975.75           1572         111.00       483.44
 1169.05        2976.00           1576         112.00       487.80
 1169.08        2976.25           1579         102.00       444.21
 1169.10        2976.50           1582         113.00       492.16
 1169.13        2976.75           1586         119.00       518.32
 1169.16        2977.00           1589         110.00       479.08
 1169.19        2977.25           1592         105.00       457.29
 1169.21        2977.50           1596         108.00       470.36
 1169.24        2977.75           1599         107.00       466.00
 1169.27        2978.00           1602         101.00       439.85
 1169.30        2978.25           1606         112.00       487.80
 1169.33        2978.50           1609         100.00       435.49
 1169.36        2978.75           1612         116.00       505.24
 1169.39        2979.00           1616         106.00       461.65
 1169.41        2979.25           1619         108.00       470.36
 1169.44        2979.50           1623         110.00       479.08
 1169.47        2979.75           1626         106.00       461.65
 1169.50        2980.00           1629         107.00       466.00
 1169.53        2980.25           1633          99.00       431.13
 1169.55        2980.50           1636         107.00       466.00
 1169.58        2980.75           1639         103.00       448.57
 1169.61        2981.00           1643          96.00       418.05
 1169.64        2981.25           1646         111.00       483.44
 1169.66        2981.50           1649         106.00       461.65
 1169.69        2981.75           1653         107.00       466.00
 1169.72        2982.00           1656         112.00       487.80
 1169.75        2982.25           1659         105.00       457.29
 1169.77        2982.50           1663          95.00       413.69
 1169.80        2982.75           1666         104.00       452.93
 1169.83        2983.00           1669         100.00       435.49
 1169.86        2983.25           1673         111.00       483.44
 1169.88        2983.50           1676         101.00       439.85
 1169.91        2983.75           1679         100.00       435.49
 1169.94        2984.00           1683         106.00       461.65
HS scan finished at 19:30:14
end
