************************************************************
  HS Scan of (1) Internal mercury lamp
************************************************************
Integration time is 0.2294 seconds per sample
dh160518Delft 52.017-4.35 2.750537pr1000
************************************************************
Dead Time -------------------------  2.7E-08 
Number of Cycles Used -------------  4 
Starting Wavelength (Angstroms) ---  2950 
Final Wavelength (Angstoms) -------  2984 
Wavelength Increment (Angstroms) --  .25 
Filter Wheel #1 Position ---------- (1) Ground quartz diffuser (ND=2.32)
Filter Wheel #2 Position ---------- (1) Neutral Density 0.494



************************************************************
HS scan start time = 03:00:44
Dark Count =  .1 


Time (GMT)  Wavelength (Ang)  Step Number  Raw Counts  Counts/Second

  181.19        2950.00           1229         113.00       492.16
  181.28        2950.25           1232         121.00       527.03
  181.31        2950.50           1236         112.00       487.80
  181.34        2950.75           1239         112.00       487.80
  181.37        2951.00           1242         126.00       548.83
  181.40        2951.25           1246         111.00       483.44
  181.43        2951.50           1249         117.00       509.60
  181.46        2951.75           1252         116.00       505.24
  181.48        2952.00           1256         118.00       513.96
  181.51        2952.25           1259         110.00       479.08
  181.54        2952.50           1262         110.00       479.08
  181.57        2952.75           1266         111.00       483.44
  181.60        2953.00           1269         107.00       466.00
  181.62        2953.25           1272         118.00       513.96
  181.65        2953.50           1276         112.00       487.80
  181.68        2953.75           1279         112.00       487.80
  181.71        2954.00           1282         123.00       535.75
  181.74        2954.25           1286         120.00       522.68
  181.77        2954.50           1289         123.00       535.75
  181.79        2954.75           1292         114.00       496.52
  181.82        2955.00           1296         115.00       500.88
  181.85        2955.25           1299         112.00       487.80
  181.88        2955.50           1302         112.00       487.80
  181.91        2955.75           1306         124.00       540.11
  181.94        2956.00           1309         115.00       500.88
  181.97        2956.25           1312         117.00       509.60
  181.99        2956.50           1316         110.00       479.08
  182.02        2956.75           1319         107.00       466.00
  182.05        2957.00           1322         119.00       518.32
  182.08        2957.25           1326         116.00       505.24
  182.11        2957.50           1329         113.00       492.16
  182.14        2957.75           1332         114.00       496.52
  182.16        2958.00           1336         111.00       483.44
  182.19        2958.25           1339         116.00       505.24
  182.22        2958.50           1342         105.00       457.29
  182.25        2958.75           1345         110.00       479.08
  182.28        2959.00           1349         118.00       513.96
  182.30        2959.25           1352         115.00       500.88
  182.33        2959.50           1355         106.00       461.64
  182.36        2959.75           1359         128.00       557.55
  182.39        2960.00           1362         109.00       474.72
  182.42        2960.25           1365         114.00       496.52
  182.45        2960.50           1369         116.00       505.24
  182.47        2960.75           1372         140.00       609.86
  182.50        2961.00           1375         142.00       618.58
  182.53        2961.25           1379         143.00       622.94
  182.56        2961.50           1382         270.00      1176.58
  182.59        2961.75           1385         981.00      4276.43
  182.62        2962.00           1389        2758.00     12026.14
  182.64        2962.25           1392        4691.00     20459.86
  182.67        2962.50           1395        7107.00     31006.33
  182.70        2962.75           1399       10527.00     45945.81
  182.73        2963.00           1402       13847.00     60460.00
  182.76        2963.25           1405       16566.00     72355.25
  182.79        2963.50           1409       19696.00     86058.06
  182.81        2963.75           1412       22734.00     99367.81
  182.84        2964.00           1415       25617.00    112007.40
  182.87        2964.25           1419       28986.00    126788.60
  182.90        2964.50           1422       31824.00    139249.20
  182.93        2964.75           1425       35179.00    153990.70
  182.96        2965.00           1429       38585.00    168968.30
  182.98        2965.25           1432       40993.00    179564.60
  183.01        2965.50           1435       43740.00    191660.10
  183.04        2965.75           1439       47122.00    206562.50
  183.07        2966.00           1442       49601.00    217493.60
  183.10        2966.25           1445       51895.00    227614.70
  183.13        2966.50           1449       54614.00    239618.10
  183.16        2966.75           1452       55830.00    244988.80
  183.18        2967.00           1455       56502.00    247957.50
  183.21        2967.25           1459       56382.00    247427.30
  183.24        2967.50           1462       56351.00    247290.40
  183.27        2967.75           1465       56249.00    246839.70
  183.30        2968.00           1469       55223.00    242307.60
  183.33        2968.25           1472       53351.00    234041.40
  183.35        2968.50           1475       51167.00    224402.20
  183.38        2968.75           1479       47927.00    210111.50
  183.41        2969.00           1482       45664.00    200136.50
  183.44        2969.25           1485       43412.00    190215.50
  183.47        2969.50           1489       40116.00    175704.70
  183.50        2969.75           1492       37311.00    163364.60
  183.52        2970.00           1495       34799.00    152320.40
  183.55        2970.25           1499       30779.00    134660.00
  183.58        2970.50           1502       27821.00    121675.90
  183.61        2970.75           1505       25485.00    111428.50
  183.64        2971.00           1509       21984.00     96081.10
  183.67        2971.25           1512       19272.00     84201.24
  183.70        2971.50           1515       16522.00     72162.70
  183.72        2971.75           1519       13701.00     59821.48
  183.75        2972.00           1522       11245.00     49083.75
  183.78        2972.25           1525        8542.00     37273.33
  183.81        2972.50           1529        5215.00     22746.75
  183.84        2972.75           1532        2536.00     11057.79
  183.86        2973.00           1535        1012.00      4411.60
  183.89        2973.25           1539         284.00      1237.62
  183.92        2973.50           1542         193.00       840.91
  183.95        2973.75           1546         142.00       618.58
  183.98        2974.00           1549         145.00       631.66
  184.00        2974.25           1552         131.00       570.63
  184.03        2974.50           1556         122.00       531.39
  184.06        2974.75           1559         125.00       544.47
  184.09        2975.00           1562         113.00       492.16
  184.12        2975.25           1566         113.00       492.16
  184.15        2975.50           1569         111.00       483.44
  184.17        2975.75           1572         115.00       500.88
  184.20        2976.00           1576         114.00       496.52
  184.23        2976.25           1579          95.00       413.69
  184.26        2976.50           1582         114.00       496.52
  184.29        2976.75           1586         115.00       500.88
  184.31        2977.00           1589         107.00       466.00
  184.34        2977.25           1592         103.00       448.57
  184.37        2977.50           1596         108.00       470.36
  184.40        2977.75           1599         108.00       470.36
  184.43        2978.00           1602         104.00       452.93
  184.46        2978.25           1606         110.00       479.08
  184.48        2978.50           1609         103.00       448.57
  184.51        2978.75           1612         101.00       439.85
  184.54        2979.00           1616          96.00       418.05
  184.57        2979.25           1619         103.00       448.57
  184.60        2979.50           1622         101.00       439.85
  184.63        2979.75           1626         103.00       448.57
  184.66        2980.00           1629         102.00       444.21
  184.68        2980.25           1632         105.00       457.29
  184.71        2980.50           1636         100.00       435.49
  184.74        2980.75           1639         106.00       461.64
  184.77        2981.00           1642         100.00       435.49
  184.80        2981.25           1646         109.00       474.72
  184.82        2981.50           1649          94.00       409.33
  184.85        2981.75           1653          96.00       418.05
  184.88        2982.00           1656         106.00       461.64
  184.91        2982.25           1659         108.00       470.36
  184.94        2982.50           1663         100.00       435.49
  184.97        2982.75           1666         101.00       439.85
  184.99        2983.00           1669          97.00       422.41
  185.02        2983.25           1673         100.00       435.49
  185.05        2983.50           1676         100.00       435.49
  185.08        2983.75           1679          95.00       413.69
  185.11        2984.00           1683          97.00       422.41
HS scan finished at 03:05:24
end
************************************************************
  HS Scan of (1) Internal mercury lamp
************************************************************
Integration time is 0.2294 seconds per sample
dh160518Delft 52.017-4.35 2.643241pr1000
************************************************************
Dead Time -------------------------  2.7E-08 
Number of Cycles Used -------------  4 
Starting Wavelength (Angstroms) ---  2950 
Final Wavelength (Angstoms) -------  2984 
Wavelength Increment (Angstroms) --  .25 
Filter Wheel #1 Position ---------- (1) Ground quartz diffuser (ND=2.32)
Filter Wheel #2 Position ---------- (1) Neutral Density 0.494



************************************************************
HS scan start time = 20:28:57
Dark Count =  .1 


Time (GMT)  Wavelength (Ang)  Step Number  Raw Counts  Counts/Second

 1229.40        2950.00           1229         110.00       479.08
 1229.50        2950.25           1232         133.00       579.35
 1229.52        2950.50           1236         112.00       487.80
 1229.55        2950.75           1239         120.00       522.68
 1229.58        2951.00           1242         115.00       500.88
 1229.61        2951.25           1246         121.00       527.03
 1229.64        2951.50           1249         123.00       535.75
 1229.67        2951.75           1252         122.00       531.39
 1229.69        2952.00           1256         127.00       553.19
 1229.72        2952.25           1259         123.00       535.75
 1229.75        2952.50           1262         120.00       522.68
 1229.78        2952.75           1266         120.00       522.68
 1229.81        2953.00           1269         112.00       487.80
 1229.84        2953.25           1272         134.00       583.71
 1229.86        2953.50           1276         122.00       531.39
 1229.89        2953.75           1279         121.00       527.03
 1229.92        2954.00           1282         130.00       566.27
 1229.95        2954.25           1286         123.00       535.75
 1229.98        2954.50           1289         121.00       527.03
 1230.00        2954.75           1292         124.00       540.11
 1230.03        2955.00           1296         123.00       535.75
 1230.06        2955.25           1299         122.00       531.39
 1230.09        2955.50           1302         121.00       527.03
 1230.12        2955.75           1306         120.00       522.68
 1230.14        2956.00           1309         121.00       527.03
 1230.17        2956.25           1312         114.00       496.52
 1230.20        2956.50           1316         111.00       483.44
 1230.23        2956.75           1319         119.00       518.32
 1230.26        2957.00           1322         119.00       518.32
 1230.29        2957.25           1326         112.00       487.80
 1230.31        2957.50           1329         107.00       466.00
 1230.34        2957.75           1332         106.00       461.64
 1230.37        2958.00           1336         116.00       505.24
 1230.40        2958.25           1339         124.00       540.11
 1230.43        2958.50           1342         118.00       513.96
 1230.45        2958.75           1345         121.00       527.03
 1230.48        2959.00           1349         115.00       500.88
 1230.51        2959.25           1352         117.00       509.60
 1230.54        2959.50           1355         121.00       527.03
 1230.57        2959.75           1359         119.00       518.32
 1230.60        2960.00           1362         106.00       461.64
 1230.62        2960.25           1365         112.00       487.80
 1230.65        2960.50           1369         117.00       509.60
 1230.68        2960.75           1372         123.00       535.75
 1230.71        2961.00           1375         135.00       588.07
 1230.74        2961.25           1379         156.00       679.61
 1230.76        2961.50           1382         228.00       993.49
 1230.79        2961.75           1385         740.00      3225.65
 1230.82        2962.00           1389        2498.00     10892.04
 1230.85        2962.25           1392        4565.00     19910.00
 1230.88        2962.50           1395        7062.00     30809.84
 1230.91        2962.75           1399       10123.00     44180.40
 1230.93        2963.00           1402       12309.00     53734.84
 1230.96        2963.25           1405       14643.00     63941.60
 1230.99        2963.50           1409       18065.00     78916.45
 1231.02        2963.75           1412       20630.00     90148.98
 1231.05        2964.00           1415       23261.00    101677.60
 1231.08        2964.25           1419       26426.00    115555.70
 1231.10        2964.50           1422       28664.00    125375.30
 1231.13        2964.75           1425       31279.00    136855.70
 1231.16        2965.00           1429       34825.00    152434.70
 1231.19        2965.25           1432       37112.00    162489.40
 1231.22        2965.50           1435       39473.00    172875.20
 1231.25        2965.75           1439       42267.00    185173.30
 1231.27        2966.00           1442       44478.00    194911.00
 1231.30        2966.25           1445       47283.00    207272.20
 1231.33        2966.50           1449       49720.00    218018.50
 1231.36        2966.75           1452       51189.00    224499.20
 1231.39        2967.00           1455       51508.00    225906.90
 1231.42        2967.25           1459       51615.00    226379.00
 1231.44        2967.50           1462       51688.00    226701.20
 1231.47        2967.75           1465       51569.00    226176.10
 1231.50        2968.00           1469       50182.00    220056.40
 1231.53        2968.25           1472       48531.00    212774.70
 1231.56        2968.50           1475       46700.00    204702.40
 1231.59        2968.75           1479       44079.00    193153.40
 1231.61        2969.00           1482       42011.00    184046.10
 1231.64        2969.25           1485       39654.00    173671.70
 1231.67        2969.50           1489       36180.00    158391.30
 1231.70        2969.75           1492       33703.00    147503.90
 1231.73        2970.00           1495       31398.00    137378.30
 1231.76        2970.25           1499       28266.00    123628.60
 1231.78        2970.50           1502       25609.00    111972.30
 1231.81        2970.75           1505       23210.00    101454.10
 1231.84        2971.00           1509       19865.00     86798.21
 1231.87        2971.25           1512       17847.00     77962.10
 1231.90        2971.50           1515       15613.00     68185.15
 1231.93        2971.75           1519       12889.00     56270.70
 1231.95        2972.00           1522       10426.00     45504.44
 1231.98        2972.25           1525        7955.00     34709.50
 1232.01        2972.50           1529        4839.00     21105.75
 1232.04        2972.75           1532        2545.00     11097.05
 1232.07        2973.00           1535        1200.00      5231.34
 1232.10        2973.25           1539         328.00      1429.44
 1232.12        2973.50           1542         175.00       762.44
 1232.15        2973.75           1546         159.00       692.69
 1232.18        2974.00           1549         149.00       649.10
 1232.21        2974.25           1552         136.00       592.42
 1232.24        2974.50           1556         123.00       535.75
 1232.26        2974.75           1559         137.00       596.78
 1232.29        2975.00           1562         112.00       487.80
 1232.32        2975.25           1566         113.00       492.16
 1232.35        2975.50           1569         104.00       452.93
 1232.38        2975.75           1572         101.00       439.85
 1232.41        2976.00           1576         108.00       470.36
 1232.43        2976.25           1579         106.00       461.64
 1232.46        2976.50           1582         107.00       466.00
 1232.49        2976.75           1586         112.00       487.80
 1232.52        2977.00           1589         101.00       439.85
 1232.55        2977.25           1592         108.00       470.36
 1232.57        2977.50           1596         100.00       435.49
 1232.60        2977.75           1599         115.00       500.88
 1232.63        2978.00           1602         109.00       474.72
 1232.66        2978.25           1606         104.00       452.93
 1232.69        2978.50           1609         103.00       448.57
 1232.71        2978.75           1612         104.00       452.93
 1232.74        2979.00           1616         108.00       470.36
 1232.77        2979.25           1619         105.00       457.29
 1232.80        2979.50           1622         104.00       452.93
 1232.83        2979.75           1626          99.00       431.13
 1232.86        2980.00           1629         114.00       496.52
 1232.88        2980.25           1632         113.00       492.16
 1232.91        2980.50           1636         100.00       435.49
 1232.94        2980.75           1639         109.00       474.72
 1232.97        2981.00           1642         109.00       474.72
 1233.00        2981.25           1646          94.00       409.33
 1233.02        2981.50           1649          95.00       413.69
 1233.05        2981.75           1653         109.00       474.72
 1233.08        2982.00           1656         104.00       452.93
 1233.11        2982.25           1659         102.00       444.21
 1233.14        2982.50           1663         103.00       448.57
 1233.16        2982.75           1666          94.00       409.33
 1233.19        2983.00           1669         100.00       435.49
 1233.22        2983.25           1673         105.00       457.29
 1233.25        2983.50           1676         101.00       439.85
 1233.28        2983.75           1679         110.00       479.08
 1233.31        2984.00           1683          94.00       409.33
HS scan finished at 20:33:36
end
