************************************************************
  HS Scan of (1) Internal mercury lamp
************************************************************
Integration time is 0.2294 seconds per sample
dh170518Delft 52.017-4.35 2.589593pr1000
************************************************************
Dead Time -------------------------  2.7E-08 
Number of Cycles Used -------------  4 
Starting Wavelength (Angstroms) ---  2950 
Final Wavelength (Angstoms) -------  2984 
Wavelength Increment (Angstroms) --  .25 
Filter Wheel #1 Position ---------- (1) Ground quartz diffuser (ND=2.32)
Filter Wheel #2 Position ---------- (1) Neutral Density 0.494



************************************************************
HS scan start time = 02:11:46
Dark Count =  .1 


Time (GMT)  Wavelength (Ang)  Step Number  Raw Counts  Counts/Second

  132.21        2950.00           1229         128.00       557.55
  132.31        2950.25           1232         124.00       540.11
  132.34        2950.50           1236         133.00       579.35
  132.37        2950.75           1239         117.00       509.60
  132.39        2951.00           1242         134.00       583.71
  132.42        2951.25           1246         114.00       496.52
  132.45        2951.50           1249         114.00       496.52
  132.48        2951.75           1252         129.00       561.91
  132.51        2952.00           1256         118.00       513.96
  132.54        2952.25           1259         124.00       540.11
  132.56        2952.50           1262         119.00       518.32
  132.59        2952.75           1266         119.00       518.32
  132.62        2953.00           1269         128.00       557.55
  132.65        2953.25           1272         132.00       574.99
  132.68        2953.50           1276         120.00       522.68
  132.71        2953.75           1279         120.00       522.68
  132.73        2954.00           1282         118.00       513.96
  132.76        2954.25           1286         119.00       518.32
  132.79        2954.50           1289         120.00       522.68
  132.82        2954.75           1292         119.00       518.32
  132.85        2955.00           1296         110.00       479.08
  132.88        2955.25           1299         120.00       522.68
  132.90        2955.50           1302         128.00       557.55
  132.93        2955.75           1306         118.00       513.96
  132.96        2956.00           1309         121.00       527.03
  132.99        2956.25           1312         111.00       483.44
  133.02        2956.50           1316         115.00       500.88
  133.04        2956.75           1319         120.00       522.68
  133.07        2957.00           1322         126.00       548.83
  133.10        2957.25           1326         117.00       509.60
  133.13        2957.50           1329         118.00       513.96
  133.16        2957.75           1332         121.00       527.03
  133.19        2958.00           1336         116.00       505.24
  133.21        2958.25           1339         125.00       544.47
  133.24        2958.50           1342         122.00       531.39
  133.27        2958.75           1345         119.00       518.32
  133.30        2959.00           1349         114.00       496.52
  133.33        2959.25           1352         115.00       500.88
  133.36        2959.50           1355         112.00       487.80
  133.38        2959.75           1359         112.00       487.80
  133.41        2960.00           1362         130.00       566.27
  133.44        2960.25           1365         114.00       496.52
  133.47        2960.50           1369         124.00       540.11
  133.50        2960.75           1372         127.00       553.19
  133.52        2961.00           1375         136.00       592.42
  133.55        2961.25           1379         144.00       627.30
  133.58        2961.50           1382         251.00      1093.76
  133.61        2961.75           1385         819.00      3570.09
  133.64        2962.00           1389        2257.00      9840.89
  133.67        2962.25           1392        4203.00     18330.34
  133.69        2962.50           1395        6485.00     28290.57
  133.72        2962.75           1399        9779.00     42677.32
  133.75        2963.00           1402       12447.00     54338.17
  133.78        2963.25           1405       14753.00     64422.78
  133.81        2963.50           1409       18124.00     79174.75
  133.84        2963.75           1412       21036.00     91927.55
  133.87        2964.00           1415       23402.00    102295.70
  133.89        2964.25           1419       26756.00    117003.30
  133.92        2964.50           1422       29443.00    128794.50
  133.95        2964.75           1425       31928.00    139706.00
  133.98        2965.00           1429       35438.00    155129.20
  134.01        2965.25           1432       37889.00    165906.70
  134.04        2965.50           1435       40311.00    176562.90
  134.06        2965.75           1439       43513.00    190660.30
  134.09        2966.00           1442       45279.00    198440.10
  134.12        2966.25           1445       47221.00    206998.90
  134.15        2966.50           1449       50144.00    219888.80
  134.18        2966.75           1452       51712.00    226807.10
  134.20        2967.00           1455       52066.00    228369.40
  134.23        2967.25           1459       52355.00    229644.90
  134.26        2967.50           1462       52235.00    229115.20
  134.29        2967.75           1465       52004.00    228095.70
  134.32        2968.00           1469       50898.00    223215.20
  134.35        2968.25           1472       49216.00    215795.50
  134.38        2968.50           1475       47258.00    207162.00
  134.40        2968.75           1479       44639.00    195620.30
  134.43        2969.00           1482       42682.00    187000.60
  134.46        2969.25           1485       40654.00    178072.50
  134.49        2969.50           1489       37157.00    162687.30
  134.52        2969.75           1492       34444.00    150760.20
  134.55        2970.00           1495       31969.00    139886.10
  134.57        2970.25           1499       28298.00    123769.10
  134.60        2970.50           1502       25914.00    113310.00
  134.63        2970.75           1505       23729.00    103729.10
  134.66        2971.00           1509       20375.00     89031.99
  134.69        2971.25           1512       17904.00     78211.63
  134.72        2971.50           1515       15703.00     68578.93
  134.75        2971.75           1519       13128.00     57315.75
  134.77        2972.00           1522       10530.00     45958.92
  134.80        2972.25           1525        8154.00     35578.63
  134.83        2972.50           1529        4912.00     21424.33
  134.86        2972.75           1532        2472.00     10778.64
  134.89        2973.00           1535        1081.00      4712.46
  134.92        2973.25           1539         330.00      1438.16
  134.94        2973.50           1542         183.00       797.31
  134.97        2973.75           1546         148.00       644.74
  135.00        2974.00           1549         147.00       640.38
  135.03        2974.25           1552         126.00       548.83
  135.06        2974.50           1556         127.00       553.19
  135.08        2974.75           1559         122.00       531.39
  135.11        2975.00           1562         110.00       479.08
  135.14        2975.25           1566         111.00       483.44
  135.17        2975.50           1569         114.00       496.52
  135.20        2975.75           1572         109.00       474.72
  135.23        2976.00           1576         107.00       466.00
  135.25        2976.25           1579         106.00       461.64
  135.28        2976.50           1582         100.00       435.49
  135.31        2976.75           1586         105.00       457.29
  135.34        2977.00           1589         108.00       470.36
  135.37        2977.25           1592          99.00       431.13
  135.40        2977.50           1596         105.00       457.29
  135.42        2977.75           1599         102.00       444.21
  135.45        2978.00           1602         108.00       470.36
  135.48        2978.25           1606         101.00       439.85
  135.51        2978.50           1609         103.00       448.57
  135.54        2978.75           1612          98.00       426.77
  135.56        2979.00           1616         104.00       452.93
  135.59        2979.25           1619          99.00       431.13
  135.62        2979.50           1622          91.00       396.26
  135.65        2979.75           1626         115.00       500.88
  135.68        2980.00           1629          98.00       426.77
  135.71        2980.25           1632          99.00       431.13
  135.73        2980.50           1636         106.00       461.64
  135.76        2980.75           1639         115.00       500.88
  135.79        2981.00           1642         107.00       466.00
  135.82        2981.25           1646         106.00       461.64
  135.85        2981.50           1649          98.00       426.77
  135.87        2981.75           1653         112.00       487.80
  135.90        2982.00           1656         102.00       444.21
  135.93        2982.25           1659         103.00       448.57
  135.96        2982.50           1663         106.00       461.64
  135.99        2982.75           1666         107.00       466.00
  136.02        2983.00           1669          98.00       426.77
  136.04        2983.25           1673         101.00       439.85
  136.07        2983.50           1676          93.00       404.97
  136.10        2983.75           1679          99.00       431.13
  136.13        2984.00           1683          97.00       422.41
HS scan finished at 02:16:26
end
************************************************************
  HS Scan of (1) Internal mercury lamp
************************************************************
Integration time is 0.2294 seconds per sample
dh170518Delft 52.017-4.35 2.589593pr1000
************************************************************
Dead Time -------------------------  2.7E-08 
Number of Cycles Used -------------  4 
Starting Wavelength (Angstroms) ---  2950 
Final Wavelength (Angstoms) -------  2984 
Wavelength Increment (Angstroms) --  .25 
Filter Wheel #1 Position ---------- (1) Ground quartz diffuser (ND=2.32)
Filter Wheel #2 Position ---------- (1) Neutral Density 0.494



************************************************************
HS scan start time = 20:30:54
Dark Count =  .1 


Time (GMT)  Wavelength (Ang)  Step Number  Raw Counts  Counts/Second

 1231.34        2950.00           1229         122.00       531.39
 1231.44        2950.25           1232         124.00       540.11
 1231.47        2950.50           1236         127.00       553.19
 1231.50        2950.75           1239         121.00       527.03
 1231.53        2951.00           1242         121.00       527.03
 1231.56        2951.25           1246         125.00       544.47
 1231.58        2951.50           1249         127.00       553.19
 1231.61        2951.75           1252         112.00       487.80
 1231.64        2952.00           1256         126.00       548.83
 1231.67        2952.25           1259         122.00       531.39
 1231.70        2952.50           1262         120.00       522.68
 1231.72        2952.75           1266         130.00       566.27
 1231.75        2953.00           1269         122.00       531.39
 1231.78        2953.25           1272         122.00       531.39
 1231.81        2953.50           1276         127.00       553.19
 1231.84        2953.75           1279         116.00       505.24
 1231.87        2954.00           1282         116.00       505.24
 1231.89        2954.25           1286         121.00       527.03
 1231.92        2954.50           1289         122.00       531.39
 1231.95        2954.75           1292         128.00       557.55
 1231.98        2955.00           1296         121.00       527.03
 1232.01        2955.25           1299         118.00       513.96
 1232.04        2955.50           1302         124.00       540.11
 1232.06        2955.75           1306         128.00       557.55
 1232.09        2956.00           1309         123.00       535.75
 1232.12        2956.25           1312         115.00       500.88
 1232.15        2956.50           1316         113.00       492.16
 1232.18        2956.75           1319         124.00       540.11
 1232.20        2957.00           1322         131.00       570.63
 1232.23        2957.25           1326         130.00       566.27
 1232.26        2957.50           1329         118.00       513.96
 1232.29        2957.75           1332         118.00       513.96
 1232.32        2958.00           1336         118.00       513.96
 1232.35        2958.25           1339         119.00       518.32
 1232.37        2958.50           1342         118.00       513.96
 1232.40        2958.75           1345         122.00       531.39
 1232.43        2959.00           1349         124.00       540.11
 1232.46        2959.25           1352         126.00       548.83
 1232.49        2959.50           1355         119.00       518.32
 1232.51        2959.75           1359         124.00       540.11
 1232.54        2960.00           1362         109.00       474.72
 1232.57        2960.25           1365         117.00       509.60
 1232.60        2960.50           1369         118.00       513.96
 1232.63        2960.75           1372         133.00       579.35
 1232.65        2961.00           1375         136.00       592.42
 1232.68        2961.25           1379         160.00       697.05
 1232.71        2961.50           1382         212.00       923.74
 1232.74        2961.75           1385         705.00      3073.05
 1232.77        2962.00           1389        2138.00      9321.88
 1232.80        2962.25           1392        3771.00     16445.40
 1232.82        2962.50           1395        5860.00     25562.10
 1232.85        2962.75           1399        9068.00     39571.03
 1232.88        2963.00           1402       11595.00     50613.59
 1232.91        2963.25           1405       14376.00     62773.71
 1232.94        2963.50           1409       17771.00     77629.41
 1232.97        2963.75           1412       20223.00     88366.21
 1232.99        2964.00           1415       22732.00     99359.04
 1233.02        2964.25           1419       25908.00    113283.60
 1233.05        2964.50           1422       28484.00    124585.30
 1233.08        2964.75           1425       30851.00    134976.20
 1233.11        2965.00           1429       33279.00    145640.90
 1233.13        2965.25           1432       35566.00    155691.90
 1233.16        2965.50           1435       37729.00    165203.00
 1233.19        2965.75           1439       40869.00    179018.80
 1233.22        2966.00           1442       43470.00    190470.90
 1233.25        2966.25           1445       45604.00    199872.10
 1233.28        2966.50           1449       48149.00    211090.30
 1233.30        2966.75           1452       49682.00    217850.90
 1233.33        2967.00           1455       50052.00    219483.00
 1233.36        2967.25           1459       50289.00    220528.50
 1233.39        2967.50           1462       50105.00    219716.80
 1233.42        2967.75           1465       50106.00    219721.20
 1233.45        2968.00           1469       49542.00    217233.40
 1233.47        2968.25           1472       48266.00    211606.20
 1233.50        2968.50           1475       46580.00    204173.40
 1233.53        2968.75           1479       43443.00    190352.00
 1233.56        2969.00           1482       40718.00    178354.20
 1233.59        2969.25           1485       38434.00    168304.00
 1233.62        2969.50           1489       35708.00    156316.10
 1233.64        2969.75           1492       33333.00    145878.10
 1233.67        2970.00           1495       30816.00    134822.50
 1233.70        2970.25           1499       27518.00    120346.40
 1233.73        2970.50           1502       25808.00    112845.10
 1233.76        2970.75           1505       23295.00    101826.70
 1233.79        2971.00           1509       20187.00     88208.52
 1233.81        2971.25           1512       17810.00     77800.15
 1233.84        2971.50           1515       15119.00     66023.88
 1233.87        2971.75           1519       11913.00     52003.66
 1233.90        2972.00           1522        9638.00     42061.26
 1233.93        2972.25           1525        7502.00     32731.18
 1233.95        2972.50           1529        4890.00     21328.32
 1233.98        2972.75           1532        2681.00     11690.26
 1234.01        2973.00           1535        1163.00      5070.01
 1234.04        2973.25           1539         342.00      1490.47
 1234.07        2973.50           1542         209.00       910.66
 1234.10        2973.75           1546         148.00       644.74
 1234.13        2974.00           1549         139.00       605.50
 1234.15        2974.25           1552         141.00       614.22
 1234.18        2974.50           1556         127.00       553.19
 1234.21        2974.75           1559         128.00       557.55
 1234.24        2975.00           1562         119.00       518.32
 1234.27        2975.25           1566         117.00       509.60
 1234.29        2975.50           1569         107.00       466.00
 1234.32        2975.75           1572         109.00       474.72
 1234.35        2976.00           1576         105.00       457.29
 1234.38        2976.25           1579         108.00       470.36
 1234.41        2976.50           1582         113.00       492.16
 1234.43        2976.75           1586         121.00       527.03
 1234.46        2977.00           1589         115.00       500.88
 1234.49        2977.25           1592         106.00       461.64
 1234.52        2977.50           1596         112.00       487.80
 1234.55        2977.75           1599         114.00       496.52
 1234.57        2978.00           1602         111.00       483.44
 1234.60        2978.25           1606         106.00       461.64
 1234.63        2978.50           1609         114.00       496.52
 1234.66        2978.75           1612         109.00       474.72
 1234.69        2979.00           1616         103.00       448.57
 1234.72        2979.25           1619         106.00       461.64
 1234.74        2979.50           1622         109.00       474.72
 1234.77        2979.75           1626         108.00       470.36
 1234.80        2980.00           1629         106.00       461.64
 1234.83        2980.25           1632         105.00       457.29
 1234.86        2980.50           1636         107.00       466.00
 1234.88        2980.75           1639         105.00       457.29
 1234.91        2981.00           1642          99.00       431.13
 1234.94        2981.25           1646          98.00       426.77
 1234.97        2981.50           1649          99.00       431.13
 1235.00        2981.75           1653         109.00       474.72
 1235.03        2982.00           1656         104.00       452.93
 1235.05        2982.25           1659          97.00       422.41
 1235.08        2982.50           1663         111.00       483.44
 1235.11        2982.75           1666         107.00       466.00
 1235.14        2983.00           1669          96.00       418.05
 1235.17        2983.25           1673         107.00       466.00
 1235.19        2983.50           1676          99.00       431.13
 1235.22        2983.75           1679         100.00       435.49
 1235.25        2984.00           1683         105.00       457.29
HS scan finished at 20:35:33
end
