************************************************************
  HS Scan of (1) Internal mercury lamp
************************************************************
Integration time is 0.2294 seconds per sample
dh170517Kaunas 54.88398-23.83586 2.750537pr1000
************************************************************
Dead Time -------------------------  3E-08 
Number of Cycles Used -------------  4 
Starting Wavelength (Angstroms) ---  2950 
Final Wavelength (Angstoms) -------  2984 
Wavelength Increment (Angstroms) --  .25 
Filter Wheel #1 Position ---------- (1) Ground quartz diffuser (ND=2.32)
Filter Wheel #2 Position ---------- (1) Neutral Density 0.494



************************************************************
HS scan start time = 23:49:01
Dark Count =  0 


Time (GMT)  Wavelength (Ang)  Step Number  Raw Counts  Counts/Second

 1429.47        2950.00           1229         119.00       518.75
 1429.57        2950.25           1232         126.00       549.27
 1429.59        2950.50           1236         123.00       536.19
 1429.62        2950.75           1239         103.00       449.00
 1429.65        2951.00           1242         119.00       518.75
 1429.68        2951.25           1246         129.00       562.35
 1429.70        2951.50           1249         121.00       527.47
 1429.73        2951.75           1252         125.00       544.91
 1429.76        2952.00           1255         120.00       523.11
 1429.79        2952.25           1259         115.00       501.32
 1429.82        2952.50           1262         126.00       549.27
 1429.84        2952.75           1265         128.00       557.99
 1429.87        2953.00           1269         131.00       571.06
 1429.90        2953.25           1272         123.00       536.19
 1429.93        2953.50           1275         120.00       523.11
 1429.95        2953.75           1279         118.00       514.39
 1429.98        2954.00           1282         124.00       540.55
 1430.01        2954.25           1285         119.00       518.75
 1430.04        2954.50           1289         113.00       492.60
 1430.06        2954.75           1292         127.00       553.63
 1430.09        2955.00           1295         122.00       531.83
 1430.12        2955.25           1299         128.00       557.99
 1430.15        2955.50           1302         109.00       475.16
 1430.17        2955.75           1305         129.00       562.35
 1430.20        2956.00           1309         124.00       540.55
 1430.23        2956.25           1312         116.00       505.67
 1430.26        2956.50           1315         115.00       501.32
 1430.28        2956.75           1319         119.00       518.75
 1430.32        2957.00           1322         109.00       475.16
 1430.35        2957.25           1325         111.00       483.88
 1430.37        2957.50           1329         111.00       483.88
 1430.40        2957.75           1332         113.00       492.60
 1430.43        2958.00           1335         117.00       510.03
 1430.46        2958.25           1339         114.00       496.96
 1430.49        2958.50           1342         124.00       540.55
 1430.52        2958.75           1345         115.00       501.32
 1430.55        2959.00           1349         112.00       488.24
 1430.57        2959.25           1352         117.00       510.03
 1430.60        2959.50           1355         126.00       549.27
 1430.63        2959.75           1359         123.00       536.19
 1430.66        2960.00           1362         125.00       544.91
 1430.68        2960.25           1365         118.00       514.39
 1430.71        2960.50           1369         119.00       518.75
 1430.74        2960.75           1372         146.00       636.46
 1430.77        2961.00           1375         141.00       614.66
 1430.79        2961.25           1379         151.00       658.25
 1430.82        2961.50           1382         189.00       823.91
 1430.85        2961.75           1385         579.00      2524.17
 1430.88        2962.00           1389        2602.00     11346.49
 1430.90        2962.25           1392        4588.00     20012.01
 1430.93        2962.50           1395        6625.00     28904.74
 1430.96        2962.75           1399       10196.00     44505.77
 1430.99        2963.00           1402       13371.00     58389.03
 1431.01        2963.25           1405       16766.00     73247.10
 1431.04        2963.50           1409       20473.00     89485.77
 1431.07        2963.75           1412       23113.00    101060.10
 1431.10        2964.00           1415       25729.00    112537.10
 1431.13        2964.25           1419       30277.00    132509.10
 1431.15        2964.50           1422       33219.00    145441.40
 1431.18        2964.75           1425       35877.00    157133.90
 1431.21        2965.00           1429       39832.00    174547.20
 1431.24        2965.25           1432       42956.00    188314.60
 1431.27        2965.50           1435       45763.00    200694.70
 1431.29        2965.75           1439       49644.00    217826.80
 1431.32        2966.00           1442       52244.00    229314.10
 1431.35        2966.25           1445       55229.00    242512.10
 1431.38        2966.50           1449       58030.00    254906.20
 1431.41        2966.75           1452       59526.00    261529.50
 1431.44        2967.00           1455       60267.00    264811.20
 1431.47        2967.25           1459       60402.00    265409.20
 1431.50        2967.50           1462       60514.00    265905.20
 1431.53        2967.75           1465       60449.00    265617.30
 1431.55        2968.00           1469       59345.00    260728.00
 1431.58        2968.25           1472       57896.00    254313.00
 1431.61        2968.50           1475       55388.00    243215.40
 1431.64        2968.75           1479       51713.00    226967.40
 1431.67        2969.00           1482       49087.00    215367.00
 1431.69        2969.25           1485       46770.00    205138.30
 1431.72        2969.50           1489       43434.00    190422.10
 1431.75        2969.75           1492       40745.00    178569.60
 1431.78        2970.00           1495       38088.00    166866.40
 1431.80        2970.25           1499       34103.00    149329.20
 1431.83        2970.50           1502       31028.00    135809.40
 1431.86        2970.75           1505       27870.00    121936.10
 1431.89        2971.00           1509       24285.00    106201.00
 1431.91        2971.25           1512       21775.00     95193.00
 1431.94        2971.50           1515       18875.00     82483.71
 1431.97        2971.75           1519       15168.00     66251.86
 1432.00        2972.00           1522       12681.00     55370.89
 1432.02        2972.25           1525       10691.00     46669.49
 1432.06        2972.50           1529        6718.00     29310.86
 1432.09        2972.75           1532        4032.00     17585.56
 1432.11        2973.00           1536        1253.00      5462.97
 1432.14        2973.25           1539         458.00      1996.63
 1432.17        2973.50           1542         204.00       889.30
 1432.20        2973.75           1546         171.00       745.44
 1432.22        2974.00           1549         136.00       592.86
 1432.25        2974.25           1552         132.00       575.42
 1432.28        2974.50           1556         124.00       540.55
 1432.31        2974.75           1559         114.00       496.96
 1432.34        2975.00           1562         112.00       488.24
 1432.37        2975.25           1566         123.00       536.19
 1432.39        2975.50           1569         110.00       479.52
 1432.42        2975.75           1572         107.00       466.44
 1432.45        2976.00           1576         103.00       449.00
 1432.48        2976.25           1579         113.00       492.60
 1432.51        2976.50           1582         105.00       457.72
 1432.53        2976.75           1586         115.00       501.32
 1432.56        2977.00           1589         116.00       505.67
 1432.59        2977.25           1592         110.00       479.52
 1432.62        2977.50           1596          99.00       431.57
 1432.64        2977.75           1599         108.00       470.80
 1432.67        2978.00           1602         118.00       514.39
 1432.70        2978.25           1606         100.00       435.93
 1432.73        2978.50           1609         104.00       453.36
 1432.76        2978.75           1612         102.00       444.64
 1432.79        2979.00           1616         109.00       475.16
 1432.81        2979.25           1619         116.00       505.67
 1432.84        2979.50           1623         109.00       475.16
 1432.87        2979.75           1626         104.00       453.36
 1432.90        2980.00           1629         104.00       453.36
 1432.93        2980.25           1633         109.00       475.16
 1432.95        2980.50           1636         104.00       453.36
 1432.98        2980.75           1639          96.00       418.49
 1433.01        2981.00           1643         107.00       466.44
 1433.04        2981.25           1646         102.00       444.64
 1433.06        2981.50           1649         101.00       440.28
 1433.09        2981.75           1653         102.00       444.64
 1433.12        2982.00           1656         106.00       462.08
 1433.15        2982.25           1659          93.00       405.41
 1433.17        2982.50           1663         102.00       444.64
 1433.20        2982.75           1666         100.00       435.93
 1433.23        2983.00           1669          99.00       431.57
 1433.26        2983.25           1673          94.00       409.77
 1433.29        2983.50           1676          97.00       422.85
 1433.32        2983.75           1679          95.00       414.13
 1433.34        2984.00           1683          94.00       409.77
HS scan finished at 23:53:39
end
************************************************************
  HS Scan of (1) Internal mercury lamp
************************************************************
Integration time is 0.2294 seconds per sample
dh180517Kaunas 54.88398-23.83586 2.696889pr1000
************************************************************
Dead Time -------------------------  3E-08 
Number of Cycles Used -------------  4 
Starting Wavelength (Angstroms) ---  2950 
Final Wavelength (Angstoms) -------  2984 
Wavelength Increment (Angstroms) --  .25 
Filter Wheel #1 Position ---------- (1) Ground quartz diffuser (ND=2.32)
Filter Wheel #2 Position ---------- (1) Neutral Density 0.494



************************************************************
HS scan start time = 00:16:04
Dark Count =  0 


Time (GMT)  Wavelength (Ang)  Step Number  Raw Counts  Counts/Second

   16.52        2950.00           1229         128.00       557.99
   16.61        2950.25           1232         125.00       544.91
   16.64        2950.50           1236         127.00       553.63
   16.67        2950.75           1239         125.00       544.91
   16.70        2951.00           1242         130.00       566.71
   16.73        2951.25           1246         127.00       553.63
   16.75        2951.50           1249         130.00       566.71
   16.78        2951.75           1252         139.00       605.94
   16.81        2952.00           1255         123.00       536.19
   16.84        2952.25           1259         124.00       540.55
   16.87        2952.50           1262         132.00       575.42
   16.89        2952.75           1265         125.00       544.91
   16.92        2953.00           1269         122.00       531.83
   16.95        2953.25           1272         131.00       571.06
   16.98        2953.50           1275         125.00       544.91
   17.00        2953.75           1279         120.00       523.11
   17.03        2954.00           1282         122.00       531.83
   17.06        2954.25           1285         123.00       536.19
   17.09        2954.50           1289         128.00       557.99
   17.12        2954.75           1292         123.00       536.19
   17.14        2955.00           1295         117.00       510.03
   17.17        2955.25           1299         142.00       619.02
   17.20        2955.50           1302         125.00       544.91
   17.23        2955.75           1305         116.00       505.67
   17.25        2956.00           1309         128.00       557.99
   17.28        2956.25           1312         118.00       514.39
   17.31        2956.50           1315         114.00       496.96
   17.34        2956.75           1319         129.00       562.35
   17.37        2957.00           1322         117.00       510.03
   17.40        2957.25           1325         122.00       531.83
   17.43        2957.50           1329         121.00       527.47
   17.45        2957.75           1332         125.00       544.91
   17.48        2958.00           1335         118.00       514.39
   17.51        2958.25           1339         125.00       544.91
   17.54        2958.50           1342         109.00       475.16
   17.56        2958.75           1345         121.00       527.47
   17.59        2959.00           1349         130.00       566.71
   17.62        2959.25           1352         119.00       518.75
   17.65        2959.50           1355         112.00       488.24
   17.67        2959.75           1359         114.00       496.96
   17.70        2960.00           1362         115.00       501.32
   17.73        2960.25           1365         133.00       579.78
   17.76        2960.50           1369         137.00       597.22
   17.78        2960.75           1372         145.00       632.10
   17.81        2961.00           1375         160.00       697.49
   17.84        2961.25           1379         154.00       671.33
   17.87        2961.50           1382         219.00       954.69
   17.89        2961.75           1385         771.00      3361.28
   17.92        2962.00           1389        2525.00     11010.61
   17.95        2962.25           1392        4489.00     19579.94
   17.98        2962.50           1395        6443.00     28110.01
   18.00        2962.75           1399        8903.00     38855.21
   18.03        2963.00           1402       11609.00     50682.93
   18.06        2963.25           1405       14346.00     62654.71
   18.09        2963.50           1409       17390.00     75979.45
   18.11        2963.75           1412       20157.00     88100.90
   18.14        2964.00           1415       22430.00     98064.89
   18.17        2964.25           1419       25520.00    111619.90
   18.20        2964.50           1422       27977.00    122406.00
   18.23        2964.75           1425       30336.00    132768.40
   18.26        2965.00           1429       33536.00    146835.50
   18.29        2965.25           1432       35446.00    155237.40
   18.31        2965.50           1435       37445.00    164035.40
   18.34        2965.75           1439       40642.00    178115.80
   18.37        2966.00           1442       42418.00    185942.80
   18.40        2966.25           1445       44970.00    197196.30
   18.43        2966.50           1449       47454.00    208157.20
   18.45        2966.75           1452       48549.00    212991.30
   18.48        2967.00           1455       48974.00    214868.00
   18.51        2967.25           1459       49344.00    216501.90
   18.54        2967.50           1462       49218.00    215945.50
   18.57        2967.75           1465       48913.00    214598.60
   18.60        2968.00           1469       48104.00    211026.60
   18.62        2968.25           1472       47051.00    206378.40
   18.65        2968.50           1475       45350.00    198872.60
   18.68        2968.75           1479       42339.00    185594.60
   18.71        2969.00           1482       40272.00    176485.60
   18.74        2969.25           1485       37953.00    166272.00
   18.76        2969.50           1489       34513.00    151132.70
   18.79        2969.75           1492       32163.00    140798.40
   18.82        2970.00           1495       30311.00    132658.60
   18.85        2970.25           1499       26902.00    117685.90
   18.87        2970.50           1502       24429.00    106832.70
   18.90        2970.75           1505       22233.00     97201.07
   18.93        2971.00           1509       19618.00     85739.01
   18.96        2971.25           1512       17389.00     75975.06
   18.99        2971.50           1515       15001.00     65520.99
   19.01        2971.75           1519       12066.00     52681.28
   19.04        2972.00           1522        9306.00     40616.16
   19.07        2972.25           1525        6909.00     30144.95
   19.10        2972.50           1529        4241.00     18497.62
   19.13        2972.75           1532        2234.00      9741.30
   19.16        2973.00           1536         810.00      3531.32
   19.18        2973.25           1539         298.00      1299.09
   19.21        2973.50           1542         182.00       793.39
   19.24        2973.75           1546         135.00       588.50
   19.27        2974.00           1549         137.00       597.22
   19.29        2974.25           1552         138.00       601.58
   19.32        2974.50           1556         116.00       505.67
   19.35        2974.75           1559         107.00       466.44
   19.38        2975.00           1562         102.00       444.64
   19.41        2975.25           1566         116.00       505.67
   19.43        2975.50           1569         109.00       475.16
   19.46        2975.75           1572         110.00       479.52
   19.49        2976.00           1576         117.00       510.03
   19.52        2976.25           1579         107.00       466.44
   19.54        2976.50           1582         109.00       475.16
   19.57        2976.75           1586         108.00       470.80
   19.60        2977.00           1589         106.00       462.08
   19.63        2977.25           1592         111.00       483.88
   19.66        2977.50           1596         101.00       440.28
   19.68        2977.75           1599         104.00       453.36
   19.71        2978.00           1602         102.00       444.64
   19.74        2978.25           1606         100.00       435.93
   19.77        2978.50           1609         103.00       449.00
   19.79        2978.75           1612         104.00       453.36
   19.82        2979.00           1616         110.00       479.52
   19.85        2979.25           1619         102.00       444.64
   19.88        2979.50           1623         114.00       496.96
   19.91        2979.75           1626         110.00       479.52
   19.94        2980.00           1629         103.00       449.00
   19.96        2980.25           1633         100.00       435.93
   19.99        2980.50           1636         111.00       483.88
   20.02        2980.75           1639         105.00       457.72
   20.05        2981.00           1643          93.00       405.41
   20.07        2981.25           1646         100.00       435.93
   20.10        2981.50           1649         118.00       514.39
   20.13        2981.75           1653         109.00       475.16
   20.16        2982.00           1656          99.00       431.57
   20.19        2982.25           1659         104.00       453.36
   20.21        2982.50           1663         104.00       453.36
   20.24        2982.75           1666         104.00       453.36
   20.27        2983.00           1669         108.00       470.80
   20.30        2983.25           1673          98.00       427.21
   20.32        2983.50           1676          96.00       418.49
   20.35        2983.75           1679          97.00       422.85
   20.38        2984.00           1683          97.00       422.85
HS scan finished at 00:20:41
end
