************************************************************
  HS Scan of (1) Internal mercury lamp
************************************************************
Integration time is 0.2294 seconds per sample
dh210518Delft 52.017-4.35 2.804185pr1000
************************************************************
Dead Time -------------------------  2.7E-08 
Number of Cycles Used -------------  4 
Starting Wavelength (Angstroms) ---  2950 
Final Wavelength (Angstoms) -------  2984 
Wavelength Increment (Angstroms) --  .25 
Filter Wheel #1 Position ---------- (1) Ground quartz diffuser (ND=2.32)
Filter Wheel #2 Position ---------- (1) Neutral Density 0.494



************************************************************
HS scan start time = 01:41:26
Dark Count =  0 


Time (GMT)  Wavelength (Ang)  Step Number  Raw Counts  Counts/Second

  101.89        2950.00           1229         108.00       470.80
  101.99        2950.25           1232         129.00       562.35
  102.02        2950.50           1236         113.00       492.60
  102.05        2950.75           1239         118.00       514.39
  102.08        2951.00           1242         112.00       488.24
  102.10        2951.25           1246         119.00       518.75
  102.13        2951.50           1249         122.00       531.83
  102.16        2951.75           1252         119.00       518.75
  102.19        2952.00           1256         117.00       510.03
  102.22        2952.25           1259         129.00       562.35
  102.24        2952.50           1262         112.00       488.24
  102.27        2952.75           1266         110.00       479.52
  102.30        2953.00           1269         109.00       475.16
  102.33        2953.25           1272         107.00       466.44
  102.36        2953.50           1276         112.00       488.24
  102.38        2953.75           1279         122.00       531.83
  102.41        2954.00           1282         112.00       488.24
  102.44        2954.25           1286         118.00       514.39
  102.47        2954.50           1289         109.00       475.16
  102.50        2954.75           1292         115.00       501.31
  102.52        2955.00           1296         126.00       549.27
  102.55        2955.25           1299         108.00       470.80
  102.58        2955.50           1302         114.00       496.96
  102.61        2955.75           1306         110.00       479.52
  102.64        2956.00           1309         105.00       457.72
  102.66        2956.25           1312         112.00       488.24
  102.69        2956.50           1316         127.00       553.63
  102.72        2956.75           1319         109.00       475.16
  102.75        2957.00           1322         113.00       492.60
  102.78        2957.25           1326         120.00       523.11
  102.80        2957.50           1329         115.00       501.31
  102.83        2957.75           1332         108.00       470.80
  102.86        2958.00           1336         113.00       492.60
  102.89        2958.25           1339         109.00       475.16
  102.92        2958.50           1342         111.00       483.88
  102.94        2958.75           1345         115.00       501.31
  102.97        2959.00           1349         114.00       496.96
  103.00        2959.25           1352         111.00       483.88
  103.03        2959.50           1355         108.00       470.80
  103.06        2959.75           1359         112.00       488.24
  103.08        2960.00           1362         121.00       527.47
  103.11        2960.25           1365         114.00       496.96
  103.14        2960.50           1369         116.00       505.67
  103.17        2960.75           1372         127.00       553.63
  103.20        2961.00           1375         139.00       605.94
  103.22        2961.25           1379         145.00       632.09
  103.25        2961.50           1382         264.00      1150.86
  103.28        2961.75           1385         900.00      3923.69
  103.31        2962.00           1389        2492.00     10866.31
  103.34        2962.25           1392        4403.00     19203.50
  103.36        2962.50           1395        7197.00     31399.76
  103.39        2962.75           1399       10528.00     45950.61
  103.42        2963.00           1402       13415.00     58571.19
  103.45        2963.25           1405       16644.00     72697.04
  103.48        2963.50           1409       20024.00     87495.02
  103.50        2963.75           1412       22979.00    100442.00
  103.53        2964.00           1415       25744.00    112564.80
  103.56        2964.25           1419       29341.00    128347.20
  103.59        2964.50           1422       31942.00    139768.00
  103.62        2964.75           1425       34605.00    151468.20
  103.65        2965.00           1429       37431.00    163892.80
  103.67        2965.25           1432       39988.00    175141.90
  103.70        2965.50           1435       42582.00    186560.70
  103.73        2965.75           1439       46145.00    202256.70
  103.76        2966.00           1442       48379.00    212104.90
  103.79        2966.25           1445       51079.00    224014.30
  103.81        2966.50           1449       54157.00    237600.50
  103.84        2966.75           1452       55428.00    243213.50
  103.87        2967.00           1455       55823.00    244958.30
  103.90        2967.25           1459       56015.00    245806.50
  103.93        2967.50           1462       56123.00    246283.50
  103.95        2967.75           1465       56083.00    246106.90
  103.98        2968.00           1469       55018.00    241402.70
  104.01        2968.25           1472       53648.00    235353.10
  104.04        2968.50           1475       51449.00    225647.00
  104.07        2968.75           1479       47683.00    209036.10
  104.09        2969.00           1482       45179.00    197999.90
  104.12        2969.25           1485       42912.00    188013.90
  104.15        2969.50           1489       39303.00    172127.70
  104.18        2969.75           1492       36455.00    159600.80
  104.21        2970.00           1495       34056.00    149055.50
  104.23        2970.25           1499       30788.00    134700.00
  104.26        2970.50           1502       28601.00    125099.30
  104.29        2970.75           1505       25844.00    113003.40
  104.32        2971.00           1509       22256.00     97273.46
  104.35        2971.25           1512       19199.00     83882.00
  104.38        2971.50           1515       16369.00     71493.58
  104.40        2971.75           1519       13242.00     57814.68
  104.43        2972.00           1522       10566.00     46116.67
  104.46        2972.25           1525        8090.00     35299.54
  104.49        2972.50           1529        4988.00     21756.46
  104.52        2972.75           1532        2499.00     10896.84
  104.54        2973.00           1535        1150.00      5013.76
  104.57        2973.25           1539         343.00      1495.27
  104.60        2973.50           1542         190.00       828.27
  104.63        2973.75           1546         149.00       649.53
  104.66        2974.00           1549         144.00       627.74
  104.68        2974.25           1552         139.00       605.94
  104.71        2974.50           1556         120.00       523.11
  104.74        2974.75           1559         119.00       518.75
  104.77        2975.00           1562         118.00       514.39
  104.80        2975.25           1566         112.00       488.24
  104.82        2975.50           1569         115.00       501.31
  104.85        2975.75           1572         106.00       462.08
  104.88        2976.00           1576          99.00       431.57
  104.91        2976.25           1579         111.00       483.88
  104.93        2976.50           1582         106.00       462.08
  104.96        2976.75           1586          99.00       431.57
  104.99        2977.00           1589         106.00       462.08
  105.02        2977.25           1592         106.00       462.08
  105.05        2977.50           1596         107.00       466.44
  105.07        2977.75           1599          97.00       422.85
  105.10        2978.00           1602         108.00       470.80
  105.13        2978.25           1606         100.00       435.92
  105.16        2978.50           1609         106.00       462.08
  105.19        2978.75           1612         100.00       435.92
  105.21        2979.00           1616          90.00       392.33
  105.24        2979.25           1619          95.00       414.13
  105.27        2979.50           1622          98.00       427.21
  105.30        2979.75           1626          97.00       422.85
  105.33        2980.00           1629          98.00       427.21
  105.35        2980.25           1632          98.00       427.21
  105.38        2980.50           1636         109.00       475.16
  105.41        2980.75           1639         101.00       440.28
  105.44        2981.00           1642          93.00       405.41
  105.47        2981.25           1646          95.00       414.13
  105.49        2981.50           1649          92.00       401.05
  105.52        2981.75           1653         108.00       470.80
  105.55        2982.00           1656          99.00       431.57
  105.58        2982.25           1659         102.00       444.64
  105.61        2982.50           1663          99.00       431.57
  105.63        2982.75           1666          94.00       409.77
  105.66        2983.00           1669         107.00       466.44
  105.69        2983.25           1673          96.00       418.49
  105.72        2983.50           1676         109.00       475.16
  105.75        2983.75           1679         105.00       457.72
  105.77        2984.00           1683         104.00       453.36
HS scan finished at 01:46:04
end
************************************************************
  HS Scan of (1) Internal mercury lamp
************************************************************
Integration time is 0.2294 seconds per sample
dh210518Delft 52.017-4.35 3.287017pr1000
************************************************************
Dead Time -------------------------  2.7E-08 
Number of Cycles Used -------------  4 
Starting Wavelength (Angstroms) ---  2950 
Final Wavelength (Angstoms) -------  2984 
Wavelength Increment (Angstroms) --  .25 
Filter Wheel #1 Position ---------- (1) Ground quartz diffuser (ND=2.32)
Filter Wheel #2 Position ---------- (1) Neutral Density 0.494



************************************************************
HS scan start time = 20:36:31
Dark Count =  .1 


Time (GMT)  Wavelength (Ang)  Step Number  Raw Counts  Counts/Second

 1236.96        2950.00           1229          97.00       422.41
 1237.06        2950.25           1232         103.00       448.57
 1237.09        2950.50           1236         103.00       448.57
 1237.12        2950.75           1239          93.00       404.97
 1237.15        2951.00           1242         101.00       439.85
 1237.17        2951.25           1246          92.00       400.61
 1237.20        2951.50           1249          95.00       413.69
 1237.23        2951.75           1252          95.00       413.69
 1237.26        2952.00           1256          94.00       409.33
 1237.29        2952.25           1259          93.00       404.97
 1237.31        2952.50           1262         101.00       439.85
 1237.34        2952.75           1266         111.00       483.44
 1237.37        2953.00           1269         104.00       452.93
 1237.40        2953.25           1272         106.00       461.64
 1237.43        2953.50           1276          96.00       418.05
 1237.45        2953.75           1279         101.00       439.85
 1237.48        2954.00           1282          96.00       418.05
 1237.51        2954.25           1286         103.00       448.57
 1237.54        2954.50           1289          88.00       383.18
 1237.57        2954.75           1292          92.00       400.61
 1237.60        2955.00           1296          99.00       431.13
 1237.62        2955.25           1299          91.00       396.26
 1237.65        2955.50           1302         106.00       461.64
 1237.68        2955.75           1306          92.00       400.61
 1237.71        2956.00           1309          90.00       391.90
 1237.74        2956.25           1312          99.00       431.13
 1237.76        2956.50           1316         100.00       435.49
 1237.79        2956.75           1319          95.00       413.69
 1237.82        2957.00           1322          94.00       409.33
 1237.85        2957.25           1326          99.00       431.13
 1237.88        2957.50           1329          92.00       400.61
 1237.90        2957.75           1332         100.00       435.49
 1237.93        2958.00           1336         101.00       439.85
 1237.96        2958.25           1339          89.00       387.54
 1237.99        2958.50           1342          85.00       370.10
 1238.02        2958.75           1345          98.00       426.77
 1238.04        2959.00           1349          95.00       413.69
 1238.07        2959.25           1352          97.00       422.41
 1238.10        2959.50           1355         109.00       474.72
 1238.13        2959.75           1359          94.00       409.33
 1238.16        2960.00           1362         104.00       452.93
 1238.18        2960.25           1365          93.00       404.97
 1238.21        2960.50           1369         103.00       448.57
 1238.24        2960.75           1372         108.00       470.36
 1238.27        2961.00           1375         110.00       479.08
 1238.30        2961.25           1379         128.00       557.55
 1238.33        2961.50           1382         155.00       675.25
 1238.35        2961.75           1385         528.00      2301.36
 1238.38        2962.00           1389        2418.00     10543.11
 1238.41        2962.25           1392        4665.00     20346.40
 1238.44        2962.50           1395        7393.00     32255.20
 1238.47        2962.75           1399       11419.00     49844.28
 1238.49        2963.00           1402       14077.00     61465.92
 1238.52        2963.25           1405       16582.00     72425.28
 1238.55        2963.50           1409       20529.00     89706.55
 1238.58        2963.75           1412       23569.00    103027.70
 1238.61        2964.00           1415       26610.00    116362.90
 1238.64        2964.25           1419       30786.00    134690.80
 1238.66        2964.50           1422       33188.00    145241.10
 1238.69        2964.75           1425       35822.00    156817.30
 1238.72        2965.00           1429       39990.00    175150.20
 1238.75        2965.25           1432       43388.00    190109.80
 1238.78        2965.50           1435       46353.00    203173.00
 1238.81        2965.75           1439       49466.00    216898.20
 1238.83        2966.00           1442       52059.00    228338.50
 1238.86        2966.25           1445       55485.00    243464.90
 1238.89        2966.50           1449       58865.00    258400.30
 1238.92        2966.75           1452       60378.00    265089.80
 1238.95        2967.00           1455       61378.00    269512.50
 1238.97        2967.25           1459       61504.00    270069.90
 1239.00        2967.50           1462       61420.00    269698.30
 1239.03        2967.75           1465       61174.00    268610.20
 1239.06        2968.00           1469       60193.00    264271.70
 1239.09        2968.25           1472       58480.00    256698.50
 1239.12        2968.50           1475       56196.00    246605.60
 1239.15        2968.75           1479       52999.00    232487.50
 1239.18        2969.00           1482       50750.00    222562.30
 1239.20        2969.25           1485       47726.00    209225.20
 1239.23        2969.50           1489       44014.00    192867.00
 1239.26        2969.75           1492       41033.00    179740.70
 1239.29        2970.00           1495       38024.00    166500.50
 1239.32        2970.25           1499       34435.00    150720.70
 1239.34        2970.50           1502       31550.00    138045.90
 1239.37        2970.75           1505       28663.00    125370.90
 1239.40        2971.00           1509       24486.00    107047.90
 1239.43        2971.25           1512       21892.00     95677.97
 1239.46        2971.50           1515       19306.00     84350.12
 1239.49        2971.75           1519       15878.00     69344.63
 1239.51        2972.00           1522       13456.00     58750.05
 1239.54        2972.25           1525       10394.00     45364.60
 1239.57        2972.50           1529        6287.00     27426.14
 1239.60        2972.75           1532        3576.00     15594.62
 1239.63        2973.00           1535        1607.00      7006.12
 1239.65        2973.25           1539         396.00      1725.89
 1239.68        2973.50           1542         200.00       871.42
 1239.71        2973.75           1546         137.00       596.78
 1239.74        2974.00           1549         134.00       583.71
 1239.77        2974.25           1552         127.00       553.19
 1239.80        2974.50           1556         126.00       548.83
 1239.82        2974.75           1559         107.00       466.00
 1239.85        2975.00           1562         107.00       466.00
 1239.88        2975.25           1566          91.00       396.26
 1239.91        2975.50           1569          97.00       422.41
 1239.93        2975.75           1572          88.00       383.18
 1239.96        2976.00           1576          96.00       418.05
 1239.99        2976.25           1579          88.00       383.18
 1240.02        2976.50           1582          81.00       352.66
 1240.05        2976.75           1586          91.00       396.26
 1240.07        2977.00           1589          86.00       374.46
 1240.10        2977.25           1592          86.00       374.46
 1240.13        2977.50           1596          89.00       387.54
 1240.16        2977.75           1599          89.00       387.54
 1240.19        2978.00           1602         104.00       452.93
 1240.22        2978.25           1606          84.00       365.74
 1240.25        2978.50           1609          86.00       374.46
 1240.27        2978.75           1612          88.00       383.18
 1240.30        2979.00           1616         100.00       435.49
 1240.33        2979.25           1619          81.00       352.66
 1240.36        2979.50           1622          89.00       387.54
 1240.39        2979.75           1626          85.00       370.10
 1240.41        2980.00           1629          97.00       422.41
 1240.44        2980.25           1632          97.00       422.41
 1240.47        2980.50           1636          91.00       396.26
 1240.50        2980.75           1639          91.00       396.26
 1240.53        2981.00           1642          87.00       378.82
 1240.55        2981.25           1646          94.00       409.33
 1240.58        2981.50           1649          91.00       396.26
 1240.61        2981.75           1653          84.00       365.74
 1240.64        2982.00           1656          88.00       383.18
 1240.67        2982.25           1659          91.00       396.26
 1240.69        2982.50           1663          81.00       352.66
 1240.72        2982.75           1666          94.00       409.33
 1240.75        2983.00           1669          87.00       378.82
 1240.78        2983.25           1673          82.00       357.02
 1240.81        2983.50           1676          91.00       396.26
 1240.84        2983.75           1679          89.00       387.54
 1240.87        2984.00           1683          86.00       374.46
HS scan finished at 20:41:10
end
