************************************************************
  HS Scan of (1) Internal mercury lamp
************************************************************
Integration time is 0.2294 seconds per sample
dh220518Delft 52.017-4.35 3.072425pr1000
************************************************************
Dead Time -------------------------  2.7E-08 
Number of Cycles Used -------------  4 
Starting Wavelength (Angstroms) ---  2950 
Final Wavelength (Angstoms) -------  2984 
Wavelength Increment (Angstroms) --  .25 
Filter Wheel #1 Position ---------- (1) Ground quartz diffuser (ND=2.32)
Filter Wheel #2 Position ---------- (1) Neutral Density 0.494



************************************************************
HS scan start time = 01:39:56
Dark Count =  0 


Time (GMT)  Wavelength (Ang)  Step Number  Raw Counts  Counts/Second

  100.38        2950.00           1229         106.00       462.08
  100.48        2950.25           1232         102.00       444.64
  100.51        2950.50           1236         105.00       457.72
  100.53        2950.75           1239         109.00       475.16
  100.56        2951.00           1242         110.00       479.52
  100.59        2951.25           1246          99.00       431.57
  100.62        2951.50           1249         110.00       479.52
  100.65        2951.75           1252         105.00       457.72
  100.67        2952.00           1256         102.00       444.64
  100.70        2952.25           1259         109.00       475.16
  100.73        2952.50           1262         113.00       492.60
  100.76        2952.75           1266         106.00       462.08
  100.79        2953.00           1269         117.00       510.03
  100.81        2953.25           1272         110.00       479.52
  100.84        2953.50           1276         109.00       475.16
  100.87        2953.75           1279         107.00       466.44
  100.90        2954.00           1282         107.00       466.44
  100.93        2954.25           1286         115.00       501.31
  100.95        2954.50           1289         107.00       466.44
  100.98        2954.75           1292         114.00       496.96
  101.01        2955.00           1296         106.00       462.08
  101.04        2955.25           1299         115.00       501.31
  101.07        2955.50           1302         107.00       466.44
  101.09        2955.75           1306         107.00       466.44
  101.12        2956.00           1309         109.00       475.16
  101.15        2956.25           1312         101.00       440.28
  101.18        2956.50           1316         114.00       496.96
  101.21        2956.75           1319         106.00       462.08
  101.23        2957.00           1322         104.00       453.36
  101.26        2957.25           1326         101.00       440.28
  101.29        2957.50           1329         113.00       492.60
  101.32        2957.75           1332          95.00       414.13
  101.35        2958.00           1336         107.00       466.44
  101.37        2958.25           1339         104.00       453.36
  101.40        2958.50           1342         106.00       462.08
  101.43        2958.75           1345         103.00       449.00
  101.46        2959.00           1349         104.00       453.36
  101.49        2959.25           1352         101.00       440.28
  101.51        2959.50           1355         104.00       453.36
  101.54        2959.75           1359         104.00       453.36
  101.57        2960.00           1362         101.00       440.28
  101.60        2960.25           1365          92.00       401.05
  101.62        2960.50           1369         108.00       470.80
  101.65        2960.75           1372         109.00       475.16
  101.68        2961.00           1375         136.00       592.86
  101.71        2961.25           1379         134.00       584.14
  101.74        2961.50           1382         177.00       771.59
  101.76        2961.75           1385         653.00      2846.78
  101.79        2962.00           1389        2680.00     11686.34
  101.82        2962.25           1392        5000.00     21808.83
  101.85        2962.50           1395        7395.00     32264.37
  101.88        2962.75           1399       10519.00     45911.28
  101.90        2963.00           1402       13686.00     59756.32
  101.93        2963.25           1405       16924.00     73922.47
  101.96        2963.50           1409       20807.00     90924.78
  101.99        2963.75           1412       23983.00    104843.00
  102.02        2964.00           1415       26957.00    117885.50
  102.04        2964.25           1419       30683.00    134238.90
  102.07        2964.50           1422       33787.00    147873.40
  102.10        2964.75           1425       36965.00    161843.40
  102.13        2965.00           1429       40592.00    177800.10
  102.16        2965.25           1432       43268.00    189581.70
  102.19        2965.50           1435       45376.00    198867.90
  102.21        2965.75           1439       48820.00    214049.60
  102.24        2966.00           1442       51605.00    226335.30
  102.27        2966.25           1445       54429.00    238801.50
  102.30        2966.50           1449       58315.00    255969.60
  102.33        2966.75           1452       59514.00    261269.90
  102.35        2967.00           1455       60131.00    263998.00
  102.38        2967.25           1459       60184.00    264232.40
  102.41        2967.50           1462       60190.00    264258.90
  102.44        2967.75           1465       60050.00    263639.80
  102.47        2968.00           1469       59136.00    259598.80
  102.49        2968.25           1472       57668.00    253110.10
  102.52        2968.50           1475       55745.00    244613.80
  102.55        2968.75           1479       52477.00    230183.80
  102.58        2969.00           1482       49860.00    218636.50
  102.61        2969.25           1485       46934.00    205734.30
  102.64        2969.50           1489       42752.00    187309.40
  102.66        2969.75           1492       39736.00    174032.90
  102.69        2970.00           1495       37379.00    163664.10
  102.72        2970.25           1499       33352.00    145962.10
  102.75        2970.50           1502       30276.00    132451.90
  102.78        2970.75           1505       27474.00    120153.80
  102.80        2971.00           1509       24231.00    105930.30
  102.83        2971.25           1512       21663.00     94675.01
  102.86        2971.50           1515       18680.00     81609.44
  102.89        2971.75           1519       15006.00     65529.97
  102.92        2972.00           1522       11659.00     50893.78
  102.94        2972.25           1525        8796.00     38383.26
  102.97        2972.50           1529        5429.00     23681.22
  103.00        2972.75           1532        3066.00     13370.13
  103.03        2973.00           1535        1433.00      6247.78
  103.06        2973.25           1539         372.00      1621.69
  103.08        2973.50           1542         176.00       767.23
  103.11        2973.75           1546         151.00       658.25
  103.14        2974.00           1549         146.00       636.45
  103.17        2974.25           1552         122.00       531.83
  103.20        2974.50           1556         116.00       505.67
  103.22        2974.75           1559         112.00       488.24
  103.25        2975.00           1562         103.00       449.00
  103.28        2975.25           1566         101.00       440.28
  103.31        2975.50           1569         101.00       440.28
  103.34        2975.75           1572          98.00       427.21
  103.36        2976.00           1576          98.00       427.21
  103.39        2976.25           1579         102.00       444.64
  103.42        2976.50           1582         101.00       440.28
  103.45        2976.75           1586          85.00       370.54
  103.48        2977.00           1589         101.00       440.28
  103.50        2977.25           1592          89.00       387.97
  103.53        2977.50           1596          96.00       418.49
  103.56        2977.75           1599          96.00       418.49
  103.59        2978.00           1602          87.00       379.25
  103.62        2978.25           1606         101.00       440.28
  103.64        2978.50           1609          89.00       387.97
  103.67        2978.75           1612          98.00       427.21
  103.70        2979.00           1616         100.00       435.92
  103.73        2979.25           1619          87.00       379.25
  103.75        2979.50           1622          93.00       405.41
  103.78        2979.75           1626          97.00       422.85
  103.81        2980.00           1629          95.00       414.13
  103.84        2980.25           1632          83.00       361.82
  103.87        2980.50           1636          87.00       379.25
  103.89        2980.75           1639          90.00       392.33
  103.92        2981.00           1642          95.00       414.13
  103.95        2981.25           1646         103.00       449.00
  103.98        2981.50           1649          85.00       370.54
  104.01        2981.75           1653          90.00       392.33
  104.03        2982.00           1656         103.00       449.00
  104.06        2982.25           1659          85.00       370.54
  104.09        2982.50           1663          87.00       379.25
  104.12        2982.75           1666          84.00       366.18
  104.15        2983.00           1669          89.00       387.97
  104.17        2983.25           1673          85.00       370.54
  104.20        2983.50           1676          87.00       379.25
  104.23        2983.75           1679          90.00       392.33
  104.26        2984.00           1683          91.00       396.69
HS scan finished at 01:44:33
end
************************************************************
  HS Scan of (1) Internal mercury lamp
************************************************************
Integration time is 0.2294 seconds per sample
dh220518Delft 52.017-4.35 3.179721pr1000
************************************************************
Dead Time -------------------------  2.7E-08 
Number of Cycles Used -------------  4 
Starting Wavelength (Angstroms) ---  2950 
Final Wavelength (Angstoms) -------  2984 
Wavelength Increment (Angstroms) --  .25 
Filter Wheel #1 Position ---------- (1) Ground quartz diffuser (ND=2.32)
Filter Wheel #2 Position ---------- (1) Neutral Density 0.494



************************************************************
HS scan start time = 20:37:58
Dark Count =  .1 


Time (GMT)  Wavelength (Ang)  Step Number  Raw Counts  Counts/Second

 1238.42        2950.00           1229         107.00       466.00
 1238.52        2950.25           1232         104.00       452.93
 1238.55        2950.50           1236         104.00       452.93
 1238.58        2950.75           1239         114.00       496.52
 1238.61        2951.00           1242         109.00       474.72
 1238.64        2951.25           1246          98.00       426.77
 1238.66        2951.50           1249         103.00       448.57
 1238.69        2951.75           1252          98.00       426.77
 1238.72        2952.00           1256          97.00       422.41
 1238.75        2952.25           1259         109.00       474.72
 1238.78        2952.50           1262          94.00       409.33
 1238.80        2952.75           1266         104.00       452.93
 1238.83        2953.00           1269         119.00       518.32
 1238.86        2953.25           1272         100.00       435.49
 1238.89        2953.50           1276         103.00       448.57
 1238.92        2953.75           1279         107.00       466.00
 1238.95        2954.00           1282         103.00       448.57
 1238.97        2954.25           1286         107.00       466.00
 1239.00        2954.50           1289          96.00       418.05
 1239.03        2954.75           1292         104.00       452.93
 1239.06        2955.00           1296         101.00       439.85
 1239.09        2955.25           1299         108.00       470.36
 1239.11        2955.50           1302         103.00       448.57
 1239.14        2955.75           1306         108.00       470.36
 1239.17        2956.00           1309          98.00       426.77
 1239.20        2956.25           1312         102.00       444.21
 1239.23        2956.50           1316          95.00       413.69
 1239.25        2956.75           1319         100.00       435.49
 1239.28        2957.00           1322          96.00       418.05
 1239.31        2957.25           1326         101.00       439.85
 1239.34        2957.50           1329         100.00       435.49
 1239.37        2957.75           1332          96.00       418.05
 1239.40        2958.00           1336         106.00       461.64
 1239.42        2958.25           1339          99.00       431.13
 1239.45        2958.50           1342         101.00       439.85
 1239.48        2958.75           1345         105.00       457.29
 1239.51        2959.00           1349          98.00       426.77
 1239.54        2959.25           1352         105.00       457.29
 1239.56        2959.50           1355          97.00       422.41
 1239.59        2959.75           1359         102.00       444.21
 1239.62        2960.00           1362         113.00       492.16
 1239.65        2960.25           1365         102.00       444.21
 1239.68        2960.50           1369         104.00       452.93
 1239.71        2960.75           1372         104.00       452.93
 1239.73        2961.00           1375         127.00       553.19
 1239.76        2961.25           1379         147.00       640.38
 1239.79        2961.50           1382         224.00       976.05
 1239.82        2961.75           1385         713.00      3107.93
 1239.85        2962.00           1389        2649.00     11550.68
 1239.87        2962.25           1392        4758.00     20752.25
 1239.90        2962.50           1395        7415.00     32351.27
 1239.93        2962.75           1399       11434.00     49909.85
 1239.96        2963.00           1402       14031.00     61264.73
 1239.99        2963.25           1405       16801.00     73383.71
 1240.01        2963.50           1409       20771.00     90766.63
 1240.04        2963.75           1412       24171.00    105666.80
 1240.07        2964.00           1415       27185.00    118885.40
 1240.10        2964.25           1419       30709.00    134352.70
 1240.13        2964.50           1422       33384.00    146102.20
 1240.16        2964.75           1425       36390.00    159314.60
 1240.18        2965.00           1429       40491.00    177355.10
 1240.21        2965.25           1432       43130.00    188973.50
 1240.24        2965.50           1435       45865.00    201022.30
 1240.27        2965.75           1439       50104.00    219712.40
 1240.30        2966.00           1442       52833.00    231754.70
 1240.33        2966.25           1445       55463.00    243367.70
 1240.36        2966.50           1449       59059.00    259257.90
 1240.38        2966.75           1452       59830.00    262666.60
 1240.41        2967.00           1455       60188.00    264249.60
 1240.44        2967.25           1459       59908.00    263011.50
 1240.47        2967.50           1462       60269.00    264607.80
 1240.50        2967.75           1465       60265.00    264590.10
 1240.53        2968.00           1469       58750.00    257891.90
 1240.55        2968.25           1472       56963.00    249994.30
 1240.58        2968.50           1475       54479.00    239021.90
 1240.61        2968.75           1479       51130.00    224238.90
 1240.64        2969.00           1482       48653.00    213312.70
 1240.67        2969.25           1485       45541.00    199594.50
 1240.69        2969.50           1489       42063.00    184275.10
 1240.72        2969.75           1492       39146.00    171436.40
 1240.75        2970.00           1495       36875.00    161447.20
 1240.78        2970.25           1499       33156.00    145100.50
 1240.81        2970.50           1502       30567.00    133729.20
 1240.84        2970.75           1505       27704.00    121162.50
 1240.86        2971.00           1509       23694.00    103575.70
 1240.89        2971.25           1512       20894.00     91305.47
 1240.92        2971.50           1515       18059.00     78890.18
 1240.95        2971.75           1519       14890.00     65022.08
 1240.98        2972.00           1522       11916.00     52016.78
 1241.01        2972.25           1525        9038.00     39439.97
 1241.03        2972.50           1529        5476.00     23885.93
 1241.06        2972.75           1532        3382.00     14748.24
 1241.09        2973.00           1535        1734.00      7559.96
 1241.12        2973.25           1539         445.00      1939.51
 1241.15        2973.50           1542         180.00       784.24
 1241.17        2973.75           1546         143.00       622.94
 1241.20        2974.00           1549         134.00       583.71
 1241.23        2974.25           1552         121.00       527.03
 1241.26        2974.50           1556         116.00       505.24
 1241.29        2974.75           1559          99.00       431.13
 1241.32        2975.00           1562          98.00       426.77
 1241.34        2975.25           1566          99.00       431.13
 1241.37        2975.50           1569         100.00       435.49
 1241.40        2975.75           1572          92.00       400.61
 1241.43        2976.00           1576          98.00       426.77
 1241.46        2976.25           1579          96.00       418.05
 1241.48        2976.50           1582          98.00       426.77
 1241.51        2976.75           1586          98.00       426.77
 1241.54        2977.00           1589          98.00       426.77
 1241.57        2977.25           1592         101.00       439.85
 1241.60        2977.50           1596          94.00       409.33
 1241.62        2977.75           1599          97.00       422.41
 1241.65        2978.00           1602          92.00       400.61
 1241.68        2978.25           1606          86.00       374.46
 1241.71        2978.50           1609          89.00       387.54
 1241.74        2978.75           1612          98.00       426.77
 1241.76        2979.00           1616          99.00       431.13
 1241.79        2979.25           1619          94.00       409.33
 1241.82        2979.50           1622          88.00       383.18
 1241.85        2979.75           1626          91.00       396.26
 1241.88        2980.00           1629          84.00       365.74
 1241.91        2980.25           1632          97.00       422.41
 1241.93        2980.50           1636          97.00       422.41
 1241.96        2980.75           1639         100.00       435.49
 1241.99        2981.00           1642          89.00       387.54
 1242.02        2981.25           1646          89.00       387.54
 1242.05        2981.50           1649          88.00       383.18
 1242.07        2981.75           1653          72.00       313.43
 1242.10        2982.00           1656          92.00       400.61
 1242.13        2982.25           1659          99.00       431.13
 1242.16        2982.50           1663          87.00       378.82
 1242.19        2982.75           1666          81.00       352.66
 1242.22        2983.00           1669          87.00       378.82
 1242.24        2983.25           1673          85.00       370.10
 1242.27        2983.50           1676          85.00       370.10
 1242.30        2983.75           1679          89.00       387.54
 1242.33        2984.00           1683          87.00       378.82
HS scan finished at 20:42:37
end
