************************************************************
  HS Scan of (1) Internal mercury lamp
************************************************************
Integration time is 0.2294 seconds per sample
dh290517Delft 51.997-4.386 3.126073pr1000
************************************************************
Dead Time -------------------------  3E-08 
Number of Cycles Used -------------  4 
Starting Wavelength (Angstroms) ---  2950 
Final Wavelength (Angstoms) -------  2984 
Wavelength Increment (Angstroms) --  .25 
Filter Wheel #1 Position ---------- (1) Ground quartz diffuser (ND=2.32)
Filter Wheel #2 Position ---------- (1) Neutral Density 0.494



************************************************************
HS scan start time = 20:50:42
Dark Count =  .2 


Time (GMT)  Wavelength (Ang)  Step Number  Raw Counts  Counts/Second

 1251.15        2950.00           1229         115.00       500.44
 1251.25        2950.25           1232         109.00       474.29
 1251.27        2950.50           1236         107.00       465.57
 1251.30        2950.75           1239         109.00       474.29
 1251.33        2951.00           1242         104.00       452.49
 1251.36        2951.25           1246         107.00       465.57
 1251.39        2951.50           1249         109.00       474.29
 1251.42        2951.75           1252         109.00       474.29
 1251.45        2952.00           1255         113.00       491.72
 1251.48        2952.25           1259         115.00       500.44
 1251.51        2952.50           1262         106.00       461.21
 1251.54        2952.75           1265         103.00       448.13
 1251.57        2953.00           1269         118.00       513.52
 1251.59        2953.25           1272         109.00       474.29
 1251.62        2953.50           1275         105.00       456.85
 1251.65        2953.75           1279         107.00       465.57
 1251.68        2954.00           1282         101.00       439.41
 1251.71        2954.25           1285         113.00       491.72
 1251.74        2954.50           1289         110.00       478.65
 1251.77        2954.75           1292         109.00       474.29
 1251.79        2955.00           1295         106.00       461.21
 1251.82        2955.25           1299         103.00       448.13
 1251.85        2955.50           1302         105.00       456.85
 1251.89        2955.75           1305         101.00       439.41
 1251.92        2956.00           1309         103.00       448.13
 1251.94        2956.25           1312         103.00       448.13
 1251.97        2956.50           1315         103.00       448.13
 1252.00        2956.75           1319         103.00       448.13
 1252.03        2957.00           1322         107.00       465.57
 1252.06        2957.25           1325         106.00       461.21
 1252.09        2957.50           1329          95.00       413.26
 1252.12        2957.75           1332         111.00       483.01
 1252.15        2958.00           1335          97.00       421.98
 1252.18        2958.25           1339         110.00       478.65
 1252.21        2958.50           1342         106.00       461.21
 1252.24        2958.75           1345         111.00       483.01
 1252.27        2959.00           1349         108.00       469.93
 1252.30        2959.25           1352         106.00       461.21
 1252.33        2959.50           1355         105.00       456.85
 1252.35        2959.75           1359          99.00       430.69
 1252.38        2960.00           1362         108.00       469.93
 1252.41        2960.25           1365         113.00       491.72
 1252.44        2960.50           1369         116.00       504.80
 1252.47        2960.75           1372         125.00       544.04
 1252.50        2961.00           1375         143.00       622.51
 1252.53        2961.25           1379         144.00       626.86
 1252.56        2961.50           1382         205.00       892.79
 1252.59        2961.75           1385         811.00      3534.81
 1252.61        2962.00           1389        3211.00     14002.40
 1252.64        2962.25           1392        5918.00     25816.85
 1252.67        2962.50           1395        8935.00     38994.15
 1252.71        2962.75           1399       13224.00     57745.11
 1252.74        2963.00           1402       16461.00     71910.85
 1252.77        2963.25           1405       19787.00     86478.65
 1252.80        2963.50           1409       24265.00    106112.30
 1252.82        2963.75           1412       27159.00    118813.40
 1252.85        2964.00           1415       29920.00    130939.70
 1252.88        2964.25           1419       34245.00    149952.90
 1252.91        2964.50           1422       37127.00    162634.60
 1252.94        2964.75           1425       40478.00    177392.30
 1252.97        2965.00           1429       44481.00    195038.50
 1253.00        2965.25           1432       47501.00    208363.80
 1253.04        2965.50           1435       50633.00    222194.60
 1253.06        2965.75           1439       54945.00    241255.10
 1253.09        2966.00           1442       57997.00    254759.20
 1253.12        2966.25           1445       61133.00    268646.40
 1253.16        2966.50           1449       63980.00    281264.00
 1253.19        2966.75           1452       65695.00    288869.20
 1253.21        2967.00           1455       66689.00    293278.70
 1253.24        2967.25           1459       66832.00    293913.20
 1253.27        2967.50           1462       66689.00    293278.70
 1253.30        2967.75           1465       66530.00    292573.30
 1253.33        2968.00           1469       64954.00    285582.80
 1253.36        2968.25           1472       63064.00    277203.30
 1253.38        2968.50           1475       60652.00    266515.70
 1253.41        2968.75           1479       56658.00    248833.20
 1253.45        2969.00           1482       53478.00    234768.00
 1253.48        2969.25           1485       50555.00    221850.00
 1253.51        2969.50           1489       47124.00    206699.80
 1253.54        2969.75           1492       44266.00    194090.20
 1253.57        2970.00           1495       41254.00    180811.60
 1253.60        2970.25           1499       36831.00    161331.70
 1253.63        2970.50           1502       33317.00    145871.50
 1253.66        2970.75           1505       30145.00    131928.30
 1253.70        2971.00           1509       26300.00    115042.40
 1253.73        2971.25           1512       23205.00    101462.70
 1253.77        2971.50           1515       20090.00     87806.41
 1253.80        2971.75           1519       15871.00     69328.00
 1253.82        2972.00           1522       12993.00     56734.67
 1253.85        2972.25           1525       10554.00     46069.73
 1253.88        2972.50           1529        6752.00     29458.46
 1253.91        2972.75           1532        4076.00     17776.70
 1253.94        2973.00           1536        1065.00      4642.32
 1253.97        2973.25           1539         351.00      1529.28
 1253.99        2973.50           1542         184.00       801.24
 1254.02        2973.75           1546         147.00       639.94
 1254.05        2974.00           1549         136.00       591.99
 1254.09        2974.25           1552         129.00       561.47
 1254.11        2974.50           1556         119.00       517.88
 1254.14        2974.75           1559         116.00       504.80
 1254.17        2975.00           1562         111.00       483.01
 1254.20        2975.25           1566         106.00       461.21
 1254.24        2975.50           1569          95.00       413.26
 1254.27        2975.75           1572          98.00       426.34
 1254.30        2976.00           1576         110.00       478.65
 1254.33        2976.25           1579         102.00       443.77
 1254.36        2976.50           1582         111.00       483.01
 1254.38        2976.75           1586         105.00       456.85
 1254.41        2977.00           1589          94.00       408.90
 1254.44        2977.25           1592          99.00       430.69
 1254.47        2977.50           1596         102.00       443.77
 1254.50        2977.75           1599          94.00       408.90
 1254.53        2978.00           1602         106.00       461.21
 1254.55        2978.25           1606         101.00       439.41
 1254.58        2978.50           1609         100.00       435.05
 1254.61        2978.75           1612          99.00       430.69
 1254.64        2979.00           1616          97.00       421.98
 1254.67        2979.25           1619         105.00       456.85
 1254.70        2979.50           1623          94.00       408.90
 1254.72        2979.75           1626          86.00       374.02
 1254.76        2980.00           1629          95.00       413.26
 1254.79        2980.25           1633         102.00       443.77
 1254.82        2980.50           1636         100.00       435.05
 1254.84        2980.75           1639         100.00       435.05
 1254.87        2981.00           1643          98.00       426.34
 1254.91        2981.25           1646         100.00       435.05
 1254.94        2981.50           1649          93.00       404.54
 1254.97        2981.75           1653          91.00       395.82
 1255.00        2982.00           1656         103.00       448.13
 1255.03        2982.25           1659          98.00       426.34
 1255.06        2982.50           1663          95.00       413.26
 1255.09        2982.75           1666         102.00       443.77
 1255.12        2983.00           1669          90.00       391.46
 1255.15        2983.25           1673         103.00       448.13
 1255.18        2983.50           1676         102.00       443.77
 1255.21        2983.75           1679          93.00       404.54
 1255.24        2984.00           1683          96.00       417.62
HS scan finished at 20:55:32
end
