************************************************************
  HS Scan of (1) Internal mercury lamp
************************************************************
Integration time is 0.2294 seconds per sample
dh240518Delft 52.017-4.35 2.911481pr1000
************************************************************
Dead Time -------------------------  2.7E-08 
Number of Cycles Used -------------  4 
Starting Wavelength (Angstroms) ---  2950 
Final Wavelength (Angstoms) -------  2984 
Wavelength Increment (Angstroms) --  .25 
Filter Wheel #1 Position ---------- (1) Ground quartz diffuser (ND=2.32)
Filter Wheel #2 Position ---------- (1) Neutral Density 0.494



************************************************************
HS scan start time = 02:10:13
Dark Count =  .1 


Time (GMT)  Wavelength (Ang)  Step Number  Raw Counts  Counts/Second

  130.68        2950.00           1229         104.00       452.93
  130.77        2950.25           1232         107.00       466.00
  130.80        2950.50           1236         117.00       509.60
  130.83        2950.75           1239         114.00       496.52
  130.86        2951.00           1242         113.00       492.16
  130.89        2951.25           1246         105.00       457.29
  130.92        2951.50           1249         114.00       496.52
  130.94        2951.75           1252         114.00       496.52
  130.97        2952.00           1256         103.00       448.57
  131.00        2952.25           1259         113.00       492.16
  131.03        2952.50           1262         104.00       452.93
  131.06        2952.75           1266         116.00       505.24
  131.09        2953.00           1269         113.00       492.16
  131.12        2953.25           1272         114.00       496.52
  131.14        2953.50           1276         112.00       487.80
  131.17        2953.75           1279         112.00       487.80
  131.20        2954.00           1282         108.00       470.36
  131.23        2954.25           1286         111.00       483.44
  131.26        2954.50           1289         112.00       487.80
  131.29        2954.75           1292         103.00       448.57
  131.31        2955.00           1296         111.00       483.44
  131.34        2955.25           1299         107.00       466.00
  131.37        2955.50           1302          97.00       422.41
  131.40        2955.75           1306          99.00       431.13
  131.43        2956.00           1309         102.00       444.21
  131.46        2956.25           1312         113.00       492.16
  131.49        2956.50           1316          92.00       400.61
  131.51        2956.75           1319         102.00       444.21
  131.54        2957.00           1322         106.00       461.64
  131.57        2957.25           1326         105.00       457.29
  131.60        2957.50           1329          97.00       422.41
  131.63        2957.75           1332         105.00       457.29
  131.65        2958.00           1336         117.00       509.60
  131.68        2958.25           1339         111.00       483.44
  131.71        2958.50           1342          99.00       431.13
  131.74        2958.75           1345         106.00       461.64
  131.77        2959.00           1349         104.00       452.93
  131.79        2959.25           1352         118.00       513.96
  131.82        2959.50           1355         103.00       448.57
  131.85        2959.75           1359         101.00       439.85
  131.88        2960.00           1362         101.00       439.85
  131.91        2960.25           1365         108.00       470.36
  131.94        2960.50           1369         110.00       479.08
  131.96        2960.75           1372         120.00       522.68
  131.99        2961.00           1375         122.00       531.39
  132.02        2961.25           1379         140.00       609.86
  132.05        2961.50           1382         184.00       801.67
  132.08        2961.75           1385         559.00      2436.52
  132.10        2962.00           1389        2607.00     11367.48
  132.13        2962.25           1392        4762.00     20769.71
  132.16        2962.50           1395        7235.00     31565.25
  132.19        2962.75           1399       11103.00     48463.12
  132.22        2963.00           1402       14148.00     61776.46
  132.25        2963.25           1405       17195.00     75108.15
  132.28        2963.50           1409       20707.00     90486.28
  132.30        2963.75           1412       23305.00    101870.50
  132.33        2964.00           1415       25826.00    112924.00
  132.36        2964.25           1419       29458.00    128860.40
  132.39        2964.50           1422       32194.00    140874.40
  132.42        2964.75           1425       35519.00    155485.30
  132.44        2965.00           1429       38779.00    169821.80
  132.47        2965.25           1432       41370.00    181224.10
  132.50        2965.50           1435       44064.00    193087.30
  132.53        2965.75           1439       47693.00    209079.80
  132.56        2966.00           1442       50333.00    220722.60
  132.59        2966.25           1445       52935.00    232205.00
  132.61        2966.50           1449       55863.00    245134.50
  132.64        2966.75           1452       57396.00    251907.70
  132.67        2967.00           1455       58274.00    255788.00
  132.70        2967.25           1459       58578.00    257131.60
  132.73        2967.50           1462       58525.00    256897.40
  132.76        2967.75           1465       58425.00    256455.40
  132.78        2968.00           1469       57166.00    250891.30
  132.81        2968.25           1472       55556.00    243778.50
  132.84        2968.50           1475       53097.00    232920.10
  132.87        2968.75           1479       49681.00    217846.50
  132.89        2969.00           1482       47463.00    208065.80
  132.92        2969.25           1485       44901.00    196774.60
  132.95        2969.50           1489       41809.00    183156.80
  132.98        2969.75           1492       39069.00    171097.70
  133.01        2970.00           1495       36497.00    159785.10
  133.04        2970.25           1499       32327.00    141458.60
  133.07        2970.50           1502       29297.00    128153.70
  133.09        2970.75           1505       26899.00    117630.60
  133.12        2971.00           1509       23198.00    101401.50
  133.15        2971.25           1512       20733.00     90600.18
  133.18        2971.50           1515       17836.00     77913.95
  133.21        2971.75           1519       14177.00     61903.30
  133.23        2972.00           1522       11717.00     51146.87
  133.26        2972.25           1525        9475.00     41349.10
  133.29        2972.50           1529        6431.00     28054.81
  133.32        2972.75           1532        3897.00     16995.15
  133.35        2973.00           1535        1609.00      7014.84
  133.38        2973.25           1539         393.00      1712.81
  133.40        2973.50           1542         176.00       766.80
  133.43        2973.75           1546         156.00       679.61
  133.46        2974.00           1549         139.00       605.50
  133.49        2974.25           1552         128.00       557.55
  133.52        2974.50           1556         120.00       522.68
  133.54        2974.75           1559         111.00       483.44
  133.57        2975.00           1562         109.00       474.72
  133.60        2975.25           1566         101.00       439.85
  133.63        2975.50           1569         103.00       448.57
  133.66        2975.75           1572         102.00       444.21
  133.68        2976.00           1576         105.00       457.29
  133.71        2976.25           1579          92.00       400.61
  133.74        2976.50           1582          94.00       409.33
  133.77        2976.75           1586          91.00       396.26
  133.80        2977.00           1589         101.00       439.85
  133.83        2977.25           1592         100.00       435.49
  133.85        2977.50           1596         105.00       457.29
  133.88        2977.75           1599         101.00       439.85
  133.91        2978.00           1602         111.00       483.44
  133.94        2978.25           1606         106.00       461.64
  133.97        2978.50           1609          94.00       409.33
  133.99        2978.75           1612          95.00       413.69
  134.02        2979.00           1616          92.00       400.61
  134.05        2979.25           1619         109.00       474.72
  134.08        2979.50           1622         104.00       452.93
  134.11        2979.75           1626         100.00       435.49
  134.13        2980.00           1629          94.00       409.33
  134.16        2980.25           1632          92.00       400.61
  134.19        2980.50           1636          95.00       413.69
  134.22        2980.75           1639          96.00       418.05
  134.25        2981.00           1642          94.00       409.33
  134.27        2981.25           1646          90.00       391.90
  134.30        2981.50           1649          97.00       422.41
  134.33        2981.75           1653         110.00       479.08
  134.36        2982.00           1656          97.00       422.41
  134.39        2982.25           1659          83.00       361.38
  134.42        2982.50           1663          88.00       383.18
  134.44        2982.75           1666          90.00       391.90
  134.47        2983.00           1669          95.00       413.69
  134.50        2983.25           1673         105.00       457.29
  134.53        2983.50           1676          97.00       422.41
  134.56        2983.75           1679         108.00       470.36
  134.58        2984.00           1683          91.00       396.26
HS scan finished at 02:14:53
end
