************************************************************
  HS Scan of (1) Internal mercury lamp
************************************************************
Integration time is 0.2294 seconds per sample
dh280518Delft 52.017-4.35 3.394313pr1000
************************************************************
Dead Time -------------------------  2.7E-08 
Number of Cycles Used -------------  4 
Starting Wavelength (Angstroms) ---  2950 
Final Wavelength (Angstoms) -------  2984 
Wavelength Increment (Angstroms) --  .25 
Filter Wheel #1 Position ---------- (1) Ground quartz diffuser (ND=2.32)
Filter Wheel #2 Position ---------- (1) Neutral Density 0.494



************************************************************
HS scan start time = 20:48:15
Dark Count =  .3 


Time (GMT)  Wavelength (Ang)  Step Number  Raw Counts  Counts/Second

 1248.70        2950.00           1229         101.00       438.98
 1248.80        2950.25           1232          98.00       425.90
 1248.83        2950.50           1236          97.00       421.54
 1248.86        2950.75           1239          93.00       404.10
 1248.89        2951.00           1242          89.00       386.66
 1248.92        2951.25           1246          97.00       421.54
 1248.94        2951.50           1249          99.00       430.26
 1248.97        2951.75           1252          97.00       421.54
 1249.00        2952.00           1256         100.00       434.62
 1249.03        2952.25           1259         103.00       447.70
 1249.06        2952.50           1262         100.00       434.62
 1249.08        2952.75           1266          91.00       395.38
 1249.11        2953.00           1269          88.00       382.31
 1249.14        2953.25           1272          99.00       430.26
 1249.17        2953.50           1276          89.00       386.66
 1249.20        2953.75           1279          86.00       373.59
 1249.22        2954.00           1282          98.00       425.90
 1249.25        2954.25           1286          91.00       395.38
 1249.28        2954.50           1289          92.00       399.74
 1249.31        2954.75           1292         100.00       434.62
 1249.34        2955.00           1296          93.00       404.10
 1249.37        2955.25           1299          92.00       399.74
 1249.39        2955.50           1302          98.00       425.90
 1249.42        2955.75           1306          93.00       404.10
 1249.45        2956.00           1309          94.00       408.46
 1249.48        2956.25           1312          95.00       412.82
 1249.51        2956.50           1316          90.00       391.02
 1249.53        2956.75           1319          94.00       408.46
 1249.56        2957.00           1322          91.00       395.38
 1249.59        2957.25           1326          98.00       425.90
 1249.62        2957.50           1329          90.00       391.02
 1249.65        2957.75           1332          95.00       412.82
 1249.67        2958.00           1336          98.00       425.90
 1249.70        2958.25           1339         103.00       447.70
 1249.73        2958.50           1342          99.00       430.26
 1249.76        2958.75           1345          99.00       430.26
 1249.79        2959.00           1349          91.00       395.38
 1249.82        2959.25           1352          91.00       395.38
 1249.84        2959.50           1355          96.00       417.18
 1249.87        2959.75           1359         104.00       452.05
 1249.90        2960.00           1362          89.00       386.66
 1249.93        2960.25           1365          98.00       425.90
 1249.96        2960.50           1369         102.00       443.34
 1249.98        2960.75           1372         113.00       491.29
 1250.01        2961.00           1375         114.00       495.65
 1250.04        2961.25           1379         130.00       565.40
 1250.07        2961.50           1382         176.00       765.93
 1250.10        2961.75           1385         814.00      3547.42
 1250.12        2962.00           1389        3136.00     13674.19
 1250.15        2962.25           1392        5478.00     23893.79
 1250.18        2962.50           1395        7484.00     32651.71
 1250.21        2962.75           1399       11085.00     48383.57
 1250.24        2963.00           1402       14146.00     61766.83
 1250.27        2963.25           1405       17172.00     75006.59
 1250.30        2963.50           1409       21814.00     95335.32
 1250.32        2963.75           1412       24763.00    108261.50
 1250.35        2964.00           1415       27089.00    118463.30
 1250.38        2964.25           1419       31021.00    135721.80
 1250.41        2964.50           1422       34080.00    149159.70
 1250.44        2964.75           1425       37268.00    163174.60
 1250.47        2965.00           1429       41329.00    181042.80
 1250.49        2965.25           1432       43673.00    191364.10
 1250.52        2965.50           1435       46320.00    203026.60
 1250.55        2965.75           1439       50096.00    219676.20
 1250.58        2966.00           1442       53231.00    233510.80
 1250.61        2966.25           1445       56004.00    245756.50
 1250.63        2966.50           1449       59716.00    262161.70
 1250.66        2966.75           1452       61097.00    268268.70
 1250.69        2967.00           1455       61909.00    271860.50
 1250.72        2967.25           1459       61898.00    271811.80
 1250.75        2967.50           1462       61853.00    271612.80
 1250.78        2967.75           1465       61650.00    270714.80
 1250.81        2968.00           1469       60249.00    264518.50
 1250.83        2968.25           1472       58989.00    258947.60
 1250.86        2968.50           1475       56427.00    247625.20
 1250.89        2968.75           1479       52632.00    230866.60
 1250.92        2969.00           1482       49698.00    217920.60
 1250.95        2969.25           1485       46710.00    204745.60
 1250.98        2969.50           1489       43170.00    189148.80
 1251.00        2969.75           1492       40504.00    177411.40
 1251.03        2970.00           1495       37634.00    164784.30
 1251.06        2970.25           1499       33856.00    148175.30
 1251.09        2970.50           1502       30613.00    133930.30
 1251.12        2970.75           1505       27907.00    122052.40
 1251.15        2971.00           1509       24700.00    107985.30
 1251.17        2971.25           1512       21855.00     95514.96
 1251.20        2971.50           1515       19378.00     84664.55
 1251.23        2971.75           1519       15201.00     66381.73
 1251.26        2972.00           1522       12205.00     53279.30
 1251.29        2972.25           1525        9440.00     41195.32
 1251.31        2972.50           1529        5493.00     23959.26
 1251.34        2972.75           1532        3300.00     14389.64
 1251.37        2973.00           1535        1403.00      6115.66
 1251.40        2973.25           1539         298.00      1297.78
 1251.43        2973.50           1542         169.00       735.41
 1251.46        2973.75           1546         135.00       587.19
 1251.48        2974.00           1549         130.00       565.40
 1251.51        2974.25           1552         126.00       547.96
 1251.54        2974.50           1556         115.00       500.01
 1251.57        2974.75           1559          98.00       425.90
 1251.60        2975.00           1562          97.00       421.54
 1251.63        2975.25           1566          93.00       404.10
 1251.65        2975.50           1569          92.00       399.74
 1251.68        2975.75           1572          94.00       408.46
 1251.71        2976.00           1576         102.00       443.34
 1251.74        2976.25           1579          89.00       386.66
 1251.77        2976.50           1582          89.00       386.66
 1251.79        2976.75           1586          84.00       364.87
 1251.82        2977.00           1589          87.00       377.95
 1251.85        2977.25           1592          89.00       386.66
 1251.88        2977.50           1596          86.00       373.59
 1251.91        2977.75           1599          88.00       382.31
 1251.94        2978.00           1602          93.00       404.10
 1251.96        2978.25           1606          89.00       386.66
 1251.99        2978.50           1609          88.00       382.31
 1252.02        2978.75           1612          90.00       391.02
 1252.05        2979.00           1616          92.00       399.74
 1252.08        2979.25           1619          87.00       377.95
 1252.10        2979.50           1622          86.00       373.59
 1252.13        2979.75           1626          88.00       382.31
 1252.16        2980.00           1629          86.00       373.59
 1252.19        2980.25           1632          92.00       399.74
 1252.22        2980.50           1636          89.00       386.66
 1252.25        2980.75           1639          93.00       404.10
 1252.27        2981.00           1642          85.00       369.23
 1252.30        2981.25           1646          84.00       364.87
 1252.33        2981.50           1649          86.00       373.59
 1252.36        2981.75           1653          92.00       399.74
 1252.39        2982.00           1656          80.00       347.43
 1252.41        2982.25           1659          78.00       338.71
 1252.44        2982.50           1663          89.00       386.66
 1252.47        2982.75           1666          78.00       338.71
 1252.50        2983.00           1669          79.00       343.07
 1252.53        2983.25           1673          84.00       364.87
 1252.55        2983.50           1676          82.00       356.15
 1252.58        2983.75           1679          77.00       334.35
 1252.61        2984.00           1683          90.00       391.02
HS scan finished at 20:52:54
end
