************************************************************
  HS Scan of (1) Internal mercury lamp
************************************************************
Integration time is 0.2294 seconds per sample
dh200518Delft 52.017-4.35 2.589593pr1000
************************************************************
Dead Time -------------------------  2.7E-08 
Number of Cycles Used -------------  4 
Starting Wavelength (Angstroms) ---  2950 
Final Wavelength (Angstoms) -------  2984 
Wavelength Increment (Angstroms) --  .25 
Filter Wheel #1 Position ---------- (1) Ground quartz diffuser (ND=2.32)
Filter Wheel #2 Position ---------- (1) Neutral Density 0.494



************************************************************
HS scan start time = 01:29:58
Dark Count =  .1 


Time (GMT)  Wavelength (Ang)  Step Number  Raw Counts  Counts/Second

   90.42        2950.00           1229         115.00       500.88
   90.52        2950.25           1232         122.00       531.39
   90.54        2950.50           1236         128.00       557.55
   90.57        2950.75           1239         129.00       561.91
   90.60        2951.00           1242         127.00       553.19
   90.63        2951.25           1246         121.00       527.03
   90.66        2951.50           1249         113.00       492.16
   90.68        2951.75           1252         118.00       513.96
   90.71        2952.00           1256         119.00       518.32
   90.74        2952.25           1259         125.00       544.47
   90.77        2952.50           1262         113.00       492.16
   90.80        2952.75           1266         122.00       531.39
   90.82        2953.00           1269         125.00       544.47
   90.85        2953.25           1272         122.00       531.39
   90.88        2953.50           1276         122.00       531.39
   90.91        2953.75           1279         125.00       544.47
   90.94        2954.00           1282         129.00       561.91
   90.96        2954.25           1286         120.00       522.68
   90.99        2954.50           1289         115.00       500.88
   91.02        2954.75           1292         115.00       500.88
   91.05        2955.00           1296         121.00       527.03
   91.08        2955.25           1299         113.00       492.16
   91.10        2955.50           1302         129.00       561.91
   91.13        2955.75           1306         111.00       483.44
   91.16        2956.00           1309         120.00       522.68
   91.19        2956.25           1312         122.00       531.39
   91.22        2956.50           1316         125.00       544.47
   91.24        2956.75           1319         139.00       605.50
   91.27        2957.00           1322         119.00       518.32
   91.30        2957.25           1326         129.00       561.91
   91.33        2957.50           1329         120.00       522.68
   91.36        2957.75           1332         111.00       483.44
   91.38        2958.00           1336         117.00       509.60
   91.41        2958.25           1339         106.00       461.64
   91.44        2958.50           1342         118.00       513.96
   91.47        2958.75           1345         125.00       544.47
   91.50        2959.00           1349         117.00       509.60
   91.52        2959.25           1352         119.00       518.32
   91.55        2959.50           1355         122.00       531.39
   91.58        2959.75           1359         114.00       496.52
   91.61        2960.00           1362         115.00       500.88
   91.64        2960.25           1365         114.00       496.52
   91.66        2960.50           1369         120.00       522.68
   91.69        2960.75           1372         129.00       561.91
   91.72        2961.00           1375         130.00       566.27
   91.75        2961.25           1379         150.00       653.46
   91.78        2961.50           1382         216.00       941.17
   91.80        2961.75           1385         569.00      2480.11
   91.83        2962.00           1389        2154.00      9391.66
   91.86        2962.25           1392        4251.00     18539.79
   91.89        2962.50           1395        6363.00     27757.94
   91.92        2962.75           1399        9764.00     42611.78
   91.94        2963.00           1402       12479.00     54478.07
   91.97        2963.25           1405       14994.00     65477.04
   92.00        2963.50           1409       18576.00     81153.66
   92.03        2963.75           1412       21131.00     92343.74
   92.06        2964.00           1415       23636.00    103321.40
   92.08        2964.25           1419       26646.00    116520.80
   92.11        2964.50           1422       28657.00    125344.60
   92.14        2964.75           1425       31050.00    135850.10
   92.17        2965.00           1429       34418.00    150645.90
   92.20        2965.25           1432       36720.00    160765.60
   92.22        2965.50           1435       39153.00    171467.20
   92.25        2965.75           1439       42174.00    184763.80
   92.28        2966.00           1442       44352.00    194355.90
   92.31        2966.25           1445       46703.00    204715.60
   92.34        2966.50           1449       49743.00    218119.90
   92.36        2966.75           1452       51061.00    223934.50
   92.39        2967.00           1455       51434.00    225580.30
   92.42        2967.25           1459       51574.00    226198.10
   92.45        2967.50           1462       51591.00    226273.10
   92.48        2967.75           1465       51656.00    226560.00
   92.51        2968.00           1469       50686.00    222279.90
   92.53        2968.25           1472       49117.00    215358.90
   92.56        2968.50           1475       47100.00    206465.50
   92.59        2968.75           1479       44039.00    192977.20
   92.62        2969.00           1482       41766.00    182967.50
   92.65        2969.25           1485       39509.00    173033.60
   92.67        2969.50           1489       36416.00    159428.90
   92.70        2969.75           1492       34082.00    149169.30
   92.73        2970.00           1495       31926.00    139697.30
   92.76        2970.25           1499       28862.00    126244.30
   92.79        2970.50           1502       26476.00    115775.00
   92.81        2970.75           1505       23712.00    103654.60
   92.84        2971.00           1509       20211.00     88313.65
   92.87        2971.25           1512       17758.00     77572.51
   92.90        2971.50           1515       15652.00     68355.78
   92.93        2971.75           1519       12753.00     55676.05
   92.96        2972.00           1522       10256.00     44761.57
   92.98        2972.25           1525        7835.00     34185.42
   93.01        2972.50           1529        4785.00     20870.08
   93.04        2972.75           1532        2757.00     12021.78
   93.07        2973.00           1535        1404.00      6120.89
   93.10        2973.25           1539         439.00      1913.35
   93.12        2973.50           1542         209.00       910.66
   93.15        2973.75           1546         161.00       701.41
   93.18        2974.00           1549         151.00       657.81
   93.21        2974.25           1552         126.00       548.83
   93.24        2974.50           1556         134.00       583.71
   93.26        2974.75           1559         115.00       500.88
   93.29        2975.00           1562         122.00       531.39
   93.32        2975.25           1566         118.00       513.96
   93.35        2975.50           1569         114.00       496.52
   93.38        2975.75           1572         105.00       457.29
   93.40        2976.00           1576         107.00       466.00
   93.43        2976.25           1579         113.00       492.16
   93.46        2976.50           1582         106.00       461.64
   93.49        2976.75           1586          94.00       409.33
   93.52        2977.00           1589         106.00       461.64
   93.54        2977.25           1592         111.00       483.44
   93.57        2977.50           1596         116.00       505.24
   93.60        2977.75           1599         117.00       509.60
   93.63        2978.00           1602         113.00       492.16
   93.65        2978.25           1606         110.00       479.08
   93.68        2978.50           1609         108.00       470.36
   93.71        2978.75           1612         105.00       457.29
   93.74        2979.00           1616          96.00       418.05
   93.77        2979.25           1619         107.00       466.00
   93.79        2979.50           1622         101.00       439.85
   93.82        2979.75           1626         103.00       448.57
   93.85        2980.00           1629         105.00       457.29
   93.88        2980.25           1632         106.00       461.64
   93.91        2980.50           1636         105.00       457.29
   93.93        2980.75           1639         101.00       439.85
   93.96        2981.00           1642          98.00       426.77
   93.99        2981.25           1646         102.00       444.21
   94.02        2981.50           1649         103.00       448.57
   94.05        2981.75           1653         113.00       492.16
   94.07        2982.00           1656          98.00       426.77
   94.10        2982.25           1659          92.00       400.61
   94.13        2982.50           1663         102.00       444.21
   94.16        2982.75           1666          98.00       426.77
   94.19        2983.00           1669         104.00       452.93
   94.21        2983.25           1673         106.00       461.64
   94.24        2983.50           1676         100.00       435.49
   94.27        2983.75           1679         104.00       452.93
   94.30        2984.00           1683          94.00       409.33
HS scan finished at 01:34:36
end
************************************************************
  HS Scan of (1) Internal mercury lamp
************************************************************
Integration time is 0.2294 seconds per sample
dh200518Delft 52.017-4.35 2.965129pr1000
************************************************************
Dead Time -------------------------  2.7E-08 
Number of Cycles Used -------------  4 
Starting Wavelength (Angstroms) ---  2950 
Final Wavelength (Angstoms) -------  2984 
Wavelength Increment (Angstroms) --  .25 
Filter Wheel #1 Position ---------- (1) Ground quartz diffuser (ND=2.32)
Filter Wheel #2 Position ---------- (1) Neutral Density 0.494



************************************************************
HS scan start time = 20:39:21
Dark Count =  .1 


Time (GMT)  Wavelength (Ang)  Step Number  Raw Counts  Counts/Second

 1239.80        2950.00           1229         109.00       474.72
 1239.89        2950.25           1232         120.00       522.68
 1239.92        2950.50           1236         101.00       439.85
 1239.95        2950.75           1239         105.00       457.29
 1239.98        2951.00           1242         109.00       474.72
 1240.01        2951.25           1246         117.00       509.60
 1240.03        2951.50           1249         107.00       466.00
 1240.06        2951.75           1252         110.00       479.08
 1240.09        2952.00           1256         105.00       457.29
 1240.12        2952.25           1259         117.00       509.60
 1240.15        2952.50           1262         107.00       466.00
 1240.17        2952.75           1266         105.00       457.29
 1240.20        2953.00           1269         110.00       479.08
 1240.23        2953.25           1272         123.00       535.75
 1240.26        2953.50           1276          97.00       422.41
 1240.29        2953.75           1279         114.00       496.52
 1240.32        2954.00           1282         115.00       500.88
 1240.34        2954.25           1286         113.00       492.16
 1240.37        2954.50           1289         109.00       474.72
 1240.40        2954.75           1292         108.00       470.36
 1240.43        2955.00           1296         106.00       461.64
 1240.46        2955.25           1299         106.00       461.64
 1240.49        2955.50           1302         116.00       505.24
 1240.51        2955.75           1306         123.00       535.75
 1240.54        2956.00           1309         106.00       461.64
 1240.57        2956.25           1312         108.00       470.36
 1240.60        2956.50           1316         102.00       444.21
 1240.63        2956.75           1319         114.00       496.52
 1240.65        2957.00           1322         103.00       448.57
 1240.68        2957.25           1326         109.00       474.72
 1240.71        2957.50           1329         112.00       487.80
 1240.74        2957.75           1332         112.00       487.80
 1240.77        2958.00           1336         110.00       479.08
 1240.79        2958.25           1339         103.00       448.57
 1240.82        2958.50           1342         115.00       500.88
 1240.85        2958.75           1345         100.00       435.49
 1240.88        2959.00           1349         109.00       474.72
 1240.91        2959.25           1352         116.00       505.24
 1240.93        2959.50           1355         106.00       461.64
 1240.96        2959.75           1359         103.00       448.57
 1240.99        2960.00           1362         109.00       474.72
 1241.02        2960.25           1365          98.00       426.77
 1241.05        2960.50           1369         112.00       487.80
 1241.08        2960.75           1372         120.00       522.68
 1241.10        2961.00           1375         133.00       579.35
 1241.13        2961.25           1379         143.00       622.94
 1241.16        2961.50           1382         202.00       880.14
 1241.19        2961.75           1385         621.00      2706.82
 1241.22        2962.00           1389        2257.00      9840.89
 1241.24        2962.25           1392        4217.00     18391.43
 1241.27        2962.50           1395        6513.00     28412.81
 1241.30        2962.75           1399       10443.00     45578.73
 1241.33        2963.00           1402       13503.00     58955.59
 1241.36        2963.25           1405       15903.00     69454.02
 1241.38        2963.50           1409       19574.00     85523.77
 1241.41        2963.75           1412       22560.00     98605.24
 1241.44        2964.00           1415       25592.00    111897.70
 1241.47        2964.25           1419       29466.00    128895.50
 1241.50        2964.50           1422       32218.00    140979.80
 1241.52        2964.75           1425       34426.00    150681.10
 1241.55        2965.00           1429       38325.00    167824.60
 1241.58        2965.25           1432       41634.00    182386.40
 1241.61        2965.50           1435       43764.00    191765.80
 1241.64        2965.75           1439       47616.00    208740.30
 1241.67        2966.00           1442       50413.00    221075.50
 1241.70        2966.25           1445       53058.00    232748.00
 1241.72        2966.50           1449       56377.00    247405.20
 1241.75        2966.75           1452       57609.00    252848.90
 1241.78        2967.00           1455       58074.00    254904.00
 1241.81        2967.25           1459       58231.00    255597.90
 1241.84        2967.50           1462       58178.00    255363.60
 1241.86        2967.75           1465       57939.00    254307.30
 1241.89        2968.00           1469       57206.00    251068.00
 1241.92        2968.25           1472       55103.00    241777.70
 1241.95        2968.50           1475       52589.00    230677.70
 1241.98        2968.75           1479       49433.00    216752.60
 1242.01        2969.00           1482       46999.00    206020.30
 1242.04        2969.25           1485       44301.00    194131.30
 1242.06        2969.50           1489       41100.00    180035.60
 1242.09        2969.75           1492       38098.00    166826.00
 1242.12        2970.00           1495       35382.00    154883.10
 1242.15        2970.25           1499       32392.00    141744.10
 1242.18        2970.50           1502       29721.00    130014.90
 1242.20        2970.75           1505       27338.00    119556.60
 1242.23        2971.00           1509       23284.00    101778.40
 1242.26        2971.25           1512       20513.00     89636.48
 1242.29        2971.50           1515       18001.00     78636.27
 1242.32        2971.75           1519       14329.00     62568.13
 1242.34        2972.00           1522       11863.00     51785.09
 1242.37        2972.25           1525        9417.00     41095.71
 1242.40        2972.50           1529        5881.00     25653.77
 1242.43        2972.75           1532        3306.00     14416.68
 1242.46        2973.00           1535        1683.00      7337.55
 1242.48        2973.25           1539         590.00      2571.67
 1242.51        2973.50           1542         214.00       932.46
 1242.54        2973.75           1546         158.00       688.33
 1242.57        2974.00           1549         135.00       588.07
 1242.60        2974.25           1552         134.00       583.71
 1242.63        2974.50           1556         119.00       518.32
 1242.66        2974.75           1559         123.00       535.75
 1242.68        2975.00           1562         110.00       479.08
 1242.71        2975.25           1566         105.00       457.29
 1242.74        2975.50           1569         115.00       500.88
 1242.77        2975.75           1572         105.00       457.29
 1242.80        2976.00           1576         100.00       435.49
 1242.82        2976.25           1579          93.00       404.97
 1242.85        2976.50           1582         100.00       435.49
 1242.88        2976.75           1586          94.00       409.33
 1242.91        2977.00           1589         101.00       439.85
 1242.93        2977.25           1592          94.00       409.33
 1242.96        2977.50           1596         103.00       448.57
 1242.99        2977.75           1599         101.00       439.85
 1243.02        2978.00           1602          98.00       426.77
 1243.05        2978.25           1606          97.00       422.41
 1243.07        2978.50           1609          96.00       418.05
 1243.10        2978.75           1612          91.00       396.26
 1243.13        2979.00           1616         101.00       439.85
 1243.16        2979.25           1619          99.00       431.13
 1243.19        2979.50           1622          97.00       422.41
 1243.22        2979.75           1626          99.00       431.13
 1243.24        2980.00           1629          97.00       422.41
 1243.27        2980.25           1632          94.00       409.33
 1243.30        2980.50           1636         100.00       435.49
 1243.33        2980.75           1639          99.00       431.13
 1243.36        2981.00           1642         105.00       457.29
 1243.38        2981.25           1646         101.00       439.85
 1243.41        2981.50           1649          88.00       383.18
 1243.44        2981.75           1653          87.00       378.82
 1243.47        2982.00           1656          95.00       413.69
 1243.50        2982.25           1659          93.00       404.97
 1243.52        2982.50           1663          96.00       418.05
 1243.55        2982.75           1666          98.00       426.77
 1243.58        2983.00           1669         100.00       435.49
 1243.61        2983.25           1673         101.00       439.85
 1243.64        2983.50           1676          92.00       400.61
 1243.67        2983.75           1679          89.00       387.54
 1243.69        2984.00           1683          91.00       396.26
HS scan finished at 20:44:00
end
