************************************************************
  HS Scan of (1) Internal mercury lamp
************************************************************
Integration time is 0.2294 seconds per sample
dh230518Delft 52.017-4.35 2.911481pr1000
************************************************************
Dead Time -------------------------  2.7E-08 
Number of Cycles Used -------------  4 
Starting Wavelength (Angstroms) ---  2950 
Final Wavelength (Angstoms) -------  2984 
Wavelength Increment (Angstroms) --  .25 
Filter Wheel #1 Position ---------- (1) Ground quartz diffuser (ND=2.32)
Filter Wheel #2 Position ---------- (1) Neutral Density 0.494



************************************************************
HS scan start time = 02:59:08
Dark Count =  .1 


Time (GMT)  Wavelength (Ang)  Step Number  Raw Counts  Counts/Second

  179.58        2950.00           1229         108.00       470.36
  179.68        2950.25           1232         121.00       527.03
  179.70        2950.50           1236         115.00       500.88
  179.73        2950.75           1239         113.00       492.16
  179.76        2951.00           1242         111.00       483.44
  179.79        2951.25           1246         121.00       527.03
  179.82        2951.50           1249         103.00       448.57
  179.84        2951.75           1252         111.00       483.44
  179.87        2952.00           1256         117.00       509.60
  179.90        2952.25           1259         115.00       500.88
  179.93        2952.50           1262         109.00       474.72
  179.96        2952.75           1266         111.00       483.44
  179.98        2953.00           1269         120.00       522.68
  180.01        2953.25           1272         105.00       457.29
  180.04        2953.50           1276         115.00       500.88
  180.07        2953.75           1279         120.00       522.68
  180.10        2954.00           1282         113.00       492.16
  180.13        2954.25           1286         111.00       483.44
  180.15        2954.50           1289         110.00       479.08
  180.18        2954.75           1292         118.00       513.96
  180.21        2955.00           1296         115.00       500.88
  180.24        2955.25           1299         102.00       444.21
  180.27        2955.50           1302         108.00       470.36
  180.30        2955.75           1306         118.00       513.96
  180.32        2956.00           1309         111.00       483.44
  180.35        2956.25           1312         104.00       452.93
  180.38        2956.50           1316         111.00       483.44
  180.41        2956.75           1319         104.00       452.93
  180.44        2957.00           1322         112.00       487.80
  180.46        2957.25           1326         115.00       500.88
  180.49        2957.50           1329         101.00       439.85
  180.52        2957.75           1332         117.00       509.60
  180.55        2958.00           1336         108.00       470.36
  180.57        2958.25           1339         113.00       492.16
  180.60        2958.50           1342         103.00       448.57
  180.63        2958.75           1345          99.00       431.13
  180.66        2959.00           1349         113.00       492.16
  180.69        2959.25           1352          99.00       431.13
  180.72        2959.50           1355         104.00       452.93
  180.74        2959.75           1359         104.00       452.93
  180.77        2960.00           1362         112.00       487.80
  180.80        2960.25           1365         114.00       496.52
  180.83        2960.50           1369         122.00       531.39
  180.86        2960.75           1372         128.00       557.55
  180.88        2961.00           1375         121.00       527.03
  180.91        2961.25           1379         142.00       618.58
  180.94        2961.50           1382         187.00       814.75
  180.97        2961.75           1385         593.00      2584.75
  181.00        2962.00           1389        2488.00     10848.43
  181.02        2962.25           1392        4299.00     18749.25
  181.05        2962.50           1395        6347.00     27688.08
  181.08        2962.75           1399       10273.00     44835.85
  181.11        2963.00           1402       13130.00     57324.49
  181.14        2963.25           1405       16032.00     70018.48
  181.17        2963.50           1409       20172.00     88142.82
  181.19        2963.75           1412       23080.00    100884.30
  181.22        2964.00           1415       26031.00    113823.10
  181.25        2964.25           1419       29855.00    130603.20
  181.28        2964.50           1422       32679.00    143004.90
  181.31        2964.75           1425       35516.00    155472.10
  181.33        2965.00           1429       38438.00    168321.60
  181.36        2965.25           1432       40906.00    179181.70
  181.39        2965.50           1435       43463.00    190440.10
  181.42        2965.75           1439       46909.00    205623.60
  181.45        2966.00           1442       49676.00    217824.40
  181.48        2966.25           1445       52547.00    230492.30
  181.50        2966.50           1449       55698.00    244405.70
  181.53        2966.75           1452       57068.00    250458.20
  181.56        2967.00           1455       58071.00    254890.70
  181.59        2967.25           1459       58222.00    255558.10
  181.62        2967.50           1462       58226.00    255575.80
  181.65        2967.75           1465       58090.00    254974.70
  181.68        2968.00           1469       57631.00    252946.10
  181.70        2968.25           1472       56069.00    246044.60
  181.73        2968.50           1475       53749.00    235798.60
  181.76        2968.75           1479       50609.00    221940.20
  181.79        2969.00           1482       47883.00    209917.50
  181.82        2969.25           1485       44824.00    196435.30
  181.84        2969.50           1489       41604.00    182254.30
  181.87        2969.75           1492       38951.00    170578.50
  181.90        2970.00           1495       36276.00    158813.40
  181.93        2970.25           1499       32340.00    141515.70
  181.96        2970.50           1502       29661.00    129751.50
  181.99        2970.75           1505       27387.00    119771.60
  182.01        2971.00           1509       23756.00    103847.40
  182.04        2971.25           1512       21146.00     92409.44
  182.07        2971.50           1515       18210.00     79551.25
  182.10        2971.75           1519       14127.00     61684.61
  182.13        2972.00           1522       11331.00     49459.65
  182.16        2972.25           1525        8936.00     38994.40
  182.19        2972.50           1529        5930.00     25867.67
  182.21        2972.75           1532        3386.00     14765.69
  182.24        2973.00           1535        1470.00      6408.69
  182.27        2973.25           1539         413.00      1800.00
  182.30        2973.50           1542         196.00       853.99
  182.33        2973.75           1546         163.00       710.13
  182.35        2974.00           1549         147.00       640.38
  182.38        2974.25           1552         130.00       566.27
  182.41        2974.50           1556         123.00       535.75
  182.44        2974.75           1559         117.00       509.60
  182.46        2975.00           1562         110.00       479.08
  182.49        2975.25           1566         112.00       487.80
  182.52        2975.50           1569         104.00       452.93
  182.55        2975.75           1572         108.00       470.36
  182.58        2976.00           1576          99.00       431.13
  182.60        2976.25           1579          95.00       413.69
  182.63        2976.50           1582         109.00       474.72
  182.66        2976.75           1586          98.00       426.77
  182.69        2977.00           1589         101.00       439.85
  182.72        2977.25           1592         102.00       444.21
  182.75        2977.50           1596         104.00       452.93
  182.77        2977.75           1599          96.00       418.05
  182.80        2978.00           1602          96.00       418.05
  182.83        2978.25           1606          98.00       426.77
  182.86        2978.50           1609         106.00       461.64
  182.89        2978.75           1612          94.00       409.33
  182.91        2979.00           1616         103.00       448.57
  182.94        2979.25           1619          95.00       413.69
  182.97        2979.50           1622          96.00       418.05
  183.00        2979.75           1626          96.00       418.05
  183.02        2980.00           1629          99.00       431.13
  183.05        2980.25           1632         101.00       439.85
  183.08        2980.50           1636          94.00       409.33
  183.11        2980.75           1639          96.00       418.05
  183.14        2981.00           1642          99.00       431.13
  183.17        2981.25           1646         100.00       435.49
  183.19        2981.50           1649          99.00       431.13
  183.22        2981.75           1653          97.00       422.41
  183.25        2982.00           1656          92.00       400.61
  183.28        2982.25           1659         103.00       448.57
  183.31        2982.50           1663          99.00       431.13
  183.33        2982.75           1666          93.00       404.97
  183.36        2983.00           1669          98.00       426.77
  183.39        2983.25           1673          87.00       378.82
  183.42        2983.50           1676          84.00       365.74
  183.45        2983.75           1679          92.00       400.61
  183.47        2984.00           1683          89.00       387.54
HS scan finished at 03:03:46
end
************************************************************
  HS Scan of (1) Internal mercury lamp
************************************************************
Integration time is 0.2294 seconds per sample
dh230518Delft 52.017-4.35 3.179721pr1000
************************************************************
Dead Time -------------------------  2.7E-08 
Number of Cycles Used -------------  4 
Starting Wavelength (Angstroms) ---  2950 
Final Wavelength (Angstoms) -------  2984 
Wavelength Increment (Angstroms) --  .25 
Filter Wheel #1 Position ---------- (1) Ground quartz diffuser (ND=2.32)
Filter Wheel #2 Position ---------- (1) Neutral Density 0.494



************************************************************
HS scan start time = 20:41:42
Dark Count =  .1 


Time (GMT)  Wavelength (Ang)  Step Number  Raw Counts  Counts/Second

 1242.15        2950.00           1229         106.00       461.64
 1242.25        2950.25           1232         104.00       452.93
 1242.27        2950.50           1236         102.00       444.21
 1242.30        2950.75           1239         105.00       457.29
 1242.33        2951.00           1242          95.00       413.69
 1242.36        2951.25           1246         111.00       483.44
 1242.39        2951.50           1249         102.00       444.21
 1242.41        2951.75           1252          98.00       426.77
 1242.44        2952.00           1256         105.00       457.29
 1242.47        2952.25           1259         110.00       479.08
 1242.50        2952.50           1262         107.00       466.00
 1242.53        2952.75           1266         101.00       439.85
 1242.56        2953.00           1269         112.00       487.80
 1242.58        2953.25           1272          99.00       431.13
 1242.61        2953.50           1276          97.00       422.41
 1242.64        2953.75           1279          98.00       426.77
 1242.67        2954.00           1282         110.00       479.08
 1242.70        2954.25           1286         107.00       466.00
 1242.72        2954.50           1289          97.00       422.41
 1242.75        2954.75           1292         103.00       448.57
 1242.78        2955.00           1296         114.00       496.52
 1242.81        2955.25           1299          98.00       426.77
 1242.84        2955.50           1302         109.00       474.72
 1242.86        2955.75           1306          99.00       431.13
 1242.89        2956.00           1309          96.00       418.05
 1242.92        2956.25           1312          96.00       418.05
 1242.95        2956.50           1316         101.00       439.85
 1242.98        2956.75           1319         106.00       461.64
 1243.01        2957.00           1322         103.00       448.57
 1243.03        2957.25           1326          98.00       426.77
 1243.06        2957.50           1329         107.00       466.00
 1243.09        2957.75           1332          96.00       418.05
 1243.12        2958.00           1336          98.00       426.77
 1243.15        2958.25           1339         102.00       444.21
 1243.17        2958.50           1342          94.00       409.33
 1243.20        2958.75           1345          98.00       426.77
 1243.23        2959.00           1349         102.00       444.21
 1243.26        2959.25           1352         106.00       461.64
 1243.29        2959.50           1355         105.00       457.29
 1243.31        2959.75           1359         104.00       452.93
 1243.34        2960.00           1362         100.00       435.49
 1243.37        2960.25           1365          99.00       431.13
 1243.40        2960.50           1369         105.00       457.29
 1243.43        2960.75           1372         109.00       474.72
 1243.46        2961.00           1375         117.00       509.60
 1243.48        2961.25           1379         137.00       596.78
 1243.51        2961.50           1382         198.00       862.71
 1243.54        2961.75           1385         837.00      3648.57
 1243.57        2962.00           1389        2830.00     12340.20
 1243.60        2962.25           1392        4687.00     20442.40
 1243.63        2962.50           1395        7119.00     31058.73
 1243.65        2962.75           1399       11056.00     48257.70
 1243.68        2963.00           1402       14216.00     62073.88
 1243.71        2963.25           1405       17358.00     75821.59
 1243.74        2963.50           1409       20755.00     90696.54
 1243.77        2963.75           1412       23450.00    102506.10
 1243.79        2964.00           1415       26788.00    117143.70
 1243.82        2964.25           1419       30831.00    134888.40
 1243.85        2964.50           1422       33733.00    147635.70
 1243.88        2964.75           1425       36980.00    161908.90
 1243.91        2965.00           1429       40569.00    177698.40
 1243.94        2965.25           1432       43251.00    189506.40
 1243.96        2965.50           1435       46311.00    202987.80
 1243.99        2965.75           1439       50051.00    219478.60
 1244.02        2966.00           1442       52573.00    230607.10
 1244.05        2966.25           1445       55289.00    242599.10
 1244.08        2966.50           1449       58127.00    255138.20
 1244.11        2966.75           1452       59697.00    262078.50
 1244.14        2967.00           1455       60117.00    263935.70
 1244.16        2967.25           1459       60426.00    265302.10
 1244.19        2967.50           1462       60531.00    265766.50
 1244.22        2967.75           1465       60291.00    264705.10
 1244.25        2968.00           1469       59115.00    259505.50
 1244.28        2968.25           1472       57368.00    251783.90
 1244.31        2968.50           1475       55113.00    241821.80
 1244.33        2968.75           1479       51171.00    224419.80
 1244.36        2969.00           1482       49017.00    214917.90
 1244.39        2969.25           1485       46410.00    203424.20
 1244.42        2969.50           1489       42869.00    187824.10
 1244.45        2969.75           1492       40377.00    176853.40
 1244.48        2970.00           1495       37248.00    163087.50
 1244.50        2970.25           1499       33137.00    145017.00
 1244.53        2970.50           1502       30055.00    131481.20
 1244.56        2970.75           1505       27659.00    120965.10
 1244.59        2971.00           1509       23865.00    104325.30
 1244.62        2971.25           1512       21172.00     92523.35
 1244.65        2971.50           1515       18062.00     78903.31
 1244.67        2971.75           1519       14803.00     64641.50
 1244.70        2972.00           1522       12472.00     54447.47
 1244.73        2972.25           1525        9649.00     42109.32
 1244.76        2972.50           1529        6032.00     26312.93
 1244.79        2972.75           1532        3108.00     13552.91
 1244.82        2973.00           1535        1200.00      5231.34
 1244.84        2973.25           1539         335.00      1459.95
 1244.87        2973.50           1542         173.00       753.72
 1244.90        2973.75           1546         144.00       627.30
 1244.93        2974.00           1549         132.00       574.99
 1244.96        2974.25           1552         134.00       583.71
 1244.98        2974.50           1556         115.00       500.88
 1245.01        2974.75           1559         105.00       457.29
 1245.04        2975.00           1562         103.00       448.57
 1245.07        2975.25           1566         100.00       435.49
 1245.10        2975.50           1569          99.00       431.13
 1245.12        2975.75           1572         100.00       435.49
 1245.15        2976.00           1576         105.00       457.29
 1245.18        2976.25           1579          91.00       396.26
 1245.21        2976.50           1582          86.00       374.46
 1245.24        2976.75           1586          99.00       431.13
 1245.26        2977.00           1589          87.00       378.82
 1245.29        2977.25           1592          99.00       431.13
 1245.32        2977.50           1596          95.00       413.69
 1245.35        2977.75           1599          94.00       409.33
 1245.38        2978.00           1602          92.00       400.61
 1245.41        2978.25           1606          90.00       391.90
 1245.43        2978.50           1609          93.00       404.97
 1245.46        2978.75           1612          90.00       391.90
 1245.49        2979.00           1616          92.00       400.61
 1245.52        2979.25           1619          90.00       391.90
 1245.55        2979.50           1622          94.00       409.33
 1245.57        2979.75           1626          91.00       396.26
 1245.60        2980.00           1629          96.00       418.05
 1245.63        2980.25           1632         100.00       435.49
 1245.66        2980.50           1636          95.00       413.69
 1245.69        2980.75           1639          95.00       413.69
 1245.71        2981.00           1642          85.00       370.10
 1245.74        2981.25           1646          90.00       391.90
 1245.77        2981.50           1649          90.00       391.90
 1245.80        2981.75           1653          88.00       383.18
 1245.83        2982.00           1656          90.00       391.90
 1245.85        2982.25           1659          88.00       383.18
 1245.88        2982.50           1663          93.00       404.97
 1245.91        2982.75           1666          83.00       361.38
 1245.94        2983.00           1669          78.00       339.58
 1245.97        2983.25           1673          93.00       404.97
 1246.00        2983.50           1676          84.00       365.74
 1246.02        2983.75           1679          85.00       370.10
 1246.05        2984.00           1683          98.00       426.77
HS scan finished at 20:46:21
end
