************************************************************
  HS Scan of (1) Internal mercury lamp
************************************************************
Integration time is 0.2294 seconds per sample
dh290518Delft 52.017-4.35 3.126073pr1000
************************************************************
Dead Time -------------------------  2.7E-08 
Number of Cycles Used -------------  4 
Starting Wavelength (Angstroms) ---  2950 
Final Wavelength (Angstoms) -------  2984 
Wavelength Increment (Angstroms) --  .25 
Filter Wheel #1 Position ---------- (1) Ground quartz diffuser (ND=2.32)
Filter Wheel #2 Position ---------- (1) Neutral Density 0.494



************************************************************
HS scan start time = 01:39:58
Dark Count =  .2 


Time (GMT)  Wavelength (Ang)  Step Number  Raw Counts  Counts/Second

  100.43        2950.00           1229         110.00       478.65
  100.53        2950.25           1232          97.00       421.98
  100.55        2950.50           1236         100.00       435.05
  100.58        2950.75           1239         103.00       448.13
  100.61        2951.00           1242          95.00       413.26
  100.64        2951.25           1246         102.00       443.77
  100.67        2951.50           1249         108.00       469.93
  100.69        2951.75           1252         109.00       474.29
  100.72        2952.00           1256         100.00       435.05
  100.75        2952.25           1259          94.00       408.90
  100.78        2952.50           1262         101.00       439.41
  100.81        2952.75           1266          98.00       426.33
  100.83        2953.00           1269         104.00       452.49
  100.86        2953.25           1272         101.00       439.41
  100.89        2953.50           1276         101.00       439.41
  100.92        2953.75           1279         111.00       483.01
  100.95        2954.00           1282         110.00       478.65
  100.98        2954.25           1286          90.00       391.46
  101.00        2954.50           1289          99.00       430.69
  101.03        2954.75           1292         109.00       474.29
  101.06        2955.00           1296         115.00       500.44
  101.09        2955.25           1299         108.00       469.93
  101.12        2955.50           1302          98.00       426.33
  101.14        2955.75           1306          98.00       426.33
  101.17        2956.00           1309          97.00       421.98
  101.20        2956.25           1312          96.00       417.62
  101.23        2956.50           1316         100.00       435.05
  101.26        2956.75           1319         102.00       443.77
  101.29        2957.00           1322         100.00       435.05
  101.31        2957.25           1326         103.00       448.13
  101.34        2957.50           1329         104.00       452.49
  101.37        2957.75           1332          94.00       408.90
  101.40        2958.00           1336         104.00       452.49
  101.43        2958.25           1339          95.00       413.26
  101.45        2958.50           1342         104.00       452.49
  101.48        2958.75           1345         106.00       461.21
  101.51        2959.00           1349         104.00       452.49
  101.54        2959.25           1352          98.00       426.33
  101.57        2959.50           1355         101.00       439.41
  101.59        2959.75           1359          97.00       421.98
  101.62        2960.00           1362          99.00       430.69
  101.65        2960.25           1365         110.00       478.65
  101.68        2960.50           1369         107.00       465.57
  101.71        2960.75           1372         113.00       491.72
  101.74        2961.00           1375         129.00       561.47
  101.76        2961.25           1379         133.00       578.91
  101.79        2961.50           1382         221.00       962.54
  101.82        2961.75           1385         822.00      3582.74
  101.85        2962.00           1389        3081.00     13434.69
  101.88        2962.25           1392        5304.00     23134.76
  101.90        2962.50           1395        7387.00     32228.56
  101.93        2962.75           1399       11292.00     49288.74
  101.96        2963.00           1402       14729.00     64317.35
  101.99        2963.25           1405       17531.00     76578.40
  102.02        2963.50           1409       21755.00     95077.24
  102.04        2963.75           1412       25050.00    109520.40
  102.07        2964.00           1415       27892.00    121987.00
  102.10        2964.25           1419       31938.00    139749.50
  102.13        2964.50           1422       34890.00    152720.00
  102.16        2964.75           1425       37925.00    166064.60
  102.19        2965.00           1429       41433.00    181501.10
  102.21        2965.25           1432       43982.00    192725.60
  102.24        2965.50           1435       46490.00    203776.40
  102.27        2965.75           1439       50115.00    219760.50
  102.30        2966.00           1442       52903.00    232063.30
  102.33        2966.25           1445       56090.00    246136.90
  102.36        2966.50           1449       59497.00    261193.90
  102.38        2966.75           1452       60635.00    266225.90
  102.41        2967.00           1455       61314.00    269229.00
  102.44        2967.25           1459       61158.00    268539.00
  102.47        2967.50           1462       61293.00    269136.10
  102.50        2967.75           1465       61099.00    268278.10
  102.53        2968.00           1469       60265.00    264589.70
  102.55        2968.25           1472       58939.00    258727.00
  102.58        2968.50           1475       56273.00    246945.30
  102.61        2968.75           1479       52826.00    231723.40
  102.64        2969.00           1482       49835.00    218525.30
  102.67        2969.25           1485       46988.00    205971.40
  102.70        2969.50           1489       43084.00    188770.50
  102.72        2969.75           1492       40069.00    175497.50
  102.75        2970.00           1495       37700.00    165075.00
  102.78        2970.25           1499       33276.00    145627.30
  102.81        2970.50           1502       30268.00    132415.90
  102.84        2970.75           1505       28250.00    123558.00
  102.86        2971.00           1509       24463.00    106946.60
  102.89        2971.25           1512       21453.00     93754.03
  102.92        2971.50           1515       18588.00     81205.77
  102.95        2971.75           1519       14633.00     63897.42
  102.98        2972.00           1522       11419.00     49843.85
  103.00        2972.25           1525        8821.00     38491.60
  103.03        2972.50           1529        5382.00     23475.21
  103.06        2972.75           1532        2938.00     12810.88
  103.09        2973.00           1535        1240.00      5405.32
  103.12        2973.25           1539         315.00      1372.33
  103.15        2973.50           1542         152.00       661.74
  103.18        2973.75           1546         143.00       622.50
  103.20        2974.00           1549         121.00       526.60
  103.23        2974.25           1552         129.00       561.47
  103.26        2974.50           1556         113.00       491.72
  103.29        2974.75           1559         105.00       456.85
  103.32        2975.00           1562         107.00       465.57
  103.34        2975.25           1566          97.00       421.98
  103.37        2975.50           1569         102.00       443.77
  103.40        2975.75           1572          95.00       413.26
  103.43        2976.00           1576          97.00       421.98
  103.46        2976.25           1579          95.00       413.26
  103.48        2976.50           1582          88.00       382.74
  103.51        2976.75           1586          98.00       426.33
  103.54        2977.00           1589          98.00       426.33
  103.57        2977.25           1592          93.00       404.54
  103.60        2977.50           1596          83.00       360.95
  103.63        2977.75           1599          90.00       391.46
  103.65        2978.00           1602          92.00       400.18
  103.68        2978.25           1606          89.00       387.10
  103.71        2978.50           1609          98.00       426.33
  103.74        2978.75           1612          92.00       400.18
  103.77        2979.00           1616          94.00       408.90
  103.79        2979.25           1619         102.00       443.77
  103.82        2979.50           1622          94.00       408.90
  103.85        2979.75           1626          95.00       413.26
  103.88        2980.00           1629          85.00       369.66
  103.90        2980.25           1632          95.00       413.26
  103.93        2980.50           1636         100.00       435.05
  103.96        2980.75           1639          93.00       404.54
  103.99        2981.00           1642          88.00       382.74
  104.02        2981.25           1646          84.00       365.30
  104.05        2981.50           1649          86.00       374.02
  104.08        2981.75           1653          86.00       374.02
  104.10        2982.00           1656          89.00       387.10
  104.13        2982.25           1659          93.00       404.54
  104.16        2982.50           1663          83.00       360.95
  104.19        2982.75           1666          89.00       387.10
  104.22        2983.00           1669          84.00       365.30
  104.24        2983.25           1673          99.00       430.69
  104.27        2983.50           1676          89.00       387.10
  104.30        2983.75           1679          87.00       378.38
  104.33        2984.00           1683          93.00       404.54
HS scan finished at 01:44:37
end
************************************************************
  HS Scan of (1) Internal mercury lamp
************************************************************
Integration time is 0.2294 seconds per sample
dh290518Delft 52.017-4.35 2.965129pr1000
************************************************************
Dead Time -------------------------  2.7E-08 
Number of Cycles Used -------------  4 
Starting Wavelength (Angstroms) ---  2950 
Final Wavelength (Angstoms) -------  2984 
Wavelength Increment (Angstroms) --  .25 
Filter Wheel #1 Position ---------- (1) Ground quartz diffuser (ND=2.32)
Filter Wheel #2 Position ---------- (1) Neutral Density 0.494



************************************************************
HS scan start time = 20:57:11
Dark Count =  .1 


Time (GMT)  Wavelength (Ang)  Step Number  Raw Counts  Counts/Second

 1257.63        2950.00           1229         104.00       452.93
 1257.73        2950.25           1232         108.00       470.36
 1257.76        2950.50           1236         101.00       439.85
 1257.79        2950.75           1239         109.00       474.72
 1257.81        2951.00           1242         115.00       500.88
 1257.84        2951.25           1246         108.00       470.36
 1257.87        2951.50           1249         104.00       452.93
 1257.90        2951.75           1252         107.00       466.00
 1257.93        2952.00           1256         115.00       500.88
 1257.95        2952.25           1259         107.00       466.00
 1257.98        2952.50           1262         109.00       474.72
 1258.01        2952.75           1266         116.00       505.24
 1258.04        2953.00           1269         109.00       474.72
 1258.07        2953.25           1272         107.00       466.00
 1258.09        2953.50           1276         105.00       457.29
 1258.12        2953.75           1279         102.00       444.21
 1258.15        2954.00           1282         103.00       448.57
 1258.18        2954.25           1286         114.00       496.52
 1258.21        2954.50           1289         102.00       444.21
 1258.24        2954.75           1292         111.00       483.44
 1258.26        2955.00           1296          99.00       431.13
 1258.29        2955.25           1299         103.00       448.57
 1258.32        2955.50           1302         104.00       452.93
 1258.35        2955.75           1306         102.00       444.21
 1258.38        2956.00           1309         104.00       452.93
 1258.40        2956.25           1312         110.00       479.08
 1258.43        2956.50           1316         118.00       513.96
 1258.46        2956.75           1319         105.00       457.29
 1258.49        2957.00           1322         108.00       470.36
 1258.52        2957.25           1326         106.00       461.64
 1258.55        2957.50           1329         104.00       452.93
 1258.57        2957.75           1332         112.00       487.80
 1258.60        2958.00           1336          99.00       431.13
 1258.63        2958.25           1339         102.00       444.21
 1258.66        2958.50           1342         107.00       466.00
 1258.69        2958.75           1345         109.00       474.72
 1258.71        2959.00           1349         108.00       470.36
 1258.74        2959.25           1352          97.00       422.41
 1258.77        2959.50           1355         112.00       487.80
 1258.80        2959.75           1359         104.00       452.93
 1258.83        2960.00           1362         108.00       470.36
 1258.86        2960.25           1365         103.00       448.57
 1258.88        2960.50           1369         109.00       474.72
 1258.91        2960.75           1372         119.00       518.32
 1258.94        2961.00           1375         123.00       535.75
 1258.97        2961.25           1379         142.00       618.58
 1259.00        2961.50           1382         213.00       928.10
 1259.02        2961.75           1385         651.00      2837.62
 1259.05        2962.00           1389        2514.00     10961.83
 1259.08        2962.25           1392        4679.00     20407.49
 1259.11        2962.50           1395        7197.00     31399.32
 1259.14        2962.75           1399       10890.00     47532.20
 1259.17        2963.00           1402       13245.00     57827.37
 1259.19        2963.25           1405       16145.00     70512.94
 1259.22        2963.50           1409       20276.00     88598.35
 1259.25        2963.75           1412       23343.00    102037.10
 1259.28        2964.00           1415       26057.00    113937.20
 1259.31        2964.25           1419       30039.00    131410.90
 1259.34        2964.50           1422       32857.00    143786.90
 1259.36        2964.75           1425       36017.00    157674.60
 1259.39        2965.00           1429       39609.00    173473.70
 1259.42        2965.25           1432       42569.00    186503.10
 1259.45        2965.50           1435       45037.00    197373.80
 1259.48        2965.75           1439       48278.00    211659.10
 1259.51        2966.00           1442       50415.00    221084.30
 1259.53        2966.25           1445       53158.00    233189.40
 1259.56        2966.50           1449       56878.00    249618.70
 1259.59        2966.75           1452       58304.00    255920.50
 1259.62        2967.00           1455       58662.00    257503.00
 1259.65        2967.25           1459       58959.00    258815.80
 1259.68        2967.50           1462       58812.00    258166.00
 1259.71        2967.75           1465       58694.00    257644.40
 1259.73        2968.00           1469       57734.00    253401.30
 1259.76        2968.25           1472       56138.00    246349.40
 1259.79        2968.50           1475       54069.00    237211.50
 1259.82        2968.75           1479       51162.00    224380.10
 1259.84        2969.00           1482       48490.00    212593.90
 1259.87        2969.25           1485       46050.00    201837.60
 1259.90        2969.50           1489       41985.00    183931.70
 1259.93        2969.75           1492       38907.00    170384.90
 1259.96        2970.00           1495       36244.00    158672.70
 1259.99        2970.25           1499       32384.00    141709.00
 1260.02        2970.50           1502       29647.00    129690.00
 1260.04        2970.75           1505       26724.00    116862.90
 1260.07        2971.00           1509       23132.00    101112.20
 1260.10        2971.25           1512       20530.00     89710.93
 1260.13        2971.50           1515       18351.00     80168.55
 1260.16        2971.75           1519       14849.00     64842.72
 1260.18        2972.00           1522       12057.00     52633.16
 1260.21        2972.25           1525        8955.00     39077.39
 1260.24        2972.50           1529        5323.00     23218.12
 1260.27        2972.75           1532        3003.00     13094.86
 1260.30        2973.00           1535        1432.00      6242.99
 1260.33        2973.25           1539         389.00      1695.37
 1260.36        2973.50           1542         190.00       827.83
 1260.38        2973.75           1546         146.00       636.02
 1260.41        2974.00           1549         137.00       596.78
 1260.44        2974.25           1552         130.00       566.27
 1260.47        2974.50           1556         104.00       452.93
 1260.50        2974.75           1559         108.00       470.36
 1260.52        2975.00           1562         103.00       448.57
 1260.55        2975.25           1566          98.00       426.77
 1260.58        2975.50           1569          94.00       409.33
 1260.61        2975.75           1572          98.00       426.77
 1260.64        2976.00           1576          88.00       383.18
 1260.66        2976.25           1579          96.00       418.05
 1260.69        2976.50           1582          93.00       404.97
 1260.72        2976.75           1586          99.00       431.13
 1260.75        2977.00           1589          97.00       422.41
 1260.78        2977.25           1592         101.00       439.85
 1260.80        2977.50           1596          94.00       409.33
 1260.83        2977.75           1599          99.00       431.13
 1260.86        2978.00           1602          96.00       418.05
 1260.89        2978.25           1606          94.00       409.33
 1260.92        2978.50           1609          93.00       404.97
 1260.95        2978.75           1612         100.00       435.49
 1260.97        2979.00           1616          99.00       431.13
 1261.00        2979.25           1619         108.00       470.36
 1261.03        2979.50           1622         100.00       435.49
 1261.06        2979.75           1626          96.00       418.05
 1261.09        2980.00           1629         104.00       452.93
 1261.11        2980.25           1632          98.00       426.77
 1261.14        2980.50           1636          91.00       396.26
 1261.17        2980.75           1639          90.00       391.90
 1261.20        2981.00           1642          94.00       409.33
 1261.23        2981.25           1646          99.00       431.13
 1261.26        2981.50           1649          89.00       387.54
 1261.28        2981.75           1653          99.00       431.13
 1261.31        2982.00           1656          94.00       409.33
 1261.34        2982.25           1659          89.00       387.54
 1261.37        2982.50           1663          89.00       387.54
 1261.40        2982.75           1666          95.00       413.69
 1261.43        2983.00           1669         100.00       435.49
 1261.45        2983.25           1673          92.00       400.61
 1261.48        2983.50           1676          87.00       378.82
 1261.51        2983.75           1679          89.00       387.54
 1261.54        2984.00           1683          90.00       391.90
HS scan finished at 21:01:50
end
