************************************************************
  HS Scan of (1) Internal mercury lamp
************************************************************
Integration time is 0.2294 seconds per sample
dh310517Delft 51.997-4.386 2.857833pr1000
************************************************************
Dead Time -------------------------  3E-08 
Number of Cycles Used -------------  4 
Starting Wavelength (Angstroms) ---  2950 
Final Wavelength (Angstoms) -------  2984 
Wavelength Increment (Angstroms) --  .25 
Filter Wheel #1 Position ---------- (1) Ground quartz diffuser (ND=2.32)
Filter Wheel #2 Position ---------- (1) Neutral Density 0.494



************************************************************
HS scan start time = 01:44:05
Dark Count =  .2 


Time (GMT)  Wavelength (Ang)  Step Number  Raw Counts  Counts/Second

  104.52        2950.00           1229         122.00       530.96
  104.62        2950.25           1232         125.00       544.04
  104.65        2950.50           1236         123.00       535.32
  104.68        2950.75           1239         115.00       500.44
  104.70        2951.00           1242         113.00       491.72
  104.73        2951.25           1246         120.00       522.24
  104.76        2951.50           1249         125.00       544.04
  104.79        2951.75           1252         117.00       509.16
  104.82        2952.00           1255         114.00       496.08
  104.84        2952.25           1259         111.00       483.01
  104.87        2952.50           1262         105.00       456.85
  104.90        2952.75           1265         121.00       526.60
  104.93        2953.00           1269         113.00       491.72
  104.96        2953.25           1272         123.00       535.32
  104.99        2953.50           1275         119.00       517.88
  105.02        2953.75           1279         111.00       483.01
  105.04        2954.00           1282         114.00       496.08
  105.07        2954.25           1285         116.00       504.80
  105.10        2954.50           1289         110.00       478.65
  105.13        2954.75           1292         130.00       565.83
  105.16        2955.00           1295         122.00       530.96
  105.19        2955.25           1299         113.00       491.72
  105.21        2955.50           1302         120.00       522.24
  105.24        2955.75           1305         116.00       504.80
  105.27        2956.00           1309         126.00       548.40
  105.30        2956.25           1312         118.00       513.52
  105.33        2956.50           1315         113.00       491.72
  105.35        2956.75           1319         119.00       517.88
  105.38        2957.00           1322         112.00       487.37
  105.41        2957.25           1325         114.00       496.08
  105.44        2957.50           1329         108.00       469.93
  105.46        2957.75           1332         115.00       500.44
  105.49        2958.00           1335         107.00       465.57
  105.52        2958.25           1339         113.00       491.72
  105.55        2958.50           1342         111.00       483.01
  105.58        2958.75           1345         102.00       443.77
  105.60        2959.00           1349         115.00       500.44
  105.63        2959.25           1352         116.00       504.80
  105.66        2959.50           1355         118.00       513.52
  105.69        2959.75           1359         107.00       465.57
  105.71        2960.00           1362         112.00       487.37
  105.74        2960.25           1365         124.00       539.68
  105.77        2960.50           1369         122.00       530.96
  105.80        2960.75           1372         129.00       561.47
  105.83        2961.00           1375         124.00       539.68
  105.86        2961.25           1379         144.00       626.86
  105.88        2961.50           1382         199.00       866.63
  105.91        2961.75           1385         834.00      3635.10
  105.94        2962.00           1389        3175.00     13845.33
  105.97        2962.25           1392        5648.00     24638.08
  105.99        2962.50           1395        8414.00     36717.84
  106.02        2962.75           1399       11964.00     52234.37
  106.05        2963.00           1402       14737.00     64364.80
  106.08        2963.25           1405       17825.00     77883.60
  106.11        2963.50           1409       22463.00     98208.71
  106.13        2963.75           1412       25894.00    113260.40
  106.16        2964.00           1415       28522.00    124798.50
  106.19        2964.25           1419       32274.00    141285.50
  106.22        2964.50           1422       35196.00    154136.60
  106.25        2964.75           1425       38326.00    167913.50
  106.27        2965.00           1429       42534.00    186453.30
  106.30        2965.25           1432       45486.00    199471.70
  106.33        2965.50           1435       48163.00    211286.20
  106.36        2965.75           1439       51948.00    228005.00
  106.38        2966.00           1442       55552.00    243940.00
  106.41        2966.25           1445       58639.00    257601.20
  106.44        2966.50           1449       61616.00    270786.30
  106.47        2966.75           1452       63490.00    279091.70
  106.50        2967.00           1455       64218.00    282319.20
  106.53        2967.25           1459       64054.00    281592.00
  106.55        2967.50           1462       64068.00    281654.10
  106.58        2967.75           1465       63777.00    280364.00
  106.61        2968.00           1469       61955.00    272288.40
  106.64        2968.25           1472       60239.00    264686.30
  106.67        2968.50           1475       58619.00    257512.70
  106.69        2968.75           1479       54610.00    239773.50
  106.72        2969.00           1482       51701.00    226913.50
  106.75        2969.25           1485       48394.00    212306.10
  106.78        2969.50           1489       44499.00    195117.90
  106.80        2969.75           1492       41850.00    183438.30
  106.83        2970.00           1495       38775.00    169890.70
  106.86        2970.25           1499       35225.00    154264.20
  106.89        2970.50           1502       32105.00    140542.50
  106.92        2970.75           1505       28665.00    125426.60
  106.95        2971.00           1509       25160.00    110039.20
  106.98        2971.25           1512       22391.00     97893.01
  107.01        2971.50           1515       19758.00     86351.57
  107.04        2971.75           1519       15919.00     69538.12
  107.07        2972.00           1522       12731.00     55588.71
  107.09        2972.25           1525       10026.00     43761.86
  107.12        2972.50           1529        5855.00     25541.80
  107.15        2972.75           1532        3176.00     13849.69
  107.18        2973.00           1536        1024.00      4463.54
  107.20        2973.25           1539         386.00      1681.86
  107.23        2973.50           1542         193.00       840.47
  107.26        2973.75           1546         157.00       683.54
  107.29        2974.00           1549         146.00       635.58
  107.31        2974.25           1552         130.00       565.83
  107.34        2974.50           1556         122.00       530.96
  107.37        2974.75           1559         111.00       483.01
  107.40        2975.00           1562         116.00       504.80
  107.43        2975.25           1566         111.00       483.01
  107.45        2975.50           1569         110.00       478.65
  107.48        2975.75           1572         107.00       465.57
  107.51        2976.00           1576         101.00       439.41
  107.54        2976.25           1579         112.00       487.37
  107.56        2976.50           1582         107.00       465.57
  107.59        2976.75           1586         108.00       469.93
  107.62        2977.00           1589         113.00       491.72
  107.65        2977.25           1592         103.00       448.13
  107.67        2977.50           1596         116.00       504.80
  107.70        2977.75           1599         106.00       461.21
  107.73        2978.00           1602          98.00       426.34
  107.76        2978.25           1606         100.00       435.05
  107.78        2978.50           1609         101.00       439.41
  107.81        2978.75           1612         114.00       496.08
  107.84        2979.00           1616         111.00       483.01
  107.87        2979.25           1619         101.00       439.41
  107.90        2979.50           1623         104.00       452.49
  107.92        2979.75           1626         107.00       465.57
  107.96        2980.00           1629          91.00       395.82
  107.99        2980.25           1633         107.00       465.57
  108.01        2980.50           1636         108.00       469.93
  108.04        2980.75           1639         102.00       443.77
  108.07        2981.00           1643          99.00       430.69
  108.10        2981.25           1646         109.00       474.29
  108.12        2981.50           1649         102.00       443.77
  108.15        2981.75           1653          98.00       426.34
  108.18        2982.00           1656         101.00       439.41
  108.21        2982.25           1659          95.00       413.26
  108.24        2982.50           1663         104.00       452.49
  108.26        2982.75           1666          94.00       408.90
  108.29        2983.00           1669          94.00       408.90
  108.32        2983.25           1673         100.00       435.05
  108.35        2983.50           1676         109.00       474.29
  108.37        2983.75           1679         100.00       435.05
  108.40        2984.00           1683         103.00       448.13
HS scan finished at 01:48:42
end
************************************************************
  HS Scan of (1) Internal mercury lamp
************************************************************
Integration time is 0.2294 seconds per sample
dh310517Delft 51.997-4.386 2.857833pr1000
************************************************************
Dead Time -------------------------  3E-08 
Number of Cycles Used -------------  4 
Starting Wavelength (Angstroms) ---  2950 
Final Wavelength (Angstoms) -------  2984 
Wavelength Increment (Angstroms) --  .25 
Filter Wheel #1 Position ---------- (1) Ground quartz diffuser (ND=2.32)
Filter Wheel #2 Position ---------- (1) Neutral Density 0.494



************************************************************
HS scan start time = 02:10:23
Dark Count =  .1 


Time (GMT)  Wavelength (Ang)  Step Number  Raw Counts  Counts/Second

  130.84        2950.00           1229         128.00       557.55
  130.94        2950.25           1232         124.00       540.11
  130.97        2950.50           1236         126.00       548.83
  130.99        2950.75           1239         121.00       527.04
  131.02        2951.00           1242         126.00       548.83
  131.05        2951.25           1246         115.00       500.88
  131.08        2951.50           1249         130.00       566.27
  131.10        2951.75           1252         125.00       544.47
  131.13        2952.00           1255         116.00       505.24
  131.16        2952.25           1259         127.00       553.19
  131.19        2952.50           1262         120.00       522.68
  131.22        2952.75           1265         125.00       544.47
  131.25        2953.00           1269         119.00       518.32
  131.27        2953.25           1272         130.00       566.27
  131.30        2953.50           1275         124.00       540.11
  131.33        2953.75           1279         113.00       492.16
  131.36        2954.00           1282         119.00       518.32
  131.39        2954.25           1285         124.00       540.11
  131.42        2954.50           1289         114.00       496.52
  131.45        2954.75           1292         121.00       527.04
  131.48        2955.00           1295         129.00       561.91
  131.51        2955.25           1299         126.00       548.83
  131.54        2955.50           1302         122.00       531.39
  131.56        2955.75           1305         120.00       522.68
  131.59        2956.00           1309         119.00       518.32
  131.62        2956.25           1312         107.00       466.00
  131.65        2956.50           1315         115.00       500.88
  131.67        2956.75           1319         121.00       527.04
  131.70        2957.00           1322         116.00       505.24
  131.73        2957.25           1325         121.00       527.04
  131.76        2957.50           1329         124.00       540.11
  131.78        2957.75           1332         121.00       527.04
  131.81        2958.00           1335         112.00       487.80
  131.84        2958.25           1339         115.00       500.88
  131.87        2958.50           1342         114.00       496.52
  131.89        2958.75           1345         116.00       505.24
  131.92        2959.00           1349         131.00       570.63
  131.95        2959.25           1352         119.00       518.32
  131.98        2959.50           1355         122.00       531.39
  132.00        2959.75           1359         124.00       540.11
  132.03        2960.00           1362         124.00       540.11
  132.06        2960.25           1365         116.00       505.24
  132.09        2960.50           1369         124.00       540.11
  132.12        2960.75           1372         134.00       583.71
  132.14        2961.00           1375         139.00       605.50
  132.17        2961.25           1379         153.00       666.53
  132.20        2961.50           1382         248.00      1080.68
  132.23        2961.75           1385         864.00      3766.34
  132.25        2962.00           1389        2378.00     10368.96
  132.28        2962.25           1392        4312.00     18807.03
  132.31        2962.50           1395        6647.00     29000.37
  132.34        2962.75           1399       10518.00     45912.81
  132.37        2963.00           1402       13007.00     56796.35
  132.40        2963.25           1405       15291.00     66789.75
  132.43        2963.50           1409       18896.00     82575.28
  132.45        2963.75           1412       21823.00     95403.00
  132.48        2964.00           1415       24488.00    107091.10
  132.51        2964.25           1419       28166.00    123235.50
  132.54        2964.50           1422       30612.00    133980.80
  132.57        2964.75           1425       32902.00    144047.00
  132.59        2965.00           1429       36409.00    159474.70
  132.62        2965.25           1432       39187.00    171705.70
  132.65        2965.50           1435       41815.00    183284.50
  132.68        2965.75           1439       45458.00    199348.60
  132.70        2966.00           1442       48466.00    212624.40
  132.73        2966.25           1445       50862.00    223206.70
  132.76        2966.50           1449       53238.00    233707.40
  132.79        2966.75           1452       54368.00    238703.70
  132.82        2967.00           1455       54923.00    241158.20
  132.84        2967.25           1459       55068.00    241799.50
  132.87        2967.50           1462       55159.00    242202.00
  132.90        2967.75           1465       54929.00    241184.80
  132.93        2968.00           1469       53917.00    236709.40
  132.96        2968.25           1472       52009.00    228275.00
  132.99        2968.50           1475       49615.00    217698.30
  133.02        2968.75           1479       46665.00    204674.40
  133.05        2969.00           1482       44172.00    193676.10
  133.08        2969.25           1485       41443.00    181644.90
  133.10        2969.50           1489       38110.00    166962.80
  133.13        2969.75           1492       35840.00    156970.70
  133.16        2970.00           1495       33202.00    145366.20
  133.19        2970.25           1499       30419.00    133132.70
  133.21        2970.50           1502       27814.00    121689.70
  133.24        2970.75           1505       25245.00    110412.60
  133.27        2971.00           1509       21702.00     94872.52
  133.30        2971.25           1512       19245.00     84104.27
  133.33        2971.50           1515       16493.00     72051.40
  133.35        2971.75           1519       13287.00     58021.14
  133.38        2972.00           1522       10952.00     47810.03
  133.41        2972.25           1525        8641.00     37710.03
  133.44        2972.50           1529        5108.00     22281.24
  133.47        2972.75           1532        2786.00     12148.72
  133.49        2973.00           1536        1085.00      4729.97
  133.52        2973.25           1539         453.00      1974.40
  133.55        2973.50           1542         215.00       936.82
  133.58        2973.75           1546         155.00       675.25
  133.60        2974.00           1549         139.00       605.50
  133.63        2974.25           1552         136.00       592.43
  133.66        2974.50           1556         134.00       583.71
  133.69        2974.75           1559         115.00       500.88
  133.71        2975.00           1562         108.00       470.36
  133.74        2975.25           1566         124.00       540.11
  133.77        2975.50           1569         114.00       496.52
  133.80        2975.75           1572         100.00       435.49
  133.83        2976.00           1576         106.00       461.65
  133.85        2976.25           1579         105.00       457.29
  133.88        2976.50           1582          99.00       431.13
  133.91        2976.75           1586         109.00       474.72
  133.94        2977.00           1589         104.00       452.93
  133.97        2977.25           1592         110.00       479.08
  134.00        2977.50           1596         113.00       492.16
  134.03        2977.75           1599         111.00       483.44
  134.06        2978.00           1602         105.00       457.29
  134.08        2978.25           1606         105.00       457.29
  134.11        2978.50           1609         114.00       496.52
  134.14        2978.75           1612         108.00       470.36
  134.17        2979.00           1616         102.00       444.21
  134.20        2979.25           1619         109.00       474.72
  134.23        2979.50           1623         102.00       444.21
  134.26        2979.75           1626         101.00       439.85
  134.28        2980.00           1629         105.00       457.29
  134.31        2980.25           1633         110.00       479.08
  134.35        2980.50           1636          97.00       422.41
  134.38        2980.75           1639          98.00       426.77
  134.40        2981.00           1643         100.00       435.49
  134.43        2981.25           1646         104.00       452.93
  134.46        2981.50           1649         106.00       461.65
  134.49        2981.75           1653         100.00       435.49
  134.51        2982.00           1656         101.00       439.85
  134.54        2982.25           1659         102.00       444.21
  134.58        2982.50           1663         103.00       448.57
  134.61        2982.75           1666         101.00       439.85
  134.63        2983.00           1669         100.00       435.49
  134.66        2983.25           1673         103.00       448.57
  134.69        2983.50           1676          98.00       426.77
  134.72        2983.75           1679         100.00       435.49
  134.75        2984.00           1683          98.00       426.77
HS scan finished at 02:15:03
end
************************************************************
  HS Scan of (1) Internal mercury lamp
************************************************************
Integration time is 0.2294 seconds per sample
dh310517Delft 51.997-4.386 2.911481pr1000
************************************************************
Dead Time -------------------------  3E-08 
Number of Cycles Used -------------  4 
Starting Wavelength (Angstroms) ---  2950 
Final Wavelength (Angstoms) -------  2984 
Wavelength Increment (Angstroms) --  .25 
Filter Wheel #1 Position ---------- (1) Ground quartz diffuser (ND=2.32)
Filter Wheel #2 Position ---------- (1) Neutral Density 0.494



************************************************************
HS scan start time = 20:51:00
Dark Count =  0 


Time (GMT)  Wavelength (Ang)  Step Number  Raw Counts  Counts/Second

 1251.46        2950.00           1229         122.00       531.83
 1251.55        2950.25           1232         123.00       536.19
 1251.58        2950.50           1236         113.00       492.60
 1251.61        2950.75           1239         127.00       553.63
 1251.64        2951.00           1242         125.00       544.91
 1251.66        2951.25           1246         118.00       514.39
 1251.69        2951.50           1249         117.00       510.03
 1251.72        2951.75           1252         112.00       488.24
 1251.75        2952.00           1255         117.00       510.03
 1251.78        2952.25           1259         119.00       518.75
 1251.80        2952.50           1262         121.00       527.47
 1251.83        2952.75           1265         113.00       492.60
 1251.86        2953.00           1269         112.00       488.24
 1251.89        2953.25           1272         111.00       483.88
 1251.91        2953.50           1275         115.00       501.32
 1251.94        2953.75           1279         130.00       566.71
 1251.97        2954.00           1282         116.00       505.67
 1252.00        2954.25           1285         111.00       483.88
 1252.02        2954.50           1289         120.00       523.11
 1252.05        2954.75           1292         109.00       475.16
 1252.08        2955.00           1295         109.00       475.16
 1252.11        2955.25           1299         122.00       531.83
 1252.14        2955.50           1302         115.00       501.32
 1252.17        2955.75           1305         116.00       505.67
 1252.20        2956.00           1309         121.00       527.47
 1252.23        2956.25           1312         111.00       483.88
 1252.25        2956.50           1315         113.00       492.60
 1252.28        2956.75           1319         123.00       536.19
 1252.31        2957.00           1322         125.00       544.91
 1252.34        2957.25           1325         116.00       505.67
 1252.36        2957.50           1329         118.00       514.39
 1252.39        2957.75           1332         124.00       540.55
 1252.42        2958.00           1335         121.00       527.47
 1252.45        2958.25           1339         114.00       496.96
 1252.48        2958.50           1342         117.00       510.03
 1252.50        2958.75           1345         114.00       496.96
 1252.53        2959.00           1349         101.00       440.28
 1252.56        2959.25           1352         113.00       492.60
 1252.59        2959.50           1355         105.00       457.72
 1252.61        2959.75           1359         103.00       449.00
 1252.64        2960.00           1362         119.00       518.75
 1252.67        2960.25           1365         113.00       492.60
 1252.70        2960.50           1369         116.00       505.67
 1252.72        2960.75           1372         126.00       549.27
 1252.75        2961.00           1375         136.00       592.86
 1252.78        2961.25           1379         143.00       623.38
 1252.81        2961.50           1382         192.00       836.99
 1252.84        2961.75           1385         840.00      3662.13
 1252.87        2962.00           1389        2719.00     11856.88
 1252.90        2962.25           1392        4713.00     20557.57
 1252.92        2962.50           1395        7206.00     31442.02
 1252.95        2962.75           1399       11200.00     48894.69
 1252.98        2963.00           1402       14516.00     63398.59
 1253.01        2963.25           1405       17646.00     77100.53
 1253.03        2963.50           1409       21357.00     93360.51
 1253.06        2963.75           1412       24276.00    106161.50
 1253.09        2964.00           1415       27629.00    120877.80
 1253.12        2964.25           1419       31671.00    138635.60
 1253.15        2964.50           1422       34384.00    150565.20
 1253.17        2964.75           1425       38077.00    166817.90
 1253.21        2965.00           1429       41942.00    183844.70
 1253.24        2965.25           1432       45034.00    197478.60
 1253.26        2965.50           1435       48078.00    210911.80
 1253.29        2965.75           1439       51487.00    225968.70
 1253.32        2966.00           1442       54692.00    240137.00
 1253.35        2966.25           1445       57363.00    251954.00
 1253.37        2966.50           1449       60286.00    264895.40
 1253.40        2966.75           1452       61720.00    271248.00
 1253.43        2967.00           1455       62625.00    275258.50
 1253.46        2967.25           1459       62865.00    276322.10
 1253.49        2967.50           1462       62785.00    275967.60
 1253.52        2967.75           1465       62765.00    275878.90
 1253.55        2968.00           1469       61564.00    270556.80
 1253.57        2968.25           1472       59761.00    262570.20
 1253.60        2968.50           1475       57469.00    252423.00
 1253.63        2968.75           1479       54034.00    237227.20
 1253.66        2969.00           1482       51480.00    225937.80
 1253.68        2969.25           1485       48682.00    213578.60
 1253.72        2969.50           1489       45001.00    197333.00
 1253.75        2969.75           1492       42494.00    186277.90
 1253.77        2970.00           1495       38763.00    169838.70
 1253.80        2970.25           1499       34968.00    153134.30
 1253.83        2970.50           1502       31532.00    138024.60
 1253.86        2970.75           1505       28720.00    125669.10
 1253.88        2971.00           1509       25109.00    109816.30
 1253.91        2971.25           1512       21963.00     96017.24
 1253.94        2971.50           1515       18865.00     82439.91
 1253.97        2971.75           1519       15566.00     67993.83
 1254.00        2972.00           1522       13322.00     58174.68
 1254.02        2972.25           1525       10602.00     46280.43
 1254.05        2972.50           1529        6566.00     28647.10
 1254.08        2972.75           1532        3529.00     15390.71
 1254.11        2973.00           1536         974.00      4246.40
 1254.14        2973.25           1539         342.00      1490.91
 1254.17        2973.50           1542         200.00       871.86
 1254.19        2973.75           1546         156.00       680.05
 1254.22        2974.00           1549         160.00       697.49
 1254.25        2974.25           1552         124.00       540.55
 1254.28        2974.50           1556         121.00       527.47
 1254.31        2974.75           1559         128.00       557.99
 1254.33        2975.00           1562         119.00       518.75
 1254.36        2975.25           1566         112.00       488.24
 1254.39        2975.50           1569         112.00       488.24
 1254.42        2975.75           1572         113.00       492.60
 1254.44        2976.00           1576         104.00       453.36
 1254.47        2976.25           1579         100.00       435.93
 1254.50        2976.50           1582         110.00       479.52
 1254.53        2976.75           1586         107.00       466.44
 1254.56        2977.00           1589         107.00       466.44
 1254.58        2977.25           1592         106.00       462.08
 1254.61        2977.50           1596         103.00       449.00
 1254.64        2977.75           1599         105.00       457.72
 1254.67        2978.00           1602         110.00       479.52
 1254.69        2978.25           1606         101.00       440.28
 1254.72        2978.50           1609          99.00       431.57
 1254.75        2978.75           1612          99.00       431.57
 1254.78        2979.00           1616          98.00       427.21
 1254.80        2979.25           1619         103.00       449.00
 1254.83        2979.50           1623         103.00       449.00
 1254.86        2979.75           1626         109.00       475.16
 1254.89        2980.00           1629         109.00       475.16
 1254.91        2980.25           1633         104.00       453.36
 1254.94        2980.50           1636         109.00       475.16
 1254.97        2980.75           1639         103.00       449.00
 1255.00        2981.00           1643         104.00       453.36
 1255.03        2981.25           1646          93.00       405.41
 1255.05        2981.50           1649         106.00       462.08
 1255.08        2981.75           1653         106.00       462.08
 1255.11        2982.00           1656         102.00       444.64
 1255.14        2982.25           1659         104.00       453.36
 1255.16        2982.50           1663          97.00       422.85
 1255.19        2982.75           1666         103.00       449.00
 1255.22        2983.00           1669          97.00       422.85
 1255.25        2983.25           1673          99.00       431.57
 1255.27        2983.50           1676          99.00       431.57
 1255.30        2983.75           1679         106.00       462.08
 1255.33        2984.00           1683         103.00       449.00
HS scan finished at 20:55:38
end
