************************************************************
  HS Scan of (1) Internal mercury lamp
************************************************************
Integration time is 0.2294 seconds per sample
dh300517Delft 51.997-4.386 3.018777pr1000
************************************************************
Dead Time -------------------------  3E-08 
Number of Cycles Used -------------  4 
Starting Wavelength (Angstroms) ---  2950 
Final Wavelength (Angstoms) -------  2984 
Wavelength Increment (Angstroms) --  .25 
Filter Wheel #1 Position ---------- (1) Ground quartz diffuser (ND=2.32)
Filter Wheel #2 Position ---------- (1) Neutral Density 0.494



************************************************************
HS scan start time = 02:34:18
Dark Count =  .2 


Time (GMT)  Wavelength (Ang)  Step Number  Raw Counts  Counts/Second

  154.75        2950.00           1229         115.00       500.44
  154.85        2950.25           1232         109.00       474.29
  154.89        2950.50           1236         112.00       487.37
  154.92        2950.75           1239         111.00       483.01
  154.95        2951.00           1242         116.00       504.80
  154.98        2951.25           1246         107.00       465.57
  155.01        2951.50           1249         111.00       483.01
  155.04        2951.75           1252         123.00       535.32
  155.07        2952.00           1255         107.00       465.57
  155.10        2952.25           1259         111.00       483.01
  155.13        2952.50           1262         111.00       483.01
  155.15        2952.75           1265         113.00       491.72
  155.18        2953.00           1269         119.00       517.88
  155.21        2953.25           1272         117.00       509.16
  155.24        2953.50           1275         112.00       487.37
  155.27        2953.75           1279          94.00       408.90
  155.30        2954.00           1282         113.00       491.72
  155.33        2954.25           1285         111.00       483.01
  155.35        2954.50           1289         106.00       461.21
  155.38        2954.75           1292         118.00       513.52
  155.42        2955.00           1295         115.00       500.44
  155.45        2955.25           1299         110.00       478.65
  155.48        2955.50           1302         110.00       478.65
  155.51        2955.75           1305         115.00       500.44
  155.53        2956.00           1309         117.00       509.16
  155.57        2956.25           1312         108.00       469.93
  155.60        2956.50           1315         110.00       478.65
  155.63        2956.75           1319         107.00       465.57
  155.66        2957.00           1322         117.00       509.16
  155.68        2957.25           1325          97.00       421.98
  155.72        2957.50           1329         116.00       504.80
  155.75        2957.75           1332         112.00       487.37
  155.78        2958.00           1335         108.00       469.93
  155.81        2958.25           1339         106.00       461.21
  155.84        2958.50           1342         108.00       469.93
  155.87        2958.75           1345         100.00       435.05
  155.89        2959.00           1349         108.00       469.93
  155.92        2959.25           1352         113.00       491.72
  155.96        2959.50           1355         115.00       500.44
  155.99        2959.75           1359         107.00       465.57
  156.02        2960.00           1362         107.00       465.57
  156.05        2960.25           1365         106.00       461.21
  156.08        2960.50           1369         120.00       522.24
  156.11        2960.75           1372         120.00       522.24
  156.13        2961.00           1375         138.00       600.71
  156.16        2961.25           1379         148.00       644.30
  156.19        2961.50           1382         251.00      1093.32
  156.22        2961.75           1385        1173.00      5113.25
  156.25        2962.00           1389        3437.00     14988.43
  156.28        2962.25           1392        5645.00     24624.99
  156.31        2962.50           1395        8299.00     36215.44
  156.33        2962.75           1399       12478.00     54482.18
  156.37        2963.00           1402       16166.00     70619.38
  156.40        2963.25           1405       19471.00     85094.03
  156.43        2963.50           1409       23574.00    103081.10
  156.45        2963.75           1412       26491.00    115880.80
  156.48        2964.00           1415       29816.00    130482.70
  156.52        2964.25           1419       34208.00    149790.20
  156.55        2964.50           1422       37823.00    165698.70
  156.57        2964.75           1425       40540.00    177665.40
  156.60        2965.00           1429       44131.00    193494.90
  156.63        2965.25           1432       47706.00    209268.70
  156.66        2965.50           1435       51124.00    224363.90
  156.69        2965.75           1439       55026.00    241613.40
  156.72        2966.00           1442       58312.00    256153.60
  156.75        2966.25           1445       62061.00    272758.10
  156.78        2966.50           1449       64904.00    285361.00
  156.81        2966.75           1452       66596.00    292866.10
  156.84        2967.00           1455       66793.00    293740.20
  156.86        2967.25           1459       66699.00    293323.10
  156.89        2967.50           1462       66929.00    294343.60
  156.92        2967.75           1465       66321.00    291646.10
  156.95        2968.00           1469       65214.00    286735.80
  156.98        2968.25           1472       63284.00    278178.50
  157.01        2968.50           1475       60054.00    263867.00
  157.04        2968.75           1479       55926.00    245594.50
  157.07        2969.00           1482       53125.00    233207.40
  157.10        2969.25           1485       50079.00    219747.30
  157.13        2969.50           1489       46249.00    202838.30
  157.16        2969.75           1492       43629.00    191281.10
  157.19        2970.00           1495       40107.00    175757.80
  157.22        2970.25           1499       36024.00    157780.00
  157.25        2970.50           1502       33397.00    146223.30
  157.28        2970.75           1505       30197.00    132156.80
  157.31        2971.00           1509       26307.00    115073.10
  157.34        2971.25           1512       22996.00    100546.10
  157.37        2971.50           1515       19691.00     86057.99
  157.40        2971.75           1519       15924.00     69560.01
  157.43        2972.00           1522       12667.00     55308.78
  157.46        2972.25           1525        9953.00     43442.81
  157.49        2972.50           1529        5861.00     25567.99
  157.52        2972.75           1532        3173.00     13836.61
  157.55        2973.00           1536         939.00      4092.92
  157.58        2973.25           1539         400.00      1742.90
  157.61        2973.50           1542         210.00       914.58
  157.64        2973.75           1546         147.00       639.94
  157.67        2974.00           1549         137.00       596.35
  157.70        2974.25           1552         134.00       583.27
  157.73        2974.50           1556         121.00       526.60
  157.77        2974.75           1559         119.00       517.88
  157.80        2975.00           1562         108.00       469.93
  157.83        2975.25           1566         105.00       456.85
  157.86        2975.50           1569          98.00       426.34
  157.89        2975.75           1572         102.00       443.77
  157.92        2976.00           1576         111.00       483.01
  157.95        2976.25           1579         103.00       448.13
  157.98        2976.50           1582         103.00       448.13
  158.01        2976.75           1586          95.00       413.26
  158.03        2977.00           1589         104.00       452.49
  158.06        2977.25           1592         105.00       456.85
  158.09        2977.50           1596         108.00       469.93
  158.12        2977.75           1599         100.00       435.05
  158.16        2978.00           1602          95.00       413.26
  158.19        2978.25           1606         103.00       448.13
  158.21        2978.50           1609         103.00       448.13
  158.24        2978.75           1612         103.00       448.13
  158.27        2979.00           1616         104.00       452.49
  158.30        2979.25           1619          96.00       417.62
  158.34        2979.50           1623         101.00       439.41
  158.36        2979.75           1626         101.00       439.41
  158.39        2980.00           1629          95.00       413.26
  158.42        2980.25           1633         108.00       469.93
  158.45        2980.50           1636          94.00       408.90
  158.49        2980.75           1639         101.00       439.41
  158.52        2981.00           1643          98.00       426.34
  158.55        2981.25           1646         103.00       448.13
  158.58        2981.50           1649          91.00       395.82
  158.61        2981.75           1653          95.00       413.26
  158.64        2982.00           1656         109.00       474.29
  158.67        2982.25           1659          95.00       413.26
  158.70        2982.50           1663         103.00       448.13
  158.73        2982.75           1666          99.00       430.69
  158.76        2983.00           1669         107.00       465.57
  158.79        2983.25           1673          93.00       404.54
  158.82        2983.50           1676          96.00       417.62
  158.84        2983.75           1679          97.00       421.98
  158.87        2984.00           1683          91.00       395.82
HS scan finished at 02:39:11
end
************************************************************
  HS Scan of (1) Internal mercury lamp
************************************************************
Integration time is 0.2294 seconds per sample
dh300517Delft 51.997-4.386 3.018777pr1000
************************************************************
Dead Time -------------------------  3E-08 
Number of Cycles Used -------------  4 
Starting Wavelength (Angstroms) ---  2950 
Final Wavelength (Angstoms) -------  2984 
Wavelength Increment (Angstroms) --  .25 
Filter Wheel #1 Position ---------- (1) Ground quartz diffuser (ND=2.32)
Filter Wheel #2 Position ---------- (1) Neutral Density 0.494



************************************************************
HS scan start time = 03:01:10
Dark Count =  .1 


Time (GMT)  Wavelength (Ang)  Step Number  Raw Counts  Counts/Second

  181.62        2950.00           1229         133.00       579.35
  181.72        2950.25           1232         113.00       492.16
  181.75        2950.50           1236         128.00       557.55
  181.77        2950.75           1239         118.00       513.96
  181.80        2951.00           1242         126.00       548.83
  181.83        2951.25           1246         116.00       505.24
  181.86        2951.50           1249         123.00       535.75
  181.89        2951.75           1252         126.00       548.83
  181.92        2952.00           1255         122.00       531.39
  181.95        2952.25           1259         117.00       509.60
  181.98        2952.50           1262         116.00       505.24
  182.01        2952.75           1265         116.00       505.24
  182.04        2953.00           1269         125.00       544.47
  182.07        2953.25           1272         119.00       518.32
  182.10        2953.50           1275         107.00       466.00
  182.13        2953.75           1279         117.00       509.60
  182.15        2954.00           1282         118.00       513.96
  182.19        2954.25           1285         124.00       540.11
  182.22        2954.50           1289         120.00       522.68
  182.25        2954.75           1292         122.00       531.39
  182.27        2955.00           1295         119.00       518.32
  182.30        2955.25           1299         122.00       531.39
  182.33        2955.50           1302         123.00       535.75
  182.36        2955.75           1305         130.00       566.27
  182.39        2956.00           1309         111.00       483.44
  182.42        2956.25           1312         132.00       574.99
  182.45        2956.50           1315         116.00       505.24
  182.48        2956.75           1319         111.00       483.44
  182.51        2957.00           1322         124.00       540.11
  182.54        2957.25           1325         112.00       487.80
  182.57        2957.50           1329         120.00       522.68
  182.59        2957.75           1332         114.00       496.52
  182.63        2958.00           1335         110.00       479.08
  182.66        2958.25           1339         115.00       500.88
  182.69        2958.50           1342         122.00       531.39
  182.71        2958.75           1345         116.00       505.24
  182.74        2959.00           1349         111.00       483.44
  182.77        2959.25           1352         115.00       500.88
  182.80        2959.50           1355         127.00       553.19
  182.83        2959.75           1359         109.00       474.72
  182.86        2960.00           1362         114.00       496.52
  182.88        2960.25           1365         125.00       544.47
  182.92        2960.50           1369         128.00       557.55
  182.95        2960.75           1372         128.00       557.55
  182.98        2961.00           1375         136.00       592.43
  183.00        2961.25           1379         157.00       683.97
  183.03        2961.50           1382         212.00       923.74
  183.06        2961.75           1385         782.00      3408.81
  183.10        2962.00           1389        2765.00     12057.11
  183.13        2962.25           1392        5320.00     23206.65
  183.16        2962.50           1395        7757.00     33848.22
  183.19        2962.75           1399       11059.00     48277.81
  183.21        2963.00           1402       13811.00     60313.48
  183.24        2963.25           1405       16551.00     72305.32
  183.27        2963.50           1409       20902.00     91365.61
  183.30        2963.75           1412       23832.00    104213.30
  183.34        2964.00           1415       26421.00    115574.00
  183.37        2964.25           1419       29583.00    129459.50
  183.40        2964.50           1422       32873.00    143919.50
  183.43        2964.75           1425       35751.00    156579.00
  183.46        2965.00           1429       39320.00    172291.50
  183.49        2965.25           1432       42555.00    186546.30
  183.52        2965.50           1435       45740.00    200592.80
  183.54        2965.75           1439       49335.00    216461.70
  183.57        2966.00           1442       52037.00    228398.80
  183.60        2966.25           1445       55050.00    241719.90
  183.63        2966.50           1449       57594.00    252975.90
  183.66        2966.75           1452       58772.00    258190.50
  183.69        2967.00           1455       59150.00    259864.20
  183.72        2967.25           1459       59071.00    259514.40
  183.74        2967.50           1462       59032.00    259341.70
  183.78        2967.75           1465       58603.00    257442.30
  183.81        2968.00           1469       57383.00    252042.00
  183.84        2968.25           1472       55741.00    244776.50
  183.87        2968.50           1475       53718.00    235829.50
  183.90        2968.75           1479       49977.00    219297.20
  183.93        2969.00           1482       47542.00    208545.20
  183.96        2969.25           1485       44770.00    196313.60
  183.99        2969.50           1489       41429.00    181583.30
  184.02        2969.75           1492       39310.00    172247.40
  184.05        2970.00           1495       36386.00    159373.50
  184.08        2970.25           1499       33075.00    144807.70
  184.11        2970.50           1502       29840.00    130588.60
  184.14        2970.75           1505       26675.00    116689.00
  184.16        2971.00           1509       22750.00     99467.69
  184.19        2971.25           1512       20166.00     88139.91
  184.22        2971.50           1515       17605.00     76920.55
  184.25        2971.75           1519       14246.00     62216.72
  184.28        2972.00           1522       11359.00     49589.42
  184.31        2972.25           1525        8585.00     37465.37
  184.35        2972.50           1529        5824.00     25406.89
  184.38        2972.75           1532        3345.00     14587.46
  184.41        2973.00           1536        1041.00      4538.11
  184.44        2973.25           1539         368.00      1603.83
  184.47        2973.50           1542         174.00       758.08
  184.50        2973.75           1546         155.00       675.25
  184.52        2974.00           1549         136.00       592.43
  184.56        2974.25           1552         138.00       601.14
  184.59        2974.50           1556         130.00       566.27
  184.62        2974.75           1559         120.00       522.68
  184.64        2975.00           1562         111.00       483.44
  184.67        2975.25           1566         114.00       496.52
  184.70        2975.50           1569         102.00       444.21
  184.73        2975.75           1572         117.00       509.60
  184.76        2976.00           1576         116.00       505.24
  184.79        2976.25           1579         105.00       457.29
  184.82        2976.50           1582         102.00       444.21
  184.85        2976.75           1586         113.00       492.16
  184.88        2977.00           1589         111.00       483.44
  184.91        2977.25           1592         105.00       457.29
  184.94        2977.50           1596         115.00       500.88
  184.96        2977.75           1599         101.00       439.85
  184.99        2978.00           1602         110.00       479.08
  185.02        2978.25           1606         111.00       483.44
  185.05        2978.50           1609         101.00       439.85
  185.08        2978.75           1612         107.00       466.00
  185.11        2979.00           1616         102.00       444.21
  185.14        2979.25           1619         105.00       457.29
  185.17        2979.50           1623          97.00       422.41
  185.20        2979.75           1626          96.00       418.05
  185.24        2980.00           1629         110.00       479.08
  185.27        2980.25           1633          99.00       431.13
  185.30        2980.50           1636          98.00       426.77
  185.32        2980.75           1639         109.00       474.72
  185.35        2981.00           1643          93.00       404.97
  185.38        2981.25           1646         103.00       448.57
  185.41        2981.50           1649         102.00       444.21
  185.45        2981.75           1653          95.00       413.69
  185.48        2982.00           1656          99.00       431.13
  185.51        2982.25           1659          94.00       409.33
  185.53        2982.50           1663          99.00       431.13
  185.57        2982.75           1666          89.00       387.54
  185.60        2983.00           1669         102.00       444.21
  185.63        2983.25           1673          96.00       418.05
  185.66        2983.50           1676         105.00       457.29
  185.69        2983.75           1679          96.00       418.05
  185.71        2984.00           1683         102.00       444.21
HS scan finished at 03:06:01
end
************************************************************
  HS Scan of (1) Internal mercury lamp
************************************************************
Integration time is 0.2294 seconds per sample
dh300517Delft 51.997-4.386 2.911481pr1000
************************************************************
Dead Time -------------------------  3E-08 
Number of Cycles Used -------------  4 
Starting Wavelength (Angstroms) ---  2950 
Final Wavelength (Angstoms) -------  2984 
Wavelength Increment (Angstroms) --  .25 
Filter Wheel #1 Position ---------- (1) Ground quartz diffuser (ND=2.32)
Filter Wheel #2 Position ---------- (1) Neutral Density 0.494



************************************************************
HS scan start time = 20:49:34
Dark Count =  .1 


Time (GMT)  Wavelength (Ang)  Step Number  Raw Counts  Counts/Second

 1250.01        2950.00           1229         126.00       548.83
 1250.11        2950.25           1232         123.00       535.75
 1250.14        2950.50           1236         124.00       540.11
 1250.17        2950.75           1239         116.00       505.24
 1250.19        2951.00           1242         118.00       513.96
 1250.22        2951.25           1246         131.00       570.63
 1250.25        2951.50           1249         121.00       527.04
 1250.28        2951.75           1252         112.00       487.80
 1250.31        2952.00           1255         115.00       500.88
 1250.33        2952.25           1259         106.00       461.65
 1250.36        2952.50           1262         121.00       527.04
 1250.39        2952.75           1265         122.00       531.39
 1250.42        2953.00           1269         111.00       483.44
 1250.44        2953.25           1272         122.00       531.39
 1250.47        2953.50           1275         123.00       535.75
 1250.50        2953.75           1279         117.00       509.60
 1250.53        2954.00           1282         118.00       513.96
 1250.55        2954.25           1285         120.00       522.68
 1250.58        2954.50           1289         111.00       483.44
 1250.61        2954.75           1292         118.00       513.96
 1250.64        2955.00           1295         123.00       535.75
 1250.66        2955.25           1299         121.00       527.04
 1250.69        2955.50           1302         111.00       483.44
 1250.72        2955.75           1305         112.00       487.80
 1250.75        2956.00           1309         112.00       487.80
 1250.77        2956.25           1312         115.00       500.88
 1250.80        2956.50           1315         116.00       505.24
 1250.83        2956.75           1319         117.00       509.60
 1250.86        2957.00           1322         118.00       513.96
 1250.89        2957.25           1325         108.00       470.36
 1250.91        2957.50           1329         110.00       479.08
 1250.94        2957.75           1332         109.00       474.72
 1250.98        2958.00           1335         119.00       518.32
 1251.01        2958.25           1339         114.00       496.52
 1251.03        2958.50           1342         113.00       492.16
 1251.06        2958.75           1345         123.00       535.75
 1251.09        2959.00           1349         111.00       483.44
 1251.12        2959.25           1352         113.00       492.16
 1251.15        2959.50           1355         113.00       492.16
 1251.17        2959.75           1359         123.00       535.75
 1251.20        2960.00           1362         118.00       513.96
 1251.23        2960.25           1365         117.00       509.60
 1251.26        2960.50           1369         122.00       531.39
 1251.29        2960.75           1372         134.00       583.71
 1251.31        2961.00           1375         142.00       618.58
 1251.34        2961.25           1379         156.00       679.61
 1251.37        2961.50           1382         197.00       858.35
 1251.40        2961.75           1385         720.00      3138.48
 1251.42        2962.00           1389        2540.00     11075.61
 1251.46        2962.25           1392        4620.00     20151.24
 1251.49        2962.50           1395        7512.00     32778.08
 1251.52        2962.75           1399       11149.00     48671.28
 1251.55        2963.00           1402       14372.00     62768.05
 1251.57        2963.25           1405       17590.00     76854.85
 1251.60        2963.50           1409       21926.00     95854.59
 1251.63        2963.75           1412       25199.00    110210.80
 1251.66        2964.00           1415       28299.00    123819.60
 1251.69        2964.25           1419       32381.00    141756.30
 1251.72        2964.50           1422       35189.00    154106.20
 1251.74        2964.75           1425       37898.00    166029.40
 1251.77        2965.00           1429       41337.00    181177.80
 1251.80        2965.25           1432       44326.00    194355.30
 1251.83        2965.50           1435       47080.00    206506.00
 1251.86        2965.75           1439       51478.00    225928.50
 1251.88        2966.00           1442       53972.00    236952.60
 1251.91        2966.25           1445       56665.00    248864.60
 1251.94        2966.50           1449       60179.00    264421.00
 1251.97        2966.75           1452       62228.00    273498.60
 1251.99        2967.00           1455       62659.00    275408.70
 1252.02        2967.25           1459       62924.00    276583.20
 1252.05        2967.50           1462       62994.00    276893.50
 1252.08        2967.75           1465       63013.00    276977.70
 1252.11        2968.00           1469       62132.00    273073.20
 1252.13        2968.25           1472       60735.00    266883.70
 1252.16        2968.50           1475       58177.00    255556.40
 1252.19        2968.75           1479       54215.00    238027.20
 1252.22        2969.00           1482       51124.00    224364.30
 1252.24        2969.25           1485       48487.00    212717.10
 1252.28        2969.50           1489       44683.00    195929.90
 1252.31        2969.75           1492       41730.00    182909.80
 1252.34        2970.00           1495       38427.00    168358.60
 1252.37        2970.25           1499       35216.00    154225.00
 1252.40        2970.50           1502       32538.00    142446.60
 1252.43        2970.75           1505       29479.00    129002.70
 1252.46        2971.00           1509       25721.00    112501.60
 1252.49        2971.25           1512       22327.00     97612.81
 1252.51        2971.50           1515       19318.00     84424.11
 1252.54        2971.75           1519       15409.00     67306.21
 1252.57        2972.00           1522       12899.00     56323.95
 1252.60        2972.25           1525       10175.00     44413.54
 1252.62        2972.50           1529        6366.00     27773.35
 1252.65        2972.75           1532        3334.00     14539.47
 1252.68        2973.00           1536        1057.00      4607.87
 1252.71        2973.25           1539         466.00      2031.07
 1252.74        2973.50           1542         235.00      1024.01
 1252.77        2973.75           1546         158.00       688.33
 1252.80        2974.00           1549         152.00       662.18
 1252.82        2974.25           1552         126.00       548.83
 1252.85        2974.50           1556         124.00       540.11
 1252.88        2974.75           1559         122.00       531.39
 1252.91        2975.00           1562         113.00       492.16
 1252.93        2975.25           1566         114.00       496.52
 1252.96        2975.50           1569         105.00       457.29
 1252.99        2975.75           1572         102.00       444.21
 1253.02        2976.00           1576         104.00       452.93
 1253.04        2976.25           1579         112.00       487.80
 1253.07        2976.50           1582         110.00       479.08
 1253.10        2976.75           1586         113.00       492.16
 1253.13        2977.00           1589          96.00       418.05
 1253.16        2977.25           1592         108.00       470.36
 1253.19        2977.50           1596         102.00       444.21
 1253.21        2977.75           1599         117.00       509.60
 1253.24        2978.00           1602         101.00       439.85
 1253.27        2978.25           1606         100.00       435.49
 1253.30        2978.50           1609          97.00       422.41
 1253.33        2978.75           1612         103.00       448.57
 1253.36        2979.00           1616         104.00       452.93
 1253.39        2979.25           1619         102.00       444.21
 1253.41        2979.50           1623         101.00       439.85
 1253.44        2979.75           1626         108.00       470.36
 1253.47        2980.00           1629         109.00       474.72
 1253.50        2980.25           1633          98.00       426.77
 1253.53        2980.50           1636         112.00       487.80
 1253.56        2980.75           1639         112.00       487.80
 1253.59        2981.00           1643         110.00       479.08
 1253.62        2981.25           1646         105.00       457.29
 1253.64        2981.50           1649          97.00       422.41
 1253.67        2981.75           1653          98.00       426.77
 1253.70        2982.00           1656          92.00       400.62
 1253.73        2982.25           1659         104.00       452.93
 1253.76        2982.50           1663         101.00       439.85
 1253.79        2982.75           1666         107.00       466.00
 1253.81        2983.00           1669          97.00       422.41
 1253.84        2983.25           1673          95.00       413.69
 1253.87        2983.50           1676          99.00       431.13
 1253.90        2983.75           1679          99.00       431.13
 1253.93        2984.00           1683         101.00       439.85
HS scan finished at 20:54:13
end
