************************************************************
  HS Scan of (1) Internal mercury lamp
************************************************************
Integration time is 0.2294 seconds per sample
dh300518Delft 52.017-4.35 3.072425pr1000
************************************************************
Dead Time -------------------------  2.7E-08 
Number of Cycles Used -------------  4 
Starting Wavelength (Angstroms) ---  2950 
Final Wavelength (Angstoms) -------  2984 
Wavelength Increment (Angstroms) --  .25 
Filter Wheel #1 Position ---------- (1) Ground quartz diffuser (ND=2.32)
Filter Wheel #2 Position ---------- (1) Neutral Density 0.494



************************************************************
HS scan start time = 02:59:09
Dark Count =  .1 


Time (GMT)  Wavelength (Ang)  Step Number  Raw Counts  Counts/Second

  179.59        2950.00           1229         101.00       439.85
  179.69        2950.25           1232          97.00       422.41
  179.72        2950.50           1236         107.00       466.00
  179.75        2950.75           1239          92.00       400.61
  179.78        2951.00           1242         103.00       448.57
  179.81        2951.25           1246         101.00       439.85
  179.83        2951.50           1249         103.00       448.57
  179.86        2951.75           1252         114.00       496.52
  179.89        2952.00           1256          97.00       422.41
  179.92        2952.25           1259         109.00       474.72
  179.95        2952.50           1262         102.00       444.21
  179.97        2952.75           1266         102.00       444.21
  180.00        2953.00           1269         104.00       452.93
  180.03        2953.25           1272         106.00       461.64
  180.06        2953.50           1276         103.00       448.57
  180.09        2953.75           1279         110.00       479.08
  180.12        2954.00           1282         106.00       461.64
  180.15        2954.25           1286          98.00       426.77
  180.17        2954.50           1289         102.00       444.21
  180.20        2954.75           1292         101.00       439.85
  180.23        2955.00           1296         100.00       435.49
  180.26        2955.25           1299         106.00       461.64
  180.29        2955.50           1302          97.00       422.41
  180.31        2955.75           1306         109.00       474.72
  180.34        2956.00           1309          97.00       422.41
  180.37        2956.25           1312          99.00       431.13
  180.40        2956.50           1316         109.00       474.72
  180.43        2956.75           1319          95.00       413.69
  180.46        2957.00           1322          99.00       431.13
  180.48        2957.25           1326         104.00       452.93
  180.51        2957.50           1329          96.00       418.05
  180.54        2957.75           1332         110.00       479.08
  180.57        2958.00           1336         100.00       435.49
  180.60        2958.25           1339         104.00       452.93
  180.63        2958.50           1342          90.00       391.90
  180.65        2958.75           1345          95.00       413.69
  180.68        2959.00           1349         104.00       452.93
  180.71        2959.25           1352         107.00       466.00
  180.74        2959.50           1355         103.00       448.57
  180.77        2959.75           1359         107.00       466.00
  180.80        2960.00           1362          99.00       431.13
  180.82        2960.25           1365         111.00       483.44
  180.85        2960.50           1369         112.00       487.80
  180.88        2960.75           1372         124.00       540.11
  180.91        2961.00           1375         119.00       518.32
  180.94        2961.25           1379         137.00       596.78
  180.97        2961.50           1382         156.00       679.61
  180.99        2961.75           1385         531.00      2314.44
  181.02        2962.00           1389        2576.00     11232.26
  181.05        2962.25           1392        4802.00     20944.27
  181.08        2962.50           1395        7338.00     32015.02
  181.11        2962.75           1399       11155.00     48690.39
  181.14        2963.00           1402       14317.00     62515.64
  181.16        2963.25           1405       17522.00     76539.45
  181.19        2963.50           1409       21180.00     92558.41
  181.22        2963.75           1412       23806.00    104066.60
  181.25        2964.00           1415       26498.00    115871.50
  181.28        2964.25           1419       30274.00    132442.70
  181.31        2964.50           1422       32926.00    144090.00
  181.33        2964.75           1425       36133.00    158184.60
  181.36        2965.00           1429       39481.00    172910.40
  181.39        2965.25           1432       42632.00    186780.50
  181.42        2965.50           1435       45140.00    197827.60
  181.45        2965.75           1439       48994.00    214816.50
  181.48        2966.00           1442       52264.00    229243.20
  181.50        2966.25           1445       54484.00    239044.00
  181.53        2966.50           1449       57322.00    251580.60
  181.56        2966.75           1452       59277.00    260221.70
  181.59        2967.00           1455       60433.00    265333.00
  181.62        2967.25           1459       60384.00    265116.30
  181.65        2967.50           1462       60680.00    266425.40
  181.68        2967.75           1465       60257.00    264554.70
  181.70        2968.00           1469       59213.00    259938.70
  181.73        2968.25           1472       57617.00    252884.20
  181.76        2968.50           1475       55127.00    241883.60
  181.79        2968.75           1479       51663.00    226590.80
  181.82        2969.00           1482       49273.00    216046.90
  181.85        2969.25           1485       46761.00    204971.20
  181.87        2969.50           1489       43579.00    190951.00
  181.90        2969.75           1492       40579.00    177742.40
  181.93        2970.00           1495       37247.00    163083.10
  181.96        2970.25           1499       33722.00    147587.40
  181.99        2970.50           1502       30823.00    134853.20
  182.02        2970.75           1505       28047.00    122667.60
  182.04        2971.00           1509       24450.00    106890.00
  182.07        2971.25           1512       21555.00     94201.37
  182.10        2971.50           1515       18781.00     82051.25
  182.13        2971.75           1519       15011.00     65551.41
  182.16        2972.00           1522       12635.00     55160.13
  182.19        2972.25           1525        9926.00     43319.60
  182.22        2972.50           1529        6631.00     28928.00
  182.24        2972.75           1532        4030.00     17575.47
  182.27        2973.00           1535        1668.00      7272.13
  182.30        2973.25           1539         381.00      1660.49
  182.33        2973.50           1542         190.00       827.83
  182.36        2973.75           1546         138.00       601.14
  182.39        2974.00           1549         136.00       592.42
  182.41        2974.25           1552         120.00       522.68
  182.44        2974.50           1556         108.00       470.36
  182.47        2974.75           1559         105.00       457.29
  182.50        2975.00           1562         111.00       483.44
  182.53        2975.25           1566         102.00       444.21
  182.55        2975.50           1569          93.00       404.97
  182.58        2975.75           1572         100.00       435.49
  182.61        2976.00           1576          97.00       422.41
  182.64        2976.25           1579          99.00       431.13
  182.67        2976.50           1582         107.00       466.00
  182.70        2976.75           1586          98.00       426.77
  182.72        2977.00           1589         104.00       452.93
  182.75        2977.25           1592         103.00       448.57
  182.78        2977.50           1596          99.00       431.13
  182.81        2977.75           1599          91.00       396.26
  182.84        2978.00           1602         100.00       435.49
  182.87        2978.25           1606         102.00       444.21
  182.89        2978.50           1609          99.00       431.13
  182.92        2978.75           1612         100.00       435.49
  182.95        2979.00           1616          90.00       391.90
  182.98        2979.25           1619          83.00       361.38
  183.01        2979.50           1622          88.00       383.18
  183.04        2979.75           1626          88.00       383.18
  183.06        2980.00           1629          96.00       418.05
  183.09        2980.25           1632          87.00       378.82
  183.12        2980.50           1636          92.00       400.61
  183.15        2980.75           1639          85.00       370.10
  183.18        2981.00           1642          96.00       418.05
  183.21        2981.25           1646          98.00       426.77
  183.23        2981.50           1649          96.00       418.05
  183.26        2981.75           1653          86.00       374.46
  183.29        2982.00           1656          93.00       404.97
  183.32        2982.25           1659          86.00       374.46
  183.35        2982.50           1663          85.00       370.10
  183.37        2982.75           1666          95.00       413.69
  183.40        2983.00           1669          85.00       370.10
  183.43        2983.25           1673          85.00       370.10
  183.46        2983.50           1676          84.00       365.74
  183.49        2983.75           1679          97.00       422.41
  183.52        2984.00           1683          90.00       391.90
HS scan finished at 03:03:49
end
************************************************************
  HS Scan of (1) Internal mercury lamp
************************************************************
Integration time is 0.2294 seconds per sample
dh300518Delft 52.017-4.35 3.072425pr1000
************************************************************
Dead Time -------------------------  2.7E-08 
Number of Cycles Used -------------  4 
Starting Wavelength (Angstroms) ---  2950 
Final Wavelength (Angstoms) -------  2984 
Wavelength Increment (Angstroms) --  .25 
Filter Wheel #1 Position ---------- (1) Ground quartz diffuser (ND=2.32)
Filter Wheel #2 Position ---------- (1) Neutral Density 0.494



************************************************************
HS scan start time = 20:51:57
Dark Count =  .2 


Time (GMT)  Wavelength (Ang)  Step Number  Raw Counts  Counts/Second

 1252.39        2950.00           1229         103.00       448.13
 1252.49        2950.25           1232         107.00       465.57
 1252.52        2950.50           1236         107.00       465.57
 1252.55        2950.75           1239         106.00       461.21
 1252.58        2951.00           1242         105.00       456.85
 1252.61        2951.25           1246         104.00       452.49
 1252.64        2951.50           1249         106.00       461.21
 1252.67        2951.75           1252          97.00       421.98
 1252.69        2952.00           1256         105.00       456.85
 1252.72        2952.25           1259         100.00       435.05
 1252.75        2952.50           1262         103.00       448.13
 1252.78        2952.75           1266         110.00       478.65
 1252.81        2953.00           1269         110.00       478.65
 1252.83        2953.25           1272         101.00       439.41
 1252.86        2953.50           1276         101.00       439.41
 1252.89        2953.75           1279          99.00       430.69
 1252.92        2954.00           1282         105.00       456.85
 1252.95        2954.25           1286         102.00       443.77
 1252.98        2954.50           1289         100.00       435.05
 1253.00        2954.75           1292          97.00       421.98
 1253.03        2955.00           1296         100.00       435.05
 1253.06        2955.25           1299         102.00       443.77
 1253.09        2955.50           1302         109.00       474.29
 1253.12        2955.75           1306         101.00       439.41
 1253.14        2956.00           1309         104.00       452.49
 1253.17        2956.25           1312          92.00       400.18
 1253.20        2956.50           1316         103.00       448.13
 1253.23        2956.75           1319          99.00       430.69
 1253.26        2957.00           1322         105.00       456.85
 1253.29        2957.25           1326          98.00       426.33
 1253.31        2957.50           1329         103.00       448.13
 1253.34        2957.75           1332         111.00       483.01
 1253.37        2958.00           1336         100.00       435.05
 1253.40        2958.25           1339          98.00       426.33
 1253.43        2958.50           1342         109.00       474.29
 1253.46        2958.75           1345         104.00       452.49
 1253.48        2959.00           1349         109.00       474.29
 1253.51        2959.25           1352          99.00       430.69
 1253.54        2959.50           1355         108.00       469.93
 1253.57        2959.75           1359         106.00       461.21
 1253.60        2960.00           1362         103.00       448.13
 1253.62        2960.25           1365         103.00       448.13
 1253.65        2960.50           1369         114.00       496.08
 1253.68        2960.75           1372         113.00       491.72
 1253.71        2961.00           1375         115.00       500.44
 1253.74        2961.25           1379         137.00       596.35
 1253.77        2961.50           1382         258.00      1123.84
 1253.79        2961.75           1385         755.00      3290.61
 1253.82        2962.00           1389        2705.00     11794.52
 1253.85        2962.25           1392        4833.00     21079.13
 1253.88        2962.50           1395        7244.00     31604.11
 1253.91        2962.75           1399       11227.00     49004.64
 1253.94        2963.00           1402       14064.00     61408.62
 1253.97        2963.25           1405       16514.00     72127.25
 1253.99        2963.50           1409       20481.00     89495.87
 1254.02        2963.75           1412       23580.00    103075.50
 1254.05        2964.00           1415       26354.00    115239.50
 1254.08        2964.25           1419       30762.00    134585.00
 1254.11        2964.50           1422       33714.00    147551.80
 1254.14        2964.75           1425       36464.00    159639.50
 1254.16        2965.00           1429       40064.00    175475.50
 1254.19        2965.25           1432       43108.00    188876.20
 1254.22        2965.50           1435       45818.00    200814.70
 1254.25        2965.75           1439       49488.00    216994.80
 1254.28        2966.00           1442       51368.00    225288.70
 1254.31        2966.25           1445       54194.00    237763.00
 1254.33        2966.50           1449       57349.00    251699.50
 1254.36        2966.75           1452       58873.00    258435.20
 1254.39        2967.00           1455       59240.00    260057.60
 1254.42        2967.25           1459       59342.00    260508.60
 1254.45        2967.50           1462       59344.00    260517.40
 1254.47        2967.75           1465       59367.00    260619.10
 1254.50        2968.00           1469       58423.00    256446.10
 1254.53        2968.25           1472       56225.00    246733.30
 1254.56        2968.50           1475       54003.00    236919.60
 1254.59        2968.75           1479       51345.00    225187.20
 1254.62        2969.00           1482       48839.00    214132.50
 1254.65        2969.25           1485       46208.00    202533.50
 1254.67        2969.50           1489       42617.00    186714.00
 1254.70        2969.75           1492       39568.00    173292.80
 1254.73        2970.00           1495       36438.00    159525.20
 1254.76        2970.25           1499       32447.00    141985.30
 1254.79        2970.50           1502       29863.00    130637.90
 1254.82        2970.75           1505       27073.00    118393.60
 1254.84        2971.00           1509       23151.00    101195.00
 1254.87        2971.25           1512       20283.00     88628.58
 1254.90        2971.50           1515       18154.00     79305.65
 1254.93        2971.75           1519       14991.00     65463.47
 1254.96        2972.00           1522       12031.00     52519.07
 1254.99        2972.25           1525        9285.00     40518.58
 1255.01        2972.50           1529        5380.00     23466.48
 1255.04        2972.75           1532        2734.00     11921.01
 1255.07        2973.00           1535        1239.00      5400.96
 1255.10        2973.25           1539         353.00      1537.99
 1255.13        2973.50           1542         185.00       805.60
 1255.16        2973.75           1546         160.00       696.61
 1255.18        2974.00           1549         136.00       591.99
 1255.21        2974.25           1552         123.00       535.32
 1255.24        2974.50           1556         123.00       535.32
 1255.27        2974.75           1559         110.00       478.65
 1255.30        2975.00           1562         109.00       474.29
 1255.32        2975.25           1566          96.00       417.62
 1255.35        2975.50           1569         103.00       448.13
 1255.38        2975.75           1572          99.00       430.69
 1255.41        2976.00           1576          92.00       400.18
 1255.44        2976.25           1579         107.00       465.57
 1255.47        2976.50           1582          85.00       369.66
 1255.50        2976.75           1586          90.00       391.46
 1255.52        2977.00           1589          96.00       417.62
 1255.55        2977.25           1592          89.00       387.10
 1255.58        2977.50           1596          96.00       417.62
 1255.61        2977.75           1599          91.00       395.82
 1255.64        2978.00           1602          89.00       387.10
 1255.66        2978.25           1606          95.00       413.26
 1255.69        2978.50           1609          92.00       400.18
 1255.72        2978.75           1612          86.00       374.02
 1255.75        2979.00           1616          99.00       430.69
 1255.78        2979.25           1619         103.00       448.13
 1255.81        2979.50           1622          94.00       408.90
 1255.83        2979.75           1626          91.00       395.82
 1255.86        2980.00           1629          85.00       369.66
 1255.89        2980.25           1632          90.00       391.46
 1255.92        2980.50           1636          94.00       408.90
 1255.95        2980.75           1639          84.00       365.30
 1255.97        2981.00           1642          98.00       426.33
 1256.00        2981.25           1646          91.00       395.82
 1256.03        2981.50           1649          92.00       400.18
 1256.06        2981.75           1653          96.00       417.62
 1256.09        2982.00           1656          94.00       408.90
 1256.11        2982.25           1659          93.00       404.54
 1256.14        2982.50           1663          87.00       378.38
 1256.17        2982.75           1666         101.00       439.41
 1256.20        2983.00           1669          82.00       356.59
 1256.23        2983.25           1673          87.00       378.38
 1256.26        2983.50           1676          94.00       408.90
 1256.29        2983.75           1679          88.00       382.74
 1256.31        2984.00           1683          86.00       374.02
HS scan finished at 20:56:37
end
