************************************************************
  HS Scan of (1) Internal mercury lamp
************************************************************
Integration time is 0.2294 seconds per sample
dh030617Delft 51.997-4.386 3.126073pr1000
************************************************************
Dead Time -------------------------  3E-08 
Number of Cycles Used -------------  4 
Starting Wavelength (Angstroms) ---  2950 
Final Wavelength (Angstoms) -------  2984 
Wavelength Increment (Angstroms) --  .25 
Filter Wheel #1 Position ---------- (1) Ground quartz diffuser (ND=2.32)
Filter Wheel #2 Position ---------- (1) Neutral Density 0.494



************************************************************
HS scan start time = 01:08:25
Dark Count =  .1 


Time (GMT)  Wavelength (Ang)  Step Number  Raw Counts  Counts/Second

   68.86        2950.00           1229         115.00       500.88
   68.96        2950.25           1232         120.00       522.68
   68.99        2950.50           1236         113.00       492.16
   69.02        2950.75           1239         115.00       500.88
   69.05        2951.00           1242         113.00       492.16
   69.07        2951.25           1246         110.00       479.08
   69.10        2951.50           1249         115.00       500.88
   69.13        2951.75           1252         100.00       435.49
   69.16        2952.00           1255         111.00       483.44
   69.19        2952.25           1259         119.00       518.32
   69.21        2952.50           1262         107.00       466.00
   69.25        2952.75           1265         119.00       518.32
   69.28        2953.00           1269         107.00       466.00
   69.30        2953.25           1272         114.00       496.52
   69.33        2953.50           1275          88.00       383.18
   69.36        2953.75           1279         124.00       540.11
   69.39        2954.00           1282         120.00       522.68
   69.43        2954.25           1285         118.00       513.96
   69.46        2954.50           1289         116.00       505.24
   69.49        2954.75           1292         121.00       527.04
   69.52        2955.00           1295         109.00       474.72
   69.55        2955.25           1299         107.00       466.00
   69.58        2955.50           1302         103.00       448.57
   69.61        2955.75           1305         100.00       435.49
   69.64        2956.00           1309         108.00       470.36
   69.67        2956.25           1312         115.00       500.88
   69.69        2956.50           1315         109.00       474.72
   69.72        2956.75           1319         110.00       479.08
   69.75        2957.00           1322          98.00       426.77
   69.78        2957.25           1325         108.00       470.36
   69.81        2957.50           1329         118.00       513.96
   69.83        2957.75           1332         105.00       457.29
   69.86        2958.00           1335         110.00       479.08
   69.89        2958.25           1339         104.00       452.93
   69.92        2958.50           1342         104.00       452.93
   69.95        2958.75           1345         106.00       461.65
   69.98        2959.00           1349         107.00       466.00
   70.00        2959.25           1352         109.00       474.72
   70.03        2959.50           1355         107.00       466.00
   70.06        2959.75           1359         104.00       452.93
   70.09        2960.00           1362         104.00       452.93
   70.12        2960.25           1365         106.00       461.65
   70.15        2960.50           1369         115.00       500.88
   70.19        2960.75           1372         125.00       544.47
   70.22        2961.00           1375         129.00       561.91
   70.25        2961.25           1379         137.00       596.78
   70.27        2961.50           1382         222.00       967.33
   70.30        2961.75           1385         857.00      3735.82
   70.33        2962.00           1389        3422.00     14923.42
   70.36        2962.25           1392        5902.00     25747.43
   70.39        2962.50           1395        8848.00     38614.45
   70.42        2962.75           1399       13325.00     58187.37
   70.45        2963.00           1402       16655.00     72760.66
   70.48        2963.25           1405       19931.00     87110.09
   70.51        2963.50           1409       24638.00    107749.20
   70.54        2963.75           1412       27896.00    122049.80
   70.57        2964.00           1415       31243.00    136753.90
   70.61        2964.25           1419       35087.00    153657.40
   70.64        2964.50           1422       37790.00    165553.90
   70.67        2964.75           1425       40786.00    178749.80
   70.69        2965.00           1429       44673.00    195885.80
   70.72        2965.25           1432       48388.00    212280.00
   70.75        2965.50           1435       51327.00    225261.30
   70.78        2965.75           1439       54983.00    241423.60
   70.81        2966.00           1442       58364.00    256384.20
   70.84        2966.25           1445       61195.00    268921.50
   70.87        2966.50           1449       64933.00    285490.10
   70.90        2966.75           1452       66465.00    292285.40
   70.92        2967.00           1455       67165.00    295391.20
   70.95        2967.25           1459       67253.00    295781.70
   70.98        2967.50           1462       67142.00    295289.20
   71.01        2967.75           1465       67156.00    295351.30
   71.04        2968.00           1469       66128.00    290790.40
   71.07        2968.25           1472       63856.00    280714.60
   71.10        2968.50           1475       60903.00    267628.00
   71.13        2968.75           1479       56833.00    249608.00
   71.16        2969.00           1482       54108.00    237554.00
   71.19        2969.25           1485       50879.00    223281.80
   71.21        2969.50           1489       46529.00    204074.30
   71.24        2969.75           1492       44045.00    193116.00
   71.27        2970.00           1495       41299.00    181010.40
   71.30        2970.25           1499       37297.00    163383.40
   71.33        2970.50           1502       34094.00    149289.20
   71.36        2970.75           1505       30368.00    132908.60
   71.39        2971.00           1509       26148.00    114375.70
   71.42        2971.25           1512       22880.00    100037.80
   71.45        2971.50           1515       19788.00     86483.47
   71.48        2971.75           1519       15907.00     69486.03
   71.51        2972.00           1522       13111.00     57251.26
   71.54        2972.25           1525       10071.00     43958.99
   71.57        2972.50           1529        5838.00     25468.01
   71.60        2972.75           1532        3379.00     14735.81
   71.63        2973.00           1536        1088.00      4743.05
   71.66        2973.25           1539         419.00      1826.17
   71.69        2973.50           1542         183.00       797.32
   71.71        2973.75           1546         155.00       675.25
   71.74        2974.00           1549         136.00       592.43
   71.77        2974.25           1552         128.00       557.55
   71.80        2974.50           1556         118.00       513.96
   71.83        2974.75           1559         116.00       505.24
   71.86        2975.00           1562          96.00       418.05
   71.89        2975.25           1566          92.00       400.62
   71.93        2975.50           1569         105.00       457.29
   71.96        2975.75           1572         104.00       452.93
   71.98        2976.00           1576         102.00       444.21
   72.01        2976.25           1579         104.00       452.93
   72.04        2976.50           1582          99.00       431.13
   72.07        2976.75           1586         101.00       439.85
   72.10        2977.00           1589         104.00       452.93
   72.14        2977.25           1592         106.00       461.65
   72.17        2977.50           1596         102.00       444.21
   72.20        2977.75           1599         103.00       448.57
   72.23        2978.00           1602          92.00       400.62
   72.25        2978.25           1606          98.00       426.77
   72.28        2978.50           1609         100.00       435.49
   72.31        2978.75           1612          96.00       418.05
   72.34        2979.00           1616          96.00       418.05
   72.37        2979.25           1619          88.00       383.18
   72.40        2979.50           1623          95.00       413.69
   72.43        2979.75           1626          92.00       400.62
   72.46        2980.00           1629          89.00       387.54
   72.49        2980.25           1633          90.00       391.90
   72.52        2980.50           1636          91.00       396.26
   72.55        2980.75           1639         104.00       452.93
   72.58        2981.00           1643         102.00       444.21
   72.61        2981.25           1646          91.00       396.26
   72.64        2981.50           1649          90.00       391.90
   72.67        2981.75           1653          98.00       426.77
   72.70        2982.00           1656          93.00       404.97
   72.72        2982.25           1659          96.00       418.05
   72.76        2982.50           1663          97.00       422.41
   72.79        2982.75           1666          98.00       426.77
   72.82        2983.00           1669          93.00       404.97
   72.85        2983.25           1673          90.00       391.90
   72.88        2983.50           1676          92.00       400.62
   72.91        2983.75           1679          95.00       413.69
   72.94        2984.00           1683         101.00       439.85
HS scan finished at 01:13:14
end
