************************************************************
  HS Scan of (1) Internal mercury lamp
************************************************************
Integration time is 0.2294 seconds per sample
dh020617Delft 51.997-4.386 2.911481pr1000
************************************************************
Dead Time -------------------------  3E-08 
Number of Cycles Used -------------  4 
Starting Wavelength (Angstroms) ---  2950 
Final Wavelength (Angstoms) -------  2984 
Wavelength Increment (Angstroms) --  .25 
Filter Wheel #1 Position ---------- (1) Ground quartz diffuser (ND=2.32)
Filter Wheel #2 Position ---------- (1) Neutral Density 0.494



************************************************************
HS scan start time = 00:19:31
Dark Count =  0 


Time (GMT)  Wavelength (Ang)  Step Number  Raw Counts  Counts/Second

   19.96        2950.00           1229         121.00       527.47
   20.06        2950.25           1232         113.00       492.60
   20.09        2950.50           1236         116.00       505.67
   20.12        2950.75           1239         112.00       488.24
   20.15        2951.00           1242         116.00       505.67
   20.17        2951.25           1246         127.00       553.63
   20.20        2951.50           1249         123.00       536.19
   20.23        2951.75           1252         120.00       523.11
   20.26        2952.00           1255         109.00       475.16
   20.28        2952.25           1259         111.00       483.88
   20.31        2952.50           1262         125.00       544.91
   20.34        2952.75           1265         122.00       531.83
   20.37        2953.00           1269         111.00       483.88
   20.39        2953.25           1272         107.00       466.44
   20.42        2953.50           1275         125.00       544.91
   20.45        2953.75           1279         113.00       492.60
   20.48        2954.00           1282         116.00       505.67
   20.51        2954.25           1285         118.00       514.39
   20.53        2954.50           1289         121.00       527.47
   20.56        2954.75           1292         110.00       479.52
   20.59        2955.00           1295         114.00       496.96
   20.62        2955.25           1299         116.00       505.67
   20.64        2955.50           1302         123.00       536.19
   20.67        2955.75           1305         112.00       488.24
   20.70        2956.00           1309         113.00       492.60
   20.73        2956.25           1312         115.00       501.32
   20.75        2956.50           1315         111.00       483.88
   20.78        2956.75           1319         113.00       492.60
   20.81        2957.00           1322         112.00       488.24
   20.84        2957.25           1325         108.00       470.80
   20.87        2957.50           1329         105.00       457.72
   20.89        2957.75           1332         111.00       483.88
   20.92        2958.00           1335         103.00       449.00
   20.95        2958.25           1339         105.00       457.72
   20.98        2958.50           1342         113.00       492.60
   21.00        2958.75           1345         114.00       496.96
   21.03        2959.00           1349         111.00       483.88
   21.06        2959.25           1352         103.00       449.00
   21.09        2959.50           1355         120.00       523.11
   21.11        2959.75           1359         107.00       466.44
   21.14        2960.00           1362         115.00       501.32
   21.17        2960.25           1365         103.00       449.00
   21.20        2960.50           1369         110.00       479.52
   21.23        2960.75           1372         129.00       562.35
   21.26        2961.00           1375         136.00       592.86
   21.28        2961.25           1379         141.00       614.66
   21.31        2961.50           1382         247.00      1076.76
   21.34        2961.75           1385         858.00      3740.61
   21.37        2962.00           1389        2631.00     11473.00
   21.39        2962.25           1392        4782.00     20858.74
   21.42        2962.50           1395        7510.00     32769.78
   21.46        2962.75           1399       11940.00     52130.29
   21.49        2963.00           1402       15161.00     66221.24
   21.52        2963.25           1405       17764.00     77617.32
   21.54        2963.50           1409       21696.00     94846.66
   21.57        2963.75           1412       25267.00    110509.60
   21.60        2964.00           1415       28368.00    124123.10
   21.63        2964.25           1419       32891.00    143999.10
   21.66        2964.50           1422       35878.00    157138.40
   21.68        2964.75           1425       38308.00    167835.10
   21.71        2965.00           1429       42410.00    185907.60
   21.74        2965.25           1432       45766.00    200707.90
   21.77        2965.50           1435       48683.00    213583.00
   21.79        2965.75           1439       52920.00    232302.10
   21.82        2966.00           1442       56428.00    247816.40
   21.85        2966.25           1445       59342.00    260714.70
   21.88        2966.50           1449       62592.00    275112.20
   21.91        2966.75           1452       63933.00    281056.40
   21.93        2967.00           1455       64549.00    283787.70
   21.96        2967.25           1459       64144.00    281992.00
   21.99        2967.50           1462       64556.00    283818.70
   22.02        2967.75           1465       64422.00    283224.50
   22.05        2968.00           1469       63226.00    277922.30
   22.08        2968.25           1472       61216.00    269015.00
   22.10        2968.50           1475       58484.00    256915.90
   22.13        2968.75           1479       54619.00    239814.20
   22.16        2969.00           1482       52051.00    228461.10
   22.20        2969.25           1485       48920.00    214629.50
   22.23        2969.50           1489       45021.00    197421.30
   22.25        2969.75           1492       42153.00    184774.70
   22.28        2970.00           1495       39145.00    171521.10
   22.31        2970.25           1499       35863.00    157072.30
   22.34        2970.50           1502       32590.00    142675.60
   22.37        2970.75           1505       29828.00    130536.40
   22.39        2971.00           1509       25788.00    112796.00
   22.42        2971.25           1512       22661.00     99077.84
   22.45        2971.50           1515       19590.00     85616.31
   22.48        2971.75           1519       15656.00     68387.77
   22.50        2972.00           1522       13025.00     56875.52
   22.53        2972.25           1525       10288.00     44907.89
   22.56        2972.50           1529        6270.00     27354.61
   22.59        2972.75           1532        3463.00     15102.74
   22.61        2973.00           1536        1273.00      5550.18
   22.64        2973.25           1539         576.00      2511.09
   22.67        2973.50           1542         239.00      1041.88
   22.70        2973.75           1546         157.00       684.41
   22.73        2974.00           1549         153.00       666.97
   22.76        2974.25           1552         135.00       588.50
   22.79        2974.50           1556         119.00       518.75
   22.81        2974.75           1559         123.00       536.19
   22.84        2975.00           1562         112.00       488.24
   22.87        2975.25           1566         111.00       483.88
   22.90        2975.50           1569         115.00       501.32
   22.93        2975.75           1572          98.00       427.21
   22.96        2976.00           1576         106.00       462.08
   22.99        2976.25           1579          99.00       431.57
   23.02        2976.50           1582         109.00       475.16
   23.05        2976.75           1586         108.00       470.80
   23.08        2977.00           1589          97.00       422.85
   23.10        2977.25           1592         110.00       479.52
   23.13        2977.50           1596         105.00       457.72
   23.16        2977.75           1599         107.00       466.44
   23.19        2978.00           1602         106.00       462.08
   23.21        2978.25           1606          96.00       418.49
   23.24        2978.50           1609         107.00       466.44
   23.27        2978.75           1612          94.00       409.77
   23.30        2979.00           1616          93.00       405.41
   23.32        2979.25           1619          97.00       422.85
   23.35        2979.50           1623         103.00       449.00
   23.38        2979.75           1626         115.00       501.32
   23.41        2980.00           1629          98.00       427.21
   23.44        2980.25           1633         104.00       453.36
   23.46        2980.50           1636          93.00       405.41
   23.49        2980.75           1639         106.00       462.08
   23.52        2981.00           1643          96.00       418.49
   23.55        2981.25           1646         100.00       435.93
   23.57        2981.50           1649         101.00       440.28
   23.60        2981.75           1653          93.00       405.41
   23.63        2982.00           1656         100.00       435.93
   23.66        2982.25           1659          98.00       427.21
   23.68        2982.50           1663          96.00       418.49
   23.71        2982.75           1666         107.00       466.44
   23.74        2983.00           1669         103.00       449.00
   23.77        2983.25           1673          96.00       418.49
   23.79        2983.50           1676         100.00       435.93
   23.82        2983.75           1679         106.00       462.08
   23.85        2984.00           1683          92.00       401.05
HS scan finished at 00:24:09
end
************************************************************
  HS Scan of (1) Internal mercury lamp
************************************************************
Integration time is 0.2294 seconds per sample
dh020617Delft 51.997-4.386 2.965129pr1000
************************************************************
Dead Time -------------------------  3E-08 
Number of Cycles Used -------------  4 
Starting Wavelength (Angstroms) ---  2950 
Final Wavelength (Angstoms) -------  2984 
Wavelength Increment (Angstroms) --  .25 
Filter Wheel #1 Position ---------- (1) Ground quartz diffuser (ND=2.32)
Filter Wheel #2 Position ---------- (1) Neutral Density 0.494



************************************************************
HS scan start time = 01:15:40
Dark Count =  .2 


Time (GMT)  Wavelength (Ang)  Step Number  Raw Counts  Counts/Second

   76.12        2950.00           1229         114.00       496.08
   76.22        2950.25           1232         107.00       465.57
   76.25        2950.50           1236         109.00       474.29
   76.27        2950.75           1239         116.00       504.80
   76.30        2951.00           1242         122.00       530.96
   76.33        2951.25           1246         125.00       544.04
   76.36        2951.50           1249         120.00       522.24
   76.39        2951.75           1252         106.00       461.21
   76.41        2952.00           1255         116.00       504.80
   76.44        2952.25           1259         119.00       517.88
   76.47        2952.50           1262         120.00       522.24
   76.50        2952.75           1265         118.00       513.52
   76.52        2953.00           1269         114.00       496.08
   76.55        2953.25           1272         116.00       504.80
   76.58        2953.50           1275         120.00       522.24
   76.61        2953.75           1279         114.00       496.08
   76.63        2954.00           1282         119.00       517.88
   76.66        2954.25           1285         113.00       491.72
   76.69        2954.50           1289         119.00       517.88
   76.72        2954.75           1292         115.00       500.44
   76.75        2955.00           1295         123.00       535.32
   76.77        2955.25           1299         112.00       487.37
   76.80        2955.50           1302         118.00       513.52
   76.83        2955.75           1305         112.00       487.37
   76.86        2956.00           1309         104.00       452.49
   76.89        2956.25           1312         117.00       509.16
   76.92        2956.50           1315         120.00       522.24
   76.94        2956.75           1319         125.00       544.04
   76.97        2957.00           1322         112.00       487.37
   77.00        2957.25           1325         116.00       504.80
   77.03        2957.50           1329         122.00       530.96
   77.06        2957.75           1332         117.00       509.16
   77.08        2958.00           1335         124.00       539.68
   77.11        2958.25           1339         116.00       504.80
   77.14        2958.50           1342         111.00       483.01
   77.17        2958.75           1345         109.00       474.29
   77.20        2959.00           1349         111.00       483.01
   77.23        2959.25           1352         116.00       504.80
   77.25        2959.50           1355         122.00       530.96
   77.28        2959.75           1359         113.00       491.72
   77.31        2960.00           1362         115.00       500.44
   77.34        2960.25           1365         113.00       491.72
   77.36        2960.50           1369         113.00       491.72
   77.39        2960.75           1372         131.00       570.19
   77.42        2961.00           1375         131.00       570.19
   77.45        2961.25           1379         144.00       626.86
   77.48        2961.50           1382         202.00       879.71
   77.50        2961.75           1385         741.00      3229.61
   77.53        2962.00           1389        3232.00     14094.02
   77.56        2962.25           1392        5616.00     24498.38
   77.59        2962.50           1395        7854.00     34271.49
   77.61        2962.75           1399       11657.00     50891.94
   77.64        2963.00           1402       14680.00     64115.36
   77.67        2963.25           1405       17862.00     78045.65
   77.70        2963.50           1409       22329.00     97621.14
   77.73        2963.75           1412       25333.00    110798.40
   77.75        2964.00           1415       27953.00    122299.70
   77.78        2964.25           1419       32445.00    142037.30
   77.81        2964.50           1422       35437.00    155196.90
   77.84        2964.75           1425       37932.00    166178.60
   77.86        2965.00           1429       42542.00    186488.60
   77.89        2965.25           1432       46070.00    202048.40
   77.92        2965.50           1435       49001.00    214986.30
   77.95        2965.75           1439       52905.00    232234.90
   77.98        2966.00           1442       56011.00    245970.50
   78.00        2966.25           1445       58574.00    257313.50
   78.04        2966.50           1449       61785.00    271535.10
   78.07        2966.75           1452       63093.00    277331.80
   78.10        2967.00           1455       63602.00    279588.10
   78.13        2967.25           1459       63429.00    278821.20
   78.15        2967.50           1462       63578.00    279481.80
   78.18        2967.75           1465       63762.00    280297.50
   78.21        2968.00           1469       62051.00    272713.80
   78.24        2968.25           1472       60213.00    264571.10
   78.26        2968.50           1475       57920.00    254418.30
   78.29        2968.75           1479       54038.00    237244.00
   78.32        2969.00           1482       51313.00    225199.00
   78.35        2969.25           1485       48405.00    212354.60
   78.38        2969.50           1489       45175.00    198099.70
   78.41        2969.75           1492       42427.00    185981.60
   78.44        2970.00           1495       39416.00    172713.90
   78.46        2970.25           1499       35562.00    155747.00
   78.49        2970.50           1502       32221.00    141052.50
   78.52        2970.75           1505       28966.00    126748.70
   78.55        2971.00           1509       24874.00    108784.30
   78.58        2971.25           1512       22263.00     97331.75
   78.60        2971.50           1515       19349.00     84559.49
   78.63        2971.75           1519       15314.00     66889.98
   78.66        2972.00           1522       12408.00     54176.04
   78.69        2972.25           1525       10211.00     44570.46
   78.71        2972.50           1529        6442.00     28104.77
   78.74        2972.75           1532        3647.00     15904.71
   78.77        2973.00           1536        1118.00      4873.43
   78.80        2973.25           1539         368.00      1603.39
   78.82        2973.50           1542         185.00       805.60
   78.85        2973.75           1546         159.00       692.26
   78.88        2974.00           1549         143.00       622.51
   78.91        2974.25           1552         137.00       596.35
   78.94        2974.50           1556         117.00       509.16
   78.96        2974.75           1559         125.00       544.04
   78.99        2975.00           1562         119.00       517.88
   79.02        2975.25           1566         112.00       487.37
   79.05        2975.50           1569         104.00       452.49
   79.07        2975.75           1572         106.00       461.21
   79.10        2976.00           1576         107.00       465.57
   79.13        2976.25           1579         103.00       448.13
   79.16        2976.50           1582         101.00       439.41
   79.18        2976.75           1586          95.00       413.26
   79.21        2977.00           1589         104.00       452.49
   79.24        2977.25           1592         113.00       491.72
   79.27        2977.50           1596          99.00       430.69
   79.29        2977.75           1599         111.00       483.01
   79.33        2978.00           1602         107.00       465.57
   79.35        2978.25           1606         107.00       465.57
   79.38        2978.50           1609         103.00       448.13
   79.41        2978.75           1612         100.00       435.05
   79.44        2979.00           1616         106.00       461.21
   79.47        2979.25           1619          93.00       404.54
   79.49        2979.50           1623         105.00       456.85
   79.52        2979.75           1626          98.00       426.34
   79.55        2980.00           1629          98.00       426.34
   79.58        2980.25           1633          98.00       426.34
   79.61        2980.50           1636          98.00       426.34
   79.64        2980.75           1639          93.00       404.54
   79.66        2981.00           1643         104.00       452.49
   79.69        2981.25           1646         104.00       452.49
   79.72        2981.50           1649          99.00       430.69
   79.75        2981.75           1653          90.00       391.46
   79.77        2982.00           1656         101.00       439.41
   79.80        2982.25           1659          94.00       408.90
   79.83        2982.50           1663         102.00       443.77
   79.86        2982.75           1666         104.00       452.49
   79.88        2983.00           1669          96.00       417.62
   79.91        2983.25           1673          94.00       408.90
   79.94        2983.50           1676          99.00       430.69
   79.97        2983.75           1679          93.00       404.54
   79.99        2984.00           1683          95.00       413.26
HS scan finished at 01:20:18
end
