************************************************************
  HS Scan of (1) Internal mercury lamp
************************************************************
Integration time is 0.2294 seconds per sample
dh310518Delft 52.017-4.35 3.018777pr1000
************************************************************
Dead Time -------------------------  2.7E-08 
Number of Cycles Used -------------  4 
Starting Wavelength (Angstroms) ---  2950 
Final Wavelength (Angstoms) -------  2984 
Wavelength Increment (Angstroms) --  .25 
Filter Wheel #1 Position ---------- (1) Ground quartz diffuser (ND=2.32)
Filter Wheel #2 Position ---------- (1) Neutral Density 0.494



************************************************************
HS scan start time = 02:10:16
Dark Count =  .1 


Time (GMT)  Wavelength (Ang)  Step Number  Raw Counts  Counts/Second

  130.72        2950.00           1229         109.00       474.72
  130.82        2950.25           1232         102.00       444.21
  130.85        2950.50           1236         103.00       448.57
  130.88        2950.75           1239         105.00       457.29
  130.91        2951.00           1242         103.00       448.57
  130.93        2951.25           1246         107.00       466.00
  130.96        2951.50           1249         106.00       461.64
  130.99        2951.75           1252          99.00       431.13
  131.02        2952.00           1256          94.00       409.33
  131.05        2952.25           1259          97.00       422.41
  131.08        2952.50           1262         109.00       474.72
  131.10        2952.75           1266         109.00       474.72
  131.13        2953.00           1269         111.00       483.44
  131.16        2953.25           1272         108.00       470.36
  131.19        2953.50           1276          97.00       422.41
  131.22        2953.75           1279          94.00       409.33
  131.25        2954.00           1282         113.00       492.16
  131.28        2954.25           1286         105.00       457.29
  131.31        2954.50           1289         105.00       457.29
  131.34        2954.75           1292         105.00       457.29
  131.36        2955.00           1296          95.00       413.69
  131.39        2955.25           1299         109.00       474.72
  131.42        2955.50           1302         100.00       435.49
  131.45        2955.75           1306         106.00       461.64
  131.48        2956.00           1309         107.00       466.00
  131.51        2956.25           1312         102.00       444.21
  131.54        2956.50           1316         110.00       479.08
  131.57        2956.75           1319         110.00       479.08
  131.59        2957.00           1322         103.00       448.57
  131.62        2957.25           1326         102.00       444.21
  131.65        2957.50           1329         104.00       452.93
  131.68        2957.75           1332          99.00       431.13
  131.71        2958.00           1336         100.00       435.49
  131.74        2958.25           1339          97.00       422.41
  131.77        2958.50           1342          91.00       396.26
  131.80        2958.75           1345         114.00       496.52
  131.82        2959.00           1349         106.00       461.64
  131.85        2959.25           1352         100.00       435.49
  131.88        2959.50           1355         102.00       444.21
  131.91        2959.75           1359         101.00       439.85
  131.94        2960.00           1362         111.00       483.44
  131.97        2960.25           1365         115.00       500.88
  131.99        2960.50           1369         110.00       479.08
  132.02        2960.75           1372         116.00       505.24
  132.05        2961.00           1375         121.00       527.03
  132.08        2961.25           1379         127.00       553.19
  132.11        2961.50           1382         184.00       801.67
  132.14        2961.75           1385         546.00      2379.84
  132.16        2962.00           1389        2275.00      9919.40
  132.19        2962.25           1392        4391.00     19150.70
  132.22        2962.50           1395        7048.00     30748.71
  132.25        2962.75           1399       11086.00     48388.82
  132.28        2963.00           1402       13587.00     59322.93
  132.31        2963.25           1405       16160.00     70578.57
  132.34        2963.50           1409       19769.00     86377.78
  132.36        2963.75           1412       22651.00     99004.06
  132.39        2964.00           1415       25843.00    112998.60
  132.42        2964.25           1419       29583.00    129409.10
  132.45        2964.50           1422       32032.00    140162.80
  132.48        2964.75           1425       34873.00    152645.70
  132.51        2965.00           1429       38734.00    169623.80
  132.53        2965.25           1432       42071.00    184310.30
  132.56        2965.50           1435       44580.00    195360.40
  132.59        2965.75           1439       47962.00    210265.70
  132.62        2966.00           1442       50323.00    220678.50
  132.65        2966.25           1445       53208.00    233410.10
  132.68        2966.50           1449       57071.00    250471.50
  132.70        2966.75           1452       58735.00    257825.60
  132.73        2967.00           1455       59254.00    260120.00
  132.76        2967.25           1459       59432.00    260906.90
  132.79        2967.50           1462       59348.00    260535.50
  132.82        2967.75           1465       59288.00    260270.30
  132.85        2968.00           1469       57994.00    254550.40
  132.87        2968.25           1472       56455.00    247749.80
  132.90        2968.50           1475       54196.00    237772.20
  132.93        2968.75           1479       51423.00    225531.80
  132.96        2969.00           1482       49326.00    216280.70
  132.99        2969.25           1485       46269.00    202802.70
  133.02        2969.50           1489       42690.00    187035.90
  133.05        2969.75           1492       39707.00    173904.90
  133.07        2970.00           1495       36787.00    161060.20
  133.10        2970.25           1499       33399.00    146168.10
  133.13        2970.50           1502       30599.00    133869.70
  133.16        2970.75           1505       27752.00    121373.10
  133.19        2971.00           1509       23827.00    104158.70
  133.21        2971.25           1512       20960.00     91594.59
  133.24        2971.50           1515       18575.00     81149.28
  133.27        2971.75           1519       15333.00     66960.10
  133.30        2972.00           1522       12990.00     56712.32
  133.33        2972.25           1525       10121.00     44171.66
  133.36        2972.50           1529        6175.00     26937.20
  133.38        2972.75           1532        3494.00     15236.87
  133.41        2973.00           1535        1623.00      7075.89
  133.44        2973.25           1539         438.00      1908.99
  133.47        2973.50           1542         199.00       867.06
  133.50        2973.75           1546         144.00       627.30
  133.53        2974.00           1549         129.00       561.91
  133.55        2974.25           1552         127.00       553.19
  133.58        2974.50           1556         107.00       466.00
  133.61        2974.75           1559         108.00       470.36
  133.64        2975.00           1562         104.00       452.93
  133.67        2975.25           1566         102.00       444.21
  133.70        2975.50           1569          88.00       383.18
  133.72        2975.75           1572         100.00       435.49
  133.75        2976.00           1576          94.00       409.33
  133.78        2976.25           1579          96.00       418.05
  133.81        2976.50           1582          90.00       391.90
  133.84        2976.75           1586          96.00       418.05
  133.86        2977.00           1589          98.00       426.77
  133.89        2977.25           1592          97.00       422.41
  133.92        2977.50           1596          91.00       396.26
  133.95        2977.75           1599          98.00       426.77
  133.98        2978.00           1602          91.00       396.26
  134.01        2978.25           1606         102.00       444.21
  134.04        2978.50           1609          93.00       404.97
  134.06        2978.75           1612          90.00       391.90
  134.09        2979.00           1616         102.00       444.21
  134.12        2979.25           1619          91.00       396.26
  134.15        2979.50           1622          90.00       391.90
  134.18        2979.75           1626          91.00       396.26
  134.20        2980.00           1629          94.00       409.33
  134.23        2980.25           1632          99.00       431.13
  134.26        2980.50           1636          90.00       391.90
  134.29        2980.75           1639         108.00       470.36
  134.32        2981.00           1642          97.00       422.41
  134.35        2981.25           1646         100.00       435.49
  134.37        2981.50           1649         102.00       444.21
  134.40        2981.75           1653          91.00       396.26
  134.43        2982.00           1656          86.00       374.46
  134.46        2982.25           1659          90.00       391.90
  134.49        2982.50           1663          81.00       352.66
  134.52        2982.75           1666          90.00       391.90
  134.54        2983.00           1669         100.00       435.49
  134.57        2983.25           1673          93.00       404.97
  134.60        2983.50           1676          96.00       418.05
  134.63        2983.75           1679          88.00       383.18
  134.66        2984.00           1683          97.00       422.41
HS scan finished at 02:14:57
end
