************************************************************
  HS Scan of (1) Internal mercury lamp
************************************************************
Integration time is 0.2294 seconds per sample
dh010617Delft 51.997-4.386 2.696889pr1000
************************************************************
Dead Time -------------------------  3E-08 
Number of Cycles Used -------------  4 
Starting Wavelength (Angstroms) ---  2950 
Final Wavelength (Angstoms) -------  2984 
Wavelength Increment (Angstroms) --  .25 
Filter Wheel #1 Position ---------- (1) Ground quartz diffuser (ND=2.32)
Filter Wheel #2 Position ---------- (1) Neutral Density 0.494



************************************************************
HS scan start time = 01:10:18
Dark Count =  .1 


Time (GMT)  Wavelength (Ang)  Step Number  Raw Counts  Counts/Second

   70.76        2950.00           1229         118.00       513.96
   70.85        2950.25           1232         116.00       505.24
   70.88        2950.50           1236         120.00       522.68
   70.91        2950.75           1239         121.00       527.04
   70.94        2951.00           1242         129.00       561.91
   70.97        2951.25           1246         114.00       496.52
   70.99        2951.50           1249         130.00       566.27
   71.02        2951.75           1252         127.00       553.19
   71.05        2952.00           1255         110.00       479.08
   71.08        2952.25           1259         112.00       487.80
   71.11        2952.50           1262         127.00       553.19
   71.13        2952.75           1265         127.00       553.19
   71.16        2953.00           1269         114.00       496.52
   71.19        2953.25           1272         117.00       509.60
   71.22        2953.50           1275         122.00       531.39
   71.24        2953.75           1279         126.00       548.83
   71.28        2954.00           1282         115.00       500.88
   71.31        2954.25           1285         109.00       474.72
   71.35        2954.50           1289         124.00       540.11
   71.38        2954.75           1292         126.00       548.83
   71.40        2955.00           1295         125.00       544.47
   71.43        2955.25           1299         119.00       518.32
   71.46        2955.50           1302         127.00       553.19
   71.49        2955.75           1305         129.00       561.91
   71.51        2956.00           1309         114.00       496.52
   71.55        2956.25           1312         119.00       518.32
   71.58        2956.50           1315         117.00       509.60
   71.61        2956.75           1319         116.00       505.24
   71.63        2957.00           1322         107.00       466.00
   71.66        2957.25           1325         114.00       496.52
   71.70        2957.50           1329         118.00       513.96
   71.72        2957.75           1332         124.00       540.11
   71.75        2958.00           1335         114.00       496.52
   71.78        2958.25           1339         120.00       522.68
   71.81        2958.50           1342         112.00       487.80
   71.84        2958.75           1345         120.00       522.68
   71.86        2959.00           1349         123.00       535.75
   71.89        2959.25           1352         125.00       544.47
   71.92        2959.50           1355         113.00       492.16
   71.95        2959.75           1359         119.00       518.32
   71.98        2960.00           1362         115.00       500.88
   72.00        2960.25           1365         118.00       513.96
   72.03        2960.50           1369         124.00       540.11
   72.06        2960.75           1372         137.00       596.78
   72.09        2961.00           1375         143.00       622.94
   72.11        2961.25           1379         143.00       622.94
   72.14        2961.50           1382         198.00       862.71
   72.17        2961.75           1385         629.00      2741.73
   72.20        2962.00           1389        2630.00     11468.20
   72.22        2962.25           1392        4698.00     20491.67
   72.25        2962.50           1395        7121.00     31070.36
   72.28        2962.75           1399       11485.00     50140.32
   72.31        2963.00           1402       14140.00     61752.92
   72.34        2963.25           1405       17086.00     74647.81
   72.37        2963.50           1409       21121.00     92325.56
   72.39        2963.75           1412       24275.00    106156.60
   72.42        2964.00           1415       27286.00    119371.40
   72.45        2964.25           1419       30282.00    132530.70
   72.48        2964.50           1422       32834.00    143748.00
   72.51        2964.75           1425       35568.00    155773.80
   72.53        2965.00           1429       39285.00    172137.30
   72.57        2965.25           1432       42187.00    184924.10
   72.60        2965.50           1435       44807.00    196476.80
   72.62        2965.75           1439       48174.00    211335.20
   72.65        2966.00           1442       51048.00    224028.50
   72.68        2966.25           1445       53688.00    235696.90
   72.71        2966.50           1449       57118.00    250869.20
   72.73        2966.75           1452       58960.00    259022.90
   72.76        2967.00           1455       59479.00    261321.00
   72.79        2967.25           1459       59562.00    261688.50
   72.82        2967.50           1462       59780.00    262653.90
   72.84        2967.75           1465       59438.00    261139.40
   72.87        2968.00           1469       58816.00    258385.30
   72.90        2968.25           1472       56822.00    249559.30
   72.93        2968.50           1475       54383.00    238770.10
   72.96        2968.75           1479       51153.00    224492.50
   72.98        2969.00           1482       48497.00    212761.30
   73.01        2969.25           1485       45647.00    200182.50
   73.04        2969.50           1489       41962.00    183932.40
   73.07        2969.75           1492       39832.00    174546.70
   73.09        2970.00           1495       37146.00    162718.70
   73.13        2970.25           1499       33650.00    147336.40
   73.16        2970.50           1502       30762.00    134640.00
   73.19        2970.75           1505       27308.00    119468.00
   73.22        2971.00           1509       23473.00    102638.60
   73.24        2971.25           1512       20828.00     91041.27
   73.27        2971.50           1515       18301.00     79968.87
   73.30        2971.75           1519       14784.00     64570.92
   73.33        2972.00           1522       12099.00     52825.15
   73.36        2972.25           1525        9273.00     40471.52
   73.38        2972.50           1529        5725.00     24974.68
   73.41        2972.75           1532        3565.00     15547.36
   73.44        2973.00           1536        1311.00      5715.45
   73.47        2973.25           1539         547.00      2384.22
   73.49        2973.50           1542         204.00       888.86
   73.52        2973.75           1546         144.00       627.30
   73.55        2974.00           1549         150.00       653.46
   73.58        2974.25           1552         149.00       649.10
   73.61        2974.50           1556         135.00       588.07
   73.63        2974.75           1559         115.00       500.88
   73.66        2975.00           1562         128.00       557.55
   73.69        2975.25           1566         104.00       452.93
   73.72        2975.50           1569         111.00       483.44
   73.75        2975.75           1572         105.00       457.29
   73.78        2976.00           1576         100.00       435.49
   73.80        2976.25           1579         119.00       518.32
   73.83        2976.50           1582         109.00       474.72
   73.86        2976.75           1586         100.00       435.49
   73.89        2977.00           1589         107.00       466.00
   73.92        2977.25           1592         117.00       509.60
   73.94        2977.50           1596         105.00       457.29
   73.97        2977.75           1599         104.00       452.93
   74.00        2978.00           1602         111.00       483.44
   74.03        2978.25           1606         114.00       496.52
   74.05        2978.50           1609         104.00       452.93
   74.08        2978.75           1612         111.00       483.44
   74.11        2979.00           1616         108.00       470.36
   74.14        2979.25           1619          98.00       426.77
   74.16        2979.50           1623         107.00       466.00
   74.19        2979.75           1626         102.00       444.21
   74.22        2980.00           1629          98.00       426.77
   74.25        2980.25           1633         106.00       461.65
   74.27        2980.50           1636         113.00       492.16
   74.30        2980.75           1639         110.00       479.08
   74.33        2981.00           1643         108.00       470.36
   74.36        2981.25           1646         109.00       474.72
   74.39        2981.50           1649         100.00       435.49
   74.41        2981.75           1653         100.00       435.49
   74.44        2982.00           1656         104.00       452.93
   74.47        2982.25           1659          99.00       431.13
   74.49        2982.50           1663         102.00       444.21
   74.52        2982.75           1666          98.00       426.77
   74.55        2983.00           1669         102.00       444.21
   74.58        2983.25           1673         103.00       448.57
   74.61        2983.50           1676          96.00       418.05
   74.63        2983.75           1679         102.00       444.21
   74.66        2984.00           1683         105.00       457.29
HS scan finished at 01:14:58
end
************************************************************
  HS Scan of (1) Internal mercury lamp
************************************************************
Integration time is 0.2294 seconds per sample
dh010617Delft 51.997-4.386 2.696889pr1000
************************************************************
Dead Time -------------------------  3E-08 
Number of Cycles Used -------------  4 
Starting Wavelength (Angstroms) ---  2950 
Final Wavelength (Angstoms) -------  2984 
Wavelength Increment (Angstroms) --  .25 
Filter Wheel #1 Position ---------- (1) Ground quartz diffuser (ND=2.32)
Filter Wheel #2 Position ---------- (1) Neutral Density 0.494



************************************************************
HS scan start time = 01:36:38
Dark Count =  0 


Time (GMT)  Wavelength (Ang)  Step Number  Raw Counts  Counts/Second

   97.07        2950.00           1229         119.00       518.75
   97.17        2950.25           1232         133.00       579.78
   97.20        2950.50           1236         123.00       536.19
   97.23        2950.75           1239         137.00       597.22
   97.26        2951.00           1242         123.00       536.19
   97.29        2951.25           1246         131.00       571.06
   97.32        2951.50           1249         124.00       540.55
   97.34        2951.75           1252         134.00       584.14
   97.37        2952.00           1255         122.00       531.83
   97.40        2952.25           1259         132.00       575.42
   97.43        2952.50           1262         130.00       566.71
   97.46        2952.75           1265         131.00       571.06
   97.48        2953.00           1269         130.00       566.71
   97.51        2953.25           1272         119.00       518.75
   97.54        2953.50           1275         127.00       553.63
   97.57        2953.75           1279         127.00       553.63
   97.59        2954.00           1282         124.00       540.55
   97.62        2954.25           1285         122.00       531.83
   97.65        2954.50           1289         126.00       549.27
   97.68        2954.75           1292         117.00       510.03
   97.71        2955.00           1295         130.00       566.71
   97.73        2955.25           1299         120.00       523.11
   97.76        2955.50           1302         124.00       540.55
   97.79        2955.75           1305         120.00       523.11
   97.82        2956.00           1309         120.00       523.11
   97.85        2956.25           1312         121.00       527.47
   97.88        2956.50           1315         120.00       523.11
   97.91        2956.75           1319         121.00       527.47
   97.94        2957.00           1322         120.00       523.11
   97.97        2957.25           1325         125.00       544.91
   97.99        2957.50           1329         125.00       544.91
   98.02        2957.75           1332         113.00       492.60
   98.05        2958.00           1335         125.00       544.91
   98.08        2958.25           1339         116.00       505.67
   98.10        2958.50           1342         128.00       557.99
   98.13        2958.75           1345         122.00       531.83
   98.16        2959.00           1349         122.00       531.83
   98.19        2959.25           1352         129.00       562.35
   98.21        2959.50           1355         119.00       518.75
   98.24        2959.75           1359         119.00       518.75
   98.27        2960.00           1362         120.00       523.11
   98.30        2960.25           1365         119.00       518.75
   98.33        2960.50           1369         130.00       566.71
   98.36        2960.75           1372         138.00       601.58
   98.39        2961.00           1375         133.00       579.78
   98.42        2961.25           1379         147.00       640.81
   98.44        2961.50           1382         197.00       858.78
   98.47        2961.75           1385         635.00      2768.32
   98.50        2962.00           1389        2242.00      9776.19
   98.53        2962.25           1392        4122.00     17978.31
   98.55        2962.50           1395        6178.00     26952.91
   98.58        2962.75           1399        9349.00     40804.06
   98.61        2963.00           1402       11822.00     51614.30
   98.64        2963.25           1405       13896.00     60685.80
   98.67        2963.50           1409       16776.00     73290.88
   98.69        2963.75           1412       19089.00     83421.25
   98.72        2964.00           1415       21392.00     93513.94
   98.75        2964.25           1419       24968.00    109197.60
   98.78        2964.50           1422       27048.00    118326.90
   98.81        2964.75           1425       29113.00    127395.30
   98.83        2965.00           1429       32126.00    140635.70
   98.86        2965.25           1432       34507.00    151106.30
   98.89        2965.50           1435       36991.00    162036.90
   98.92        2965.75           1439       40233.00    176313.70
   98.95        2966.00           1442       42091.00    184501.40
   98.97        2966.25           1445       43756.00    191842.00
   99.00        2966.50           1449       46736.00    204988.20
   99.03        2966.75           1452       48283.00    211816.90
   99.06        2967.00           1455       48657.00    213468.20
   99.08        2967.25           1459       48879.00    214448.50
   99.11        2967.50           1462       48715.00    213724.30
   99.14        2967.75           1465       48762.00    213931.80
   99.17        2968.00           1469       47659.00    209062.10
   99.19        2968.25           1472       46125.00    202292.00
   99.22        2968.50           1475       44205.00    193822.10
   99.25        2968.75           1479       41639.00    182509.20
   99.28        2969.00           1482       39710.00    174009.80
   99.31        2969.25           1485       37512.00    164330.40
   99.33        2969.50           1489       34458.00    150890.80
   99.36        2969.75           1492       32138.00    140688.50
   99.39        2970.00           1495       29771.00    130285.90
   99.42        2970.25           1499       26974.00    118002.00
   99.45        2970.50           1502       24730.00    108153.30
   99.47        2970.75           1505       22245.00     97253.69
   99.50        2971.00           1509       19295.00     84323.78
   99.53        2971.25           1512       16889.00     73785.65
   99.56        2971.50           1515       14770.00     64510.08
   99.58        2971.75           1519       12210.00     53311.01
   99.61        2972.00           1522       10001.00     43653.48
   99.64        2972.25           1525        8283.00     36146.41
   99.67        2972.50           1529        5005.00     21832.08
   99.69        2972.75           1532        2732.00     11913.59
   99.72        2973.00           1536         785.00      3422.32
   99.75        2973.25           1539         314.00      1368.84
   99.78        2973.50           1542         173.00       754.16
   99.81        2973.75           1546         156.00       680.05
   99.84        2974.00           1549         138.00       601.58
   99.86        2974.25           1552         123.00       536.19
   99.89        2974.50           1556         123.00       536.19
   99.92        2974.75           1559         111.00       483.88
   99.95        2975.00           1562         115.00       501.32
   99.98        2975.25           1566         112.00       488.24
  100.00        2975.50           1569         120.00       523.11
  100.03        2975.75           1572         108.00       470.80
  100.06        2976.00           1576         111.00       483.88
  100.09        2976.25           1579         104.00       453.36
  100.11        2976.50           1582         112.00       488.24
  100.14        2976.75           1586         109.00       475.16
  100.17        2977.00           1589         109.00       475.16
  100.20        2977.25           1592         105.00       457.72
  100.22        2977.50           1596         104.00       453.36
  100.25        2977.75           1599         101.00       440.28
  100.28        2978.00           1602         100.00       435.93
  100.31        2978.25           1606         111.00       483.88
  100.33        2978.50           1609         111.00       483.88
  100.36        2978.75           1612         102.00       444.64
  100.39        2979.00           1616         103.00       449.00
  100.42        2979.25           1619         109.00       475.16
  100.45        2979.50           1623         101.00       440.28
  100.48        2979.75           1626         117.00       510.03
  100.51        2980.00           1629         102.00       444.64
  100.53        2980.25           1633          97.00       422.85
  100.56        2980.50           1636          96.00       418.49
  100.59        2980.75           1639         120.00       523.11
  100.62        2981.00           1643          96.00       418.49
  100.65        2981.25           1646         104.00       453.36
  100.68        2981.50           1649          99.00       431.57
  100.70        2981.75           1653          92.00       401.05
  100.73        2982.00           1656         105.00       457.72
  100.76        2982.25           1659         106.00       462.08
  100.79        2982.50           1663         105.00       457.72
  100.81        2982.75           1666          96.00       418.49
  100.84        2983.00           1669         101.00       440.28
  100.87        2983.25           1673          97.00       422.85
  100.90        2983.50           1676         109.00       475.16
  100.93        2983.75           1679          97.00       422.85
  100.96        2984.00           1683          94.00       409.77
HS scan finished at 01:41:15
end
