************************************************************
  HS Scan of (1) Internal mercury lamp
************************************************************
Integration time is 0.2294 seconds per sample
dh170617Delft 51.997-4.386 2.911481pr1000
************************************************************
Dead Time -------------------------  3E-08 
Number of Cycles Used -------------  4 
Starting Wavelength (Angstroms) ---  2950 
Final Wavelength (Angstoms) -------  2984 
Wavelength Increment (Angstroms) --  .25 
Filter Wheel #1 Position ---------- (1) Ground quartz diffuser (ND=2.32)
Filter Wheel #2 Position ---------- (1) Neutral Density 0.494



************************************************************
HS scan start time = 01:16:04
Dark Count =  .1 


Time (GMT)  Wavelength (Ang)  Step Number  Raw Counts  Counts/Second

   76.51        2950.00           1229         124.00       540.11
   76.61        2950.25           1232         110.00       479.08
   76.64        2950.50           1236         115.00       500.88
   76.66        2950.75           1239         127.00       553.19
   76.69        2951.00           1242         121.00       527.04
   76.72        2951.25           1246         124.00       540.11
   76.75        2951.50           1249         120.00       522.68
   76.77        2951.75           1252         118.00       513.96
   76.80        2952.00           1255         118.00       513.96
   76.83        2952.25           1259         120.00       522.68
   76.86        2952.50           1262         113.00       492.16
   76.89        2952.75           1265         130.00       566.27
   76.91        2953.00           1269         127.00       553.19
   76.94        2953.25           1272         114.00       496.52
   76.97        2953.50           1275         115.00       500.88
   77.00        2953.75           1279         119.00       518.32
   77.02        2954.00           1282         116.00       505.24
   77.05        2954.25           1285         114.00       496.52
   77.08        2954.50           1289         122.00       531.39
   77.11        2954.75           1292         116.00       505.24
   77.13        2955.00           1295         121.00       527.04
   77.16        2955.25           1299         103.00       448.57
   77.19        2955.50           1302         118.00       513.96
   77.22        2955.75           1305         116.00       505.24
   77.24        2956.00           1309         103.00       448.57
   77.27        2956.25           1312         118.00       513.96
   77.30        2956.50           1315         116.00       505.24
   77.33        2956.75           1319         116.00       505.24
   77.36        2957.00           1322         110.00       479.08
   77.38        2957.25           1325         117.00       509.60
   77.41        2957.50           1329         115.00       500.88
   77.44        2957.75           1332         115.00       500.88
   77.47        2958.00           1335         116.00       505.24
   77.49        2958.25           1339         104.00       452.93
   77.52        2958.50           1342         111.00       483.44
   77.55        2958.75           1345         118.00       513.96
   77.58        2959.00           1349         116.00       505.24
   77.60        2959.25           1352         119.00       518.32
   77.63        2959.50           1355         114.00       496.52
   77.66        2959.75           1359         115.00       500.88
   77.69        2960.00           1362         124.00       540.11
   77.71        2960.25           1365         120.00       522.68
   77.74        2960.50           1369         133.00       579.35
   77.77        2960.75           1372         123.00       535.75
   77.80        2961.00           1375         131.00       570.63
   77.83        2961.25           1379         136.00       592.43
   77.85        2961.50           1382         193.00       840.91
   77.88        2961.75           1385         725.00      3160.28
   77.91        2962.00           1389        3041.00     13261.16
   77.94        2962.25           1392        5485.00     23926.94
   77.96        2962.50           1395        7742.00     33782.70
   77.99        2962.75           1399       11309.00     49370.81
   78.02        2963.00           1402       14272.00     62330.49
   78.05        2963.25           1405       17368.00     75882.66
   78.07        2963.50           1409       22029.00     96306.18
   78.10        2963.75           1412       24933.00    109043.60
   78.13        2964.00           1415       27434.00    120021.20
   78.16        2964.25           1419       31112.00    136178.10
   78.19        2964.50           1422       34522.00    151171.80
   78.21        2964.75           1425       37401.00    163841.30
   78.24        2965.00           1429       41497.00    181882.90
   78.27        2965.25           1432       45119.00    197853.10
   78.30        2965.50           1435       47704.00    209260.30
   78.32        2965.75           1439       51625.00    226578.10
   78.35        2966.00           1442       54628.00    239853.50
   78.38        2966.25           1445       57469.00    252422.60
   78.41        2966.50           1449       60435.00    265554.90
   78.44        2966.75           1452       61875.00    271934.40
   78.46        2967.00           1455       62167.00    273228.30
   78.49        2967.25           1459       62243.00    273565.10
   78.52        2967.50           1462       62521.00    274797.10
   78.55        2967.75           1465       62219.00    273458.70
   78.57        2968.00           1469       60894.00    267588.10
   78.60        2968.25           1472       59118.00    259722.50
   78.63        2968.50           1475       56754.00    249258.40
   78.66        2968.75           1479       53027.00    232774.60
   78.68        2969.00           1482       50571.00    221921.20
   78.71        2969.25           1485       47178.00    206938.50
   78.74        2969.50           1489       44094.00    193332.10
   78.77        2969.75           1492       41772.00    183094.90
   78.80        2970.00           1495       38912.00    170494.50
   78.82        2970.25           1499       35012.00    153327.50
   78.85        2970.50           1502       31746.00    138964.80
   78.88        2970.75           1505       28556.00    124948.30
   78.91        2971.00           1509       24469.00    107007.80
   78.93        2971.25           1512       21690.00     94819.91
   78.96        2971.50           1515       19029.00     83157.95
   78.99        2971.75           1519       15090.00     65910.06
   79.02        2972.00           1522       12043.00     52580.27
   79.05        2972.25           1525        9653.00     42132.13
   79.08        2972.50           1529        6345.00     27681.66
   79.11        2972.75           1532        3753.00     16367.67
   79.13        2973.00           1536        1175.00      5122.41
   79.16        2973.25           1539         401.00      1747.69
   79.19        2973.50           1542         203.00       884.50
   79.21        2973.75           1546         142.00       618.58
   79.24        2974.00           1549         141.00       614.22
   79.27        2974.25           1552         133.00       579.35
   79.30        2974.50           1556         125.00       544.47
   79.33        2974.75           1559         111.00       483.44
   79.35        2975.00           1562         112.00       487.80
   79.39        2975.25           1566         122.00       531.39
   79.42        2975.50           1569         115.00       500.88
   79.44        2975.75           1572         115.00       500.88
   79.47        2976.00           1576         111.00       483.44
   79.50        2976.25           1579         108.00       470.36
   79.53        2976.50           1582         104.00       452.93
   79.55        2976.75           1586         104.00       452.93
   79.58        2977.00           1589         101.00       439.85
   79.61        2977.25           1592         111.00       483.44
   79.64        2977.50           1596         101.00       439.85
   79.66        2977.75           1599         109.00       474.72
   79.70        2978.00           1602         106.00       461.65
   79.73        2978.25           1606         113.00       492.16
   79.76        2978.50           1609         102.00       444.21
   79.79        2978.75           1612         100.00       435.49
   79.81        2979.00           1616         110.00       479.08
   79.84        2979.25           1619         104.00       452.93
   79.87        2979.50           1623         100.00       435.49
   79.90        2979.75           1626          96.00       418.05
   79.93        2980.00           1629         103.00       448.57
   79.96        2980.25           1633         109.00       474.72
   79.98        2980.50           1636         102.00       444.21
   80.01        2980.75           1639         103.00       448.57
   80.04        2981.00           1643         109.00       474.72
   80.07        2981.25           1646          99.00       431.13
   80.09        2981.50           1649          91.00       396.26
   80.12        2981.75           1653         108.00       470.36
   80.15        2982.00           1656          98.00       426.77
   80.18        2982.25           1659         108.00       470.36
   80.20        2982.50           1663         106.00       461.65
   80.24        2982.75           1666          87.00       378.82
   80.26        2983.00           1669          99.00       431.13
   80.29        2983.25           1673         100.00       435.49
   80.32        2983.50           1676         105.00       457.29
   80.35        2983.75           1679         101.00       439.85
   80.38        2984.00           1683         103.00       448.57
HS scan finished at 01:20:40
end
