************************************************************
  HS Scan of (1) Internal mercury lamp
************************************************************
Integration time is 0.2294 seconds per sample
dh150617Delft 51.997-4.386 2.911481pr1000
************************************************************
Dead Time -------------------------  3E-08 
Number of Cycles Used -------------  4 
Starting Wavelength (Angstroms) ---  2950 
Final Wavelength (Angstoms) -------  2984 
Wavelength Increment (Angstroms) --  .25 
Filter Wheel #1 Position ---------- (1) Ground quartz diffuser (ND=2.32)
Filter Wheel #2 Position ---------- (1) Neutral Density 0.494



************************************************************
HS scan start time = 01:21:35
Dark Count =  .2 


Time (GMT)  Wavelength (Ang)  Step Number  Raw Counts  Counts/Second

   82.03        2950.00           1229         115.00       500.44
   82.13        2950.25           1232         119.00       517.88
   82.16        2950.50           1236         123.00       535.32
   82.19        2950.75           1239         129.00       561.47
   82.22        2951.00           1242         124.00       539.68
   82.25        2951.25           1246         119.00       517.88
   82.27        2951.50           1249         125.00       544.04
   82.30        2951.75           1252         126.00       548.40
   82.33        2952.00           1255         112.00       487.37
   82.36        2952.25           1259         117.00       509.16
   82.39        2952.50           1262         117.00       509.16
   82.42        2952.75           1265         118.00       513.52
   82.44        2953.00           1269         118.00       513.52
   82.47        2953.25           1272         131.00       570.19
   82.50        2953.50           1275         109.00       474.29
   82.53        2953.75           1279         123.00       535.32
   82.55        2954.00           1282         126.00       548.40
   82.59        2954.25           1285         115.00       500.44
   82.62        2954.50           1289         125.00       544.04
   82.65        2954.75           1292         122.00       530.96
   82.68        2955.00           1295         114.00       496.08
   82.70        2955.25           1299         117.00       509.16
   82.73        2955.50           1302         109.00       474.29
   82.76        2955.75           1305         112.00       487.37
   82.79        2956.00           1309         119.00       517.88
   82.81        2956.25           1312         116.00       504.80
   82.84        2956.50           1315         119.00       517.88
   82.87        2956.75           1319         121.00       526.60
   82.90        2957.00           1322         110.00       478.65
   82.92        2957.25           1325         117.00       509.16
   82.95        2957.50           1329         128.00       557.11
   82.98        2957.75           1332         118.00       513.52
   83.01        2958.00           1335         109.00       474.29
   83.03        2958.25           1339         118.00       513.52
   83.06        2958.50           1342         124.00       539.68
   83.09        2958.75           1345         102.00       443.77
   83.12        2959.00           1349         116.00       504.80
   83.15        2959.25           1352         105.00       456.85
   83.17        2959.50           1355         112.00       487.37
   83.20        2959.75           1359         116.00       504.80
   83.23        2960.00           1362         114.00       496.08
   83.26        2960.25           1365         116.00       504.80
   83.28        2960.50           1369         118.00       513.52
   83.31        2960.75           1372         131.00       570.19
   83.34        2961.00           1375         137.00       596.35
   83.37        2961.25           1379         151.00       657.38
   83.39        2961.50           1382         241.00      1049.73
   83.42        2961.75           1385         857.00      3735.38
   83.45        2962.00           1389        2615.00     11402.33
   83.48        2962.25           1392        4734.00     20648.36
   83.51        2962.50           1395        7360.00     32113.75
   83.53        2962.75           1399       11884.00     51884.53
   83.56        2963.00           1402       14656.00     64010.34
   83.59        2963.25           1405       17294.00     75558.18
   83.62        2963.50           1409       21473.00     93868.16
   83.64        2963.75           1412       24722.00    108117.40
   83.67        2964.00           1415       28099.00    122940.80
   83.71        2964.25           1419       32155.00    140762.30
   83.73        2964.50           1422       34986.00    153212.60
   83.76        2964.75           1425       37572.00    164593.70
   83.79        2965.00           1429       41667.00    182631.70
   83.82        2965.25           1432       44857.00    196697.00
   83.85        2965.50           1435       47657.00    209052.40
   83.88        2965.75           1439       52127.00    228796.10
   83.91        2966.00           1442       55309.00    242865.10
   83.93        2966.25           1445       58141.00    255396.60
   83.96        2966.50           1449       61132.00    268642.00
   83.99        2966.75           1452       62512.00    274756.80
   84.02        2967.00           1455       62858.00    276290.20
   84.04        2967.25           1459       62857.00    276285.80
   84.07        2967.50           1462       63229.00    277934.70
   84.10        2967.75           1465       62756.00    275838.20
   84.13        2968.00           1469       61633.00    270861.70
   84.15        2968.25           1472       59819.00    262826.20
   84.18        2968.50           1475       57144.00    250983.90
   84.21        2968.75           1479       53609.00    235347.20
   84.24        2969.00           1482       50938.00    223542.10
   84.27        2969.25           1485       47749.00    209458.60
   84.29        2969.50           1489       43746.00    191797.00
   84.32        2969.75           1492       41097.00    180119.80
   84.35        2970.00           1495       38445.00    168437.50
   84.38        2970.25           1499       35001.00    153278.60
   84.40        2970.50           1502       32026.00    140195.20
   84.43        2970.75           1505       28860.00    126283.10
   84.46        2971.00           1509       25078.00    109679.40
   84.49        2971.25           1512       22096.00     96599.50
   84.52        2971.50           1515       19099.00     83464.18
   84.54        2971.75           1519       15182.00     66312.26
   84.57        2972.00           1522       12757.00     55702.43
   84.60        2972.25           1525        9894.00     43184.95
   84.63        2972.50           1529        5869.00     25602.92
   84.66        2972.75           1532        3417.00     14901.17
   84.68        2973.00           1536        1337.00      5828.40
   84.71        2973.25           1539         524.00      2283.50
   84.74        2973.50           1542         231.00      1006.13
   84.77        2973.75           1546         157.00       683.54
   84.79        2974.00           1549         133.00       578.91
   84.82        2974.25           1552         128.00       557.11
   84.85        2974.50           1556         126.00       548.40
   84.88        2974.75           1559         119.00       517.88
   84.90        2975.00           1562         123.00       535.32
   84.93        2975.25           1566         110.00       478.65
   84.96        2975.50           1569         105.00       456.85
   84.99        2975.75           1572         106.00       461.21
   85.01        2976.00           1576         107.00       465.57
   85.04        2976.25           1579         100.00       435.05
   85.07        2976.50           1582         107.00       465.57
   85.10        2976.75           1586         111.00       483.01
   85.12        2977.00           1589         104.00       452.49
   85.15        2977.25           1592         111.00       483.01
   85.18        2977.50           1596         102.00       443.77
   85.21        2977.75           1599         112.00       487.37
   85.23        2978.00           1602         103.00       448.13
   85.26        2978.25           1606         102.00       443.77
   85.29        2978.50           1609         110.00       478.65
   85.32        2978.75           1612         102.00       443.77
   85.35        2979.00           1616         111.00       483.01
   85.38        2979.25           1619          97.00       421.98
   85.41        2979.50           1623         103.00       448.13
   85.44        2979.75           1626         106.00       461.21
   85.47        2980.00           1629          95.00       413.26
   85.50        2980.25           1633         103.00       448.13
   85.53        2980.50           1636         112.00       487.37
   85.55        2980.75           1639         100.00       435.05
   85.58        2981.00           1643         105.00       456.85
   85.61        2981.25           1646          98.00       426.34
   85.64        2981.50           1649         110.00       478.65
   85.68        2981.75           1653          98.00       426.34
   85.70        2982.00           1656         107.00       465.57
   85.73        2982.25           1659         103.00       448.13
   85.76        2982.50           1663         101.00       439.41
   85.79        2982.75           1666         101.00       439.41
   85.81        2983.00           1669         100.00       435.05
   85.84        2983.25           1673         100.00       435.05
   85.87        2983.50           1676         102.00       443.77
   85.90        2983.75           1679          95.00       413.26
   85.92        2984.00           1683          94.00       408.90
HS scan finished at 01:26:13
end
