************************************************************
  HS Scan of (1) Internal mercury lamp
************************************************************
Integration time is 0.2294 seconds per sample
dh120617Delft 51.997-4.386 2.857833pr1000
************************************************************
Dead Time -------------------------  3E-08 
Number of Cycles Used -------------  4 
Starting Wavelength (Angstroms) ---  2950 
Final Wavelength (Angstoms) -------  2984 
Wavelength Increment (Angstroms) --  .25 
Filter Wheel #1 Position ---------- (1) Ground quartz diffuser (ND=2.32)
Filter Wheel #2 Position ---------- (1) Neutral Density 0.494



************************************************************
HS scan start time = 01:24:19
Dark Count =  .1 


Time (GMT)  Wavelength (Ang)  Step Number  Raw Counts  Counts/Second

   84.77        2950.00           1229         119.00       518.32
   84.87        2950.25           1232         117.00       509.60
   84.89        2950.50           1236         124.00       540.11
   84.92        2950.75           1239         128.00       557.55
   84.95        2951.00           1242         117.00       509.60
   84.98        2951.25           1246         122.00       531.39
   85.01        2951.50           1249         124.00       540.11
   85.03        2951.75           1252         117.00       509.60
   85.06        2952.00           1255         128.00       557.55
   85.09        2952.25           1259         121.00       527.04
   85.12        2952.50           1262         121.00       527.04
   85.14        2952.75           1265         124.00       540.11
   85.17        2953.00           1269         122.00       531.39
   85.20        2953.25           1272         130.00       566.27
   85.23        2953.50           1275         117.00       509.60
   85.26        2953.75           1279         112.00       487.80
   85.28        2954.00           1282         117.00       509.60
   85.31        2954.25           1285         115.00       500.88
   85.34        2954.50           1289         117.00       509.60
   85.37        2954.75           1292         130.00       566.27
   85.39        2955.00           1295         116.00       505.24
   85.42        2955.25           1299         128.00       557.55
   85.45        2955.50           1302         121.00       527.04
   85.48        2955.75           1305         122.00       531.39
   85.51        2956.00           1309         119.00       518.32
   85.54        2956.25           1312         124.00       540.11
   85.57        2956.50           1315         124.00       540.11
   85.59        2956.75           1319         121.00       527.04
   85.62        2957.00           1322         109.00       474.72
   85.65        2957.25           1325         114.00       496.52
   85.68        2957.50           1329         113.00       492.16
   85.70        2957.75           1332         124.00       540.11
   85.73        2958.00           1335         122.00       531.39
   85.76        2958.25           1339         119.00       518.32
   85.79        2958.50           1342         111.00       483.44
   85.82        2958.75           1345         109.00       474.72
   85.85        2959.00           1349         113.00       492.16
   85.87        2959.25           1352         123.00       535.75
   85.90        2959.50           1355         115.00       500.88
   85.93        2959.75           1359         117.00       509.60
   85.96        2960.00           1362         114.00       496.52
   85.98        2960.25           1365         113.00       492.16
   86.01        2960.50           1369         117.00       509.60
   86.04        2960.75           1372         128.00       557.55
   86.07        2961.00           1375         141.00       614.22
   86.10        2961.25           1379         148.00       644.74
   86.13        2961.50           1382         222.00       967.33
   86.15        2961.75           1385         643.00      2802.76
   86.18        2962.00           1389        2808.00     12244.69
   86.21        2962.25           1392        5123.00     22346.71
   86.24        2962.50           1395        7310.00     31895.81
   86.26        2962.75           1399       10843.00     47333.52
   86.30        2963.00           1402       13624.00     59495.38
   86.33        2963.25           1405       16769.00     73259.80
   86.36        2963.50           1409       21008.00     91830.24
   86.39        2963.75           1412       23994.00    104923.90
   86.41        2964.00           1415       26654.00    116596.80
   86.44        2964.25           1419       30269.00    132473.60
   86.47        2964.50           1422       33364.00    146078.60
   86.50        2964.75           1425       36078.00    158018.00
   86.53        2965.00           1429       40247.00    176375.00
   86.55        2965.25           1432       43516.00    190783.30
   86.58        2965.50           1435       46329.00    203191.70
   86.61        2965.75           1439       50084.00    219769.80
   86.64        2966.00           1442       52978.00    232558.00
   86.66        2966.25           1445       55946.00    245683.40
   86.69        2966.50           1449       58855.00    258558.00
   86.72        2966.75           1452       59919.00    263269.50
   86.75        2967.00           1455       60496.00    265825.10
   86.78        2967.25           1459       60561.00    266113.00
   86.80        2967.50           1462       60707.00    266759.70
   86.83        2967.75           1465       60456.00    265647.90
   86.86        2968.00           1469       59192.00    260050.10
   86.89        2968.25           1472       57790.00    253843.40
   86.91        2968.50           1475       55440.00    243445.00
   86.94        2968.75           1479       51943.00    227983.40
   86.97        2969.00           1482       49111.00    215472.50
   87.00        2969.25           1485       46139.00    202353.30
   87.03        2969.50           1489       43268.00    189689.80
   87.05        2969.75           1492       40633.00    178075.60
   87.08        2970.00           1495       37705.00    165179.60
   87.11        2970.25           1499       34232.00    149896.20
   87.14        2970.50           1502       31068.00    135984.80
   87.17        2970.75           1505       27799.00    121623.90
   87.20        2971.00           1509       23913.00    104568.60
   87.23        2971.25           1512       21236.00     92829.66
   87.26        2971.50           1515       18653.00     81510.77
   87.29        2971.75           1519       14721.00     64295.22
   87.32        2972.00           1522       11882.00     51876.23
   87.35        2972.25           1525        9533.00     41607.70
   87.37        2972.50           1529        6296.00     27467.70
   87.40        2972.75           1532        3784.00     16502.94
   87.43        2973.00           1536        1284.00      5597.71
   87.46        2973.25           1539         414.00      1804.37
   87.49        2973.50           1542         193.00       840.91
   87.52        2973.75           1546         157.00       683.97
   87.54        2974.00           1549         154.00       670.89
   87.57        2974.25           1552         139.00       605.50
   87.60        2974.50           1556         133.00       579.35
   87.63        2974.75           1559         123.00       535.75
   87.65        2975.00           1562         113.00       492.16
   87.68        2975.25           1566         127.00       553.19
   87.71        2975.50           1569         106.00       461.65
   87.74        2975.75           1572         110.00       479.08
   87.76        2976.00           1576         105.00       457.29
   87.79        2976.25           1579         111.00       483.44
   87.82        2976.50           1582         109.00       474.72
   87.85        2976.75           1586         109.00       474.72
   87.87        2977.00           1589         102.00       444.21
   87.90        2977.25           1592         109.00       474.72
   87.93        2977.50           1596         106.00       461.65
   87.96        2977.75           1599         101.00       439.85
   87.98        2978.00           1602         105.00       457.29
   88.01        2978.25           1606         104.00       452.93
   88.04        2978.50           1609         104.00       452.93
   88.07        2978.75           1612         106.00       461.65
   88.09        2979.00           1616         105.00       457.29
   88.12        2979.25           1619         103.00       448.57
   88.15        2979.50           1623          94.00       409.33
   88.18        2979.75           1626         106.00       461.65
   88.21        2980.00           1629          99.00       431.13
   88.23        2980.25           1633         100.00       435.49
   88.26        2980.50           1636          96.00       418.05
   88.29        2980.75           1639         108.00       470.36
   88.32        2981.00           1643         111.00       483.44
   88.35        2981.25           1646          93.00       404.97
   88.38        2981.50           1649         104.00       452.93
   88.40        2981.75           1653         100.00       435.49
   88.43        2982.00           1656          91.00       396.26
   88.46        2982.25           1659         105.00       457.29
   88.49        2982.50           1663         104.00       452.93
   88.51        2982.75           1666         102.00       444.21
   88.54        2983.00           1669          92.00       400.62
   88.57        2983.25           1673          96.00       418.05
   88.60        2983.50           1676          97.00       422.41
   88.63        2983.75           1679          97.00       422.41
   88.66        2984.00           1683         101.00       439.85
HS scan finished at 01:28:58
end
