************************************************************
  HS Scan of (1) Internal mercury lamp
************************************************************
Integration time is 0.2294 seconds per sample
dh130617Delft 51.997-4.386 2.857833pr1000
************************************************************
Dead Time -------------------------  3E-08 
Number of Cycles Used -------------  4 
Starting Wavelength (Angstroms) ---  2950 
Final Wavelength (Angstoms) -------  2984 
Wavelength Increment (Angstroms) --  .25 
Filter Wheel #1 Position ---------- (1) Ground quartz diffuser (ND=2.32)
Filter Wheel #2 Position ---------- (1) Neutral Density 0.494



************************************************************
HS scan start time = 01:11:02
Dark Count =  0 


Time (GMT)  Wavelength (Ang)  Step Number  Raw Counts  Counts/Second

   71.49        2950.00           1229         125.00       544.91
   71.59        2950.25           1232         113.00       492.60
   71.61        2950.50           1236         118.00       514.39
   71.64        2950.75           1239         120.00       523.11
   71.67        2951.00           1242         110.00       479.52
   71.70        2951.25           1246         120.00       523.11
   71.72        2951.50           1249         110.00       479.52
   71.75        2951.75           1252         128.00       557.99
   71.78        2952.00           1255         130.00       566.71
   71.81        2952.25           1259         118.00       514.39
   71.84        2952.50           1262         126.00       549.27
   71.86        2952.75           1265         117.00       510.03
   71.89        2953.00           1269         118.00       514.39
   71.92        2953.25           1272         117.00       510.03
   71.95        2953.50           1275         125.00       544.91
   71.97        2953.75           1279         110.00       479.52
   72.00        2954.00           1282         112.00       488.24
   72.03        2954.25           1285         117.00       510.03
   72.06        2954.50           1289         127.00       553.63
   72.08        2954.75           1292         117.00       510.03
   72.11        2955.00           1295         120.00       523.11
   72.14        2955.25           1299         109.00       475.16
   72.17        2955.50           1302         106.00       462.08
   72.19        2955.75           1305         118.00       514.39
   72.22        2956.00           1309         119.00       518.75
   72.25        2956.25           1312         112.00       488.24
   72.28        2956.50           1315         115.00       501.32
   72.31        2956.75           1319         124.00       540.55
   72.33        2957.00           1322         119.00       518.75
   72.36        2957.25           1325         120.00       523.11
   72.39        2957.50           1329         104.00       453.36
   72.42        2957.75           1332         125.00       544.91
   72.45        2958.00           1335         110.00       479.52
   72.48        2958.25           1339         116.00       505.67
   72.50        2958.50           1342         118.00       514.39
   72.53        2958.75           1345         107.00       466.44
   72.56        2959.00           1349         119.00       518.75
   72.59        2959.25           1352         112.00       488.24
   72.61        2959.50           1355         113.00       492.60
   72.64        2959.75           1359         115.00       501.32
   72.67        2960.00           1362         110.00       479.52
   72.70        2960.25           1365         129.00       562.35
   72.72        2960.50           1369         114.00       496.96
   72.75        2960.75           1372         125.00       544.91
   72.78        2961.00           1375         136.00       592.86
   72.81        2961.25           1379         149.00       649.53
   72.83        2961.50           1382         222.00       967.77
   72.86        2961.75           1385         886.00      3862.70
   72.89        2962.00           1389        3003.00     13095.82
   72.92        2962.25           1392        4879.00     21282.11
   72.95        2962.50           1395        7220.00     31503.17
   72.97        2962.75           1399       11016.00     48090.26
   73.00        2963.00           1402       13938.00     60869.56
   73.03        2963.25           1405       17172.00     75024.82
   73.06        2963.50           1409       21209.00     92711.74
   73.08        2963.75           1412       23964.00    104792.70
   73.11        2964.00           1415       26672.00    116676.20
   73.14        2964.25           1419       30838.00    134974.40
   73.17        2964.50           1422       33903.00    148449.60
   73.19        2964.75           1425       37114.00    162578.30
   73.22        2965.00           1429       40266.00    176459.10
   73.25        2965.25           1432       43014.00    188570.30
   73.28        2965.50           1435       46084.00    202111.00
   73.31        2965.75           1439       50049.00    219615.70
   73.34        2966.00           1442       52479.00    230352.80
   73.37        2966.25           1445       55736.00    244754.80
   73.40        2966.50           1449       59177.00    259984.10
   73.42        2966.75           1452       60791.00    267132.20
   73.45        2967.00           1455       61058.00    268315.00
   73.48        2967.25           1459       61096.00    268483.40
   73.51        2967.50           1462       61115.00    268567.50
   73.53        2967.75           1465       61062.00    268332.80
   73.57        2968.00           1469       59792.00    262707.50
   73.60        2968.25           1472       58106.00    255242.60
   73.62        2968.50           1475       56041.00    246104.10
   73.65        2968.75           1479       51892.00    227758.40
   73.68        2969.00           1482       49138.00    215592.20
   73.71        2969.25           1485       46301.00    203068.60
   73.73        2969.50           1489       42850.00    187847.30
   73.76        2969.75           1492       40213.00    176225.60
   73.79        2970.00           1495       37080.00    162428.60
   73.82        2970.25           1499       33368.00    146096.60
   73.85        2970.50           1502       30730.00    134499.80
   73.88        2970.75           1505       28033.00    122651.90
   73.91        2971.00           1509       24458.00    106959.90
   73.94        2971.25           1512       21851.00     95526.19
   73.97        2971.50           1515       18724.00     81822.23
   73.99        2971.75           1519       14983.00     65442.22
   74.02        2972.00           1522       12158.00     53083.60
   74.05        2972.25           1525        9475.00     41354.68
   74.08        2972.50           1529        5716.00     24935.83
   74.10        2972.75           1532        3266.00     14243.23
   74.13        2973.00           1536         964.00      4202.80
   74.16        2973.25           1539         398.00      1735.05
   74.19        2973.50           1542         207.00       902.38
   74.22        2973.75           1546         154.00       671.33
   74.24        2974.00           1549         150.00       653.89
   74.27        2974.25           1552         130.00       566.71
   74.30        2974.50           1556         113.00       492.60
   74.33        2974.75           1559         112.00       488.24
   74.35        2975.00           1562         115.00       501.32
   74.38        2975.25           1566         104.00       453.36
   74.41        2975.50           1569          96.00       418.49
   74.44        2975.75           1572         106.00       462.08
   74.47        2976.00           1576          91.00       396.69
   74.50        2976.25           1579         101.00       440.28
   74.52        2976.50           1582         102.00       444.64
   74.55        2976.75           1586          99.00       431.57
   74.58        2977.00           1589         103.00       449.00
   74.61        2977.25           1592         101.00       440.28
   74.64        2977.50           1596         113.00       492.60
   74.66        2977.75           1599         110.00       479.52
   74.69        2978.00           1602         107.00       466.44
   74.72        2978.25           1606         100.00       435.93
   74.75        2978.50           1609         103.00       449.00
   74.77        2978.75           1612         107.00       466.44
   74.80        2979.00           1616         101.00       440.28
   74.83        2979.25           1619         111.00       483.88
   74.86        2979.50           1623         100.00       435.93
   74.88        2979.75           1626         111.00       483.88
   74.91        2980.00           1629         114.00       496.96
   74.94        2980.25           1633         110.00       479.52
   74.97        2980.50           1636          98.00       427.21
   75.00        2980.75           1639         113.00       492.60
   75.03        2981.00           1643          98.00       427.21
   75.06        2981.25           1646          99.00       431.57
   75.08        2981.50           1649         106.00       462.08
   75.11        2981.75           1653         102.00       444.64
   75.14        2982.00           1656         100.00       435.93
   75.17        2982.25           1659          99.00       431.57
   75.19        2982.50           1663         101.00       440.28
   75.22        2982.75           1666          96.00       418.49
   75.25        2983.00           1669          91.00       396.69
   75.28        2983.25           1673         109.00       475.16
   75.30        2983.50           1676         114.00       496.96
   75.33        2983.75           1679          98.00       427.21
   75.36        2984.00           1683          96.00       418.49
HS scan finished at 01:15:39
end
