************************************************************
  HS Scan of (1) Internal mercury lamp
************************************************************
Integration time is 0.2294 seconds per sample
dh160617Delft 51.997-4.386 2.857833pr1000
************************************************************
Dead Time -------------------------  3E-08 
Number of Cycles Used -------------  4 
Starting Wavelength (Angstroms) ---  2950 
Final Wavelength (Angstoms) -------  2984 
Wavelength Increment (Angstroms) --  .25 
Filter Wheel #1 Position ---------- (1) Ground quartz diffuser (ND=2.32)
Filter Wheel #2 Position ---------- (1) Neutral Density 0.494



************************************************************
HS scan start time = 00:25:13
Dark Count =  .2 


Time (GMT)  Wavelength (Ang)  Step Number  Raw Counts  Counts/Second

   25.66        2950.00           1229         116.00       504.80
   25.76        2950.25           1232         122.00       530.96
   25.79        2950.50           1236         113.00       491.72
   25.82        2950.75           1239         117.00       509.16
   25.84        2951.00           1242         119.00       517.88
   25.87        2951.25           1246         115.00       500.44
   25.90        2951.50           1249         128.00       557.11
   25.93        2951.75           1252         126.00       548.40
   25.95        2952.00           1255         108.00       469.93
   25.98        2952.25           1259         113.00       491.72
   26.01        2952.50           1262         108.00       469.93
   26.04        2952.75           1265         117.00       509.16
   26.07        2953.00           1269         122.00       530.96
   26.09        2953.25           1272         114.00       496.08
   26.12        2953.50           1275         120.00       522.24
   26.15        2953.75           1279         112.00       487.37
   26.18        2954.00           1282         119.00       517.88
   26.20        2954.25           1285         121.00       526.60
   26.23        2954.50           1289         121.00       526.60
   26.26        2954.75           1292         113.00       491.72
   26.29        2955.00           1295         118.00       513.52
   26.32        2955.25           1299         117.00       509.16
   26.34        2955.50           1302         109.00       474.29
   26.37        2955.75           1305         111.00       483.01
   26.40        2956.00           1309         113.00       491.72
   26.43        2956.25           1312         115.00       500.44
   26.46        2956.50           1315         120.00       522.24
   26.49        2956.75           1319         123.00       535.32
   26.51        2957.00           1322         107.00       465.57
   26.54        2957.25           1325         116.00       504.80
   26.57        2957.50           1329         114.00       496.08
   26.60        2957.75           1332         115.00       500.44
   26.62        2958.00           1335         117.00       509.16
   26.65        2958.25           1339         118.00       513.52
   26.68        2958.50           1342         115.00       500.44
   26.71        2958.75           1345         111.00       483.01
   26.73        2959.00           1349         120.00       522.24
   26.76        2959.25           1352         119.00       517.88
   26.79        2959.50           1355         120.00       522.24
   26.82        2959.75           1359         112.00       487.37
   26.85        2960.00           1362         112.00       487.37
   26.87        2960.25           1365         123.00       535.32
   26.91        2960.50           1369         126.00       548.40
   26.94        2960.75           1372         125.00       544.04
   26.97        2961.00           1375         137.00       596.35
   26.99        2961.25           1379         145.00       631.22
   27.02        2961.50           1382         182.00       792.52
   27.05        2961.75           1385         700.00      3050.85
   27.08        2962.00           1389        2790.00     12165.73
   27.11        2962.25           1392        4874.00     21259.42
   27.13        2962.50           1395        7136.00     31135.43
   27.16        2962.75           1399       11014.00     48080.64
   27.19        2963.00           1402       14165.00     61861.87
   27.22        2963.25           1405       17438.00     76188.77
   27.25        2963.50           1409       21608.00     94459.98
   27.28        2963.75           1412       24452.00    106932.70
   27.30        2964.00           1415       27289.00    119384.10
   27.33        2964.25           1419       31536.00    138041.30
   27.36        2964.50           1422       34779.00    152302.00
   27.39        2964.75           1425       37469.00    164140.20
   27.42        2965.00           1429       41694.00    182750.70
   27.44        2965.25           1432       45243.00    198399.70
   27.48        2965.50           1435       48102.00    211016.90
   27.51        2965.75           1439       51980.00    228146.50
   27.54        2966.00           1442       54993.00    241467.40
   27.57        2966.25           1445       57841.00    254068.70
   27.60        2966.50           1449       60624.00    266391.60
   27.63        2966.75           1452       62398.00    274251.50
   27.65        2967.00           1455       63006.00    276946.20
   27.68        2967.25           1459       63219.00    277890.40
   27.71        2967.50           1462       63377.00    278590.70
   27.74        2967.75           1465       63077.00    277260.90
   27.76        2968.00           1469       62189.00    273325.40
   27.79        2968.25           1472       60370.00    265266.50
   27.82        2968.50           1475       58067.00    255069.00
   27.85        2968.75           1479       54051.00    237301.50
   27.88        2969.00           1482       51331.00    225278.50
   27.90        2969.25           1485       48538.00    212941.90
   27.93        2969.50           1489       45149.00    197985.00
   27.96        2969.75           1492       42711.00    187233.60
   27.99        2970.00           1495       39802.00    174414.20
   28.01        2970.25           1499       35507.00    155504.90
   28.04        2970.50           1502       32331.00    141536.10
   28.07        2970.75           1505       28977.00    126797.00
   28.10        2971.00           1509       25440.00    111267.90
   28.13        2971.25           1512       22544.00     98563.91
   28.15        2971.50           1515       19592.00     85624.21
   28.18        2971.75           1519       15450.00     67485.22
   28.21        2972.00           1522       12732.00     55593.08
   28.23        2972.25           1525       10778.00     47048.93
   28.26        2972.50           1529        6644.00     28986.84
   28.29        2972.75           1532        3978.00     17349.05
   28.32        2973.00           1536        1233.00      5374.89
   28.35        2973.25           1539         394.00      1716.74
   28.38        2973.50           1542         189.00       823.04
   28.40        2973.75           1546         159.00       692.26
   28.43        2974.00           1549         141.00       613.79
   28.46        2974.25           1552         124.00       539.68
   28.49        2974.50           1556         124.00       539.68
   28.52        2974.75           1559         117.00       509.16
   28.54        2975.00           1562         113.00       491.72
   28.57        2975.25           1566         105.00       456.85
   28.60        2975.50           1569         106.00       461.21
   28.63        2975.75           1572         108.00       469.93
   28.66        2976.00           1576         111.00       483.01
   28.68        2976.25           1579         100.00       435.05
   28.71        2976.50           1582         111.00       483.01
   28.74        2976.75           1586         104.00       452.49
   28.77        2977.00           1589         108.00       469.93
   28.79        2977.25           1592         110.00       478.65
   28.82        2977.50           1596         116.00       504.80
   28.85        2977.75           1599         111.00       483.01
   28.88        2978.00           1602          90.00       391.46
   28.91        2978.25           1606         105.00       456.85
   28.93        2978.50           1609         105.00       456.85
   28.96        2978.75           1612         104.00       452.49
   28.99        2979.00           1616         106.00       461.21
   29.02        2979.25           1619          99.00       430.69
   29.04        2979.50           1623         102.00       443.77
   29.07        2979.75           1626         105.00       456.85
   29.10        2980.00           1629         103.00       448.13
   29.13        2980.25           1633         103.00       448.13
   29.15        2980.50           1636          99.00       430.69
   29.18        2980.75           1639         104.00       452.49
   29.21        2981.00           1643         107.00       465.57
   29.24        2981.25           1646         100.00       435.05
   29.26        2981.50           1649         101.00       439.41
   29.29        2981.75           1653         106.00       461.21
   29.32        2982.00           1656          95.00       413.26
   29.35        2982.25           1659         106.00       461.21
   29.38        2982.50           1663         106.00       461.21
   29.40        2982.75           1666          98.00       426.34
   29.43        2983.00           1669         107.00       465.57
   29.46        2983.25           1673         106.00       461.21
   29.49        2983.50           1676          95.00       413.26
   29.51        2983.75           1679          97.00       421.98
   29.54        2984.00           1683         102.00       443.77
HS scan finished at 00:29:50
end
************************************************************
  HS Scan of (1) Internal mercury lamp
************************************************************
Integration time is 0.2294 seconds per sample
dh160617Delft 51.997-4.386 2.911481pr1000
************************************************************
Dead Time -------------------------  3E-08 
Number of Cycles Used -------------  4 
Starting Wavelength (Angstroms) ---  2950 
Final Wavelength (Angstoms) -------  2984 
Wavelength Increment (Angstroms) --  .25 
Filter Wheel #1 Position ---------- (1) Ground quartz diffuser (ND=2.32)
Filter Wheel #2 Position ---------- (1) Neutral Density 0.494



************************************************************
HS scan start time = 01:21:33
Dark Count =  .2 


Time (GMT)  Wavelength (Ang)  Step Number  Raw Counts  Counts/Second

   81.99        2950.00           1229         123.00       535.32
   82.09        2950.25           1232         127.00       552.76
   82.12        2950.50           1236         123.00       535.32
   82.15        2950.75           1239         121.00       526.60
   82.17        2951.00           1242         118.00       513.52
   82.20        2951.25           1246         122.00       530.96
   82.23        2951.50           1249         114.00       496.08
   82.26        2951.75           1252         116.00       504.80
   82.28        2952.00           1255         109.00       474.29
   82.31        2952.25           1259         115.00       500.44
   82.34        2952.50           1262         120.00       522.24
   82.37        2952.75           1265         116.00       504.80
   82.39        2953.00           1269         118.00       513.52
   82.42        2953.25           1272         119.00       517.88
   82.45        2953.50           1275         110.00       478.65
   82.48        2953.75           1279         116.00       504.80
   82.50        2954.00           1282         126.00       548.40
   82.53        2954.25           1285         117.00       509.16
   82.56        2954.50           1289         108.00       469.93
   82.59        2954.75           1292         120.00       522.24
   82.62        2955.00           1295         120.00       522.24
   82.64        2955.25           1299         125.00       544.04
   82.67        2955.50           1302         119.00       517.88
   82.70        2955.75           1305         118.00       513.52
   82.73        2956.00           1309         115.00       500.44
   82.75        2956.25           1312         120.00       522.24
   82.78        2956.50           1315         112.00       487.37
   82.81        2956.75           1319         123.00       535.32
   82.84        2957.00           1322         110.00       478.65
   82.87        2957.25           1325         119.00       517.88
   82.90        2957.50           1329         120.00       522.24
   82.92        2957.75           1332         108.00       469.93
   82.95        2958.00           1335         121.00       526.60
   82.98        2958.25           1339         110.00       478.65
   83.01        2958.50           1342         108.00       469.93
   83.03        2958.75           1345         106.00       461.21
   83.06        2959.00           1349         112.00       487.37
   83.09        2959.25           1352         104.00       452.49
   83.12        2959.50           1355         112.00       487.37
   83.15        2959.75           1359         118.00       513.52
   83.17        2960.00           1362         120.00       522.24
   83.20        2960.25           1365         113.00       491.72
   83.23        2960.50           1369         122.00       530.96
   83.26        2960.75           1372         118.00       513.52
   83.28        2961.00           1375         131.00       570.19
   83.31        2961.25           1379         144.00       626.86
   83.34        2961.50           1382         197.00       857.91
   83.37        2961.75           1385         720.00      3138.05
   83.39        2962.00           1389        2785.00     12143.92
   83.42        2962.25           1392        5150.00     22464.13
   83.46        2962.50           1395        7792.00     34000.67
   83.49        2962.75           1399       11089.00     48408.53
   83.51        2963.00           1402       14026.00     61253.70
   83.54        2963.25           1405       17289.00     75536.28
   83.57        2963.50           1409       21542.00     94170.64
   83.60        2963.75           1412       24828.00    108582.40
   83.62        2964.00           1415       28010.00    122550.00
   83.65        2964.25           1419       32055.00    140322.70
   83.68        2964.50           1422       35088.00    153661.40
   83.71        2964.75           1425       38187.00    167301.40
   83.73        2965.00           1429       42403.00    185875.80
   83.76        2965.25           1432       45069.00    197632.10
   83.79        2965.50           1435       47567.00    208655.10
   83.82        2965.75           1439       51064.00    224098.80
   83.85        2966.00           1442       54028.00    237199.80
   83.87        2966.25           1445       56755.00    249262.40
   83.90        2966.50           1449       60158.00    264327.60
   83.93        2966.75           1452       61834.00    271752.30
   83.96        2967.00           1455       62471.00    274575.00
   83.99        2967.25           1459       62797.00    276019.90
   84.01        2967.50           1462       62722.00    275687.50
   84.04        2967.75           1465       62571.00    275018.20
   84.07        2968.00           1469       61650.00    270937.00
   84.10        2968.25           1472       60394.00    265372.90
   84.12        2968.50           1475       58106.00    255241.70
   84.15        2968.75           1479       54532.00    239428.50
   84.18        2969.00           1482       51923.00    227894.50
   84.21        2969.25           1485       48766.00    213948.60
   84.24        2969.50           1489       44451.00    194906.20
   84.27        2969.75           1492       41356.00    181261.10
   84.30        2970.00           1495       38555.00    168921.90
   84.33        2970.25           1499       35032.00    153415.00
   84.35        2970.50           1502       31681.00    138678.60
   84.38        2970.75           1505       28387.00    124205.60
   84.41        2971.00           1509       24967.00    109192.30
   84.44        2971.25           1512       22715.00     99313.77
   84.46        2971.50           1515       19576.00     85554.09
   84.49        2971.75           1519       15644.00     68334.37
   84.52        2972.00           1522       12464.00     54420.95
   84.55        2972.25           1525        9374.00     40912.43
   84.58        2972.50           1529        5573.00     24310.66
   84.60        2972.75           1532        3215.00     14019.85
   84.63        2973.00           1536        1086.00      4733.89
   84.66        2973.25           1539         393.00      1712.38
   84.69        2973.50           1542         194.00       844.83
   84.71        2973.75           1546         155.00       674.82
   84.74        2974.00           1549         143.00       622.51
   84.77        2974.25           1552         124.00       539.68
   84.80        2974.50           1556         123.00       535.32
   84.82        2974.75           1559         115.00       500.44
   84.85        2975.00           1562         110.00       478.65
   84.88        2975.25           1566         106.00       461.21
   84.91        2975.50           1569         112.00       487.37
   84.93        2975.75           1572         119.00       517.88
   84.96        2976.00           1576         114.00       496.08
   84.99        2976.25           1579         110.00       478.65
   85.02        2976.50           1582         106.00       461.21
   85.04        2976.75           1586         115.00       500.44
   85.07        2977.00           1589         116.00       504.80
   85.10        2977.25           1592         110.00       478.65
   85.13        2977.50           1596         100.00       435.05
   85.16        2977.75           1599         102.00       443.77
   85.18        2978.00           1602         103.00       448.13
   85.21        2978.25           1606         118.00       513.52
   85.24        2978.50           1609         105.00       456.85
   85.27        2978.75           1612          96.00       417.62
   85.29        2979.00           1616         111.00       483.01
   85.32        2979.25           1619          99.00       430.69
   85.35        2979.50           1623         113.00       491.72
   85.38        2979.75           1626         103.00       448.13
   85.40        2980.00           1629          99.00       430.69
   85.43        2980.25           1633         106.00       461.21
   85.46        2980.50           1636         102.00       443.77
   85.49        2980.75           1639         106.00       461.21
   85.51        2981.00           1643          96.00       417.62
   85.54        2981.25           1646         102.00       443.77
   85.57        2981.50           1649         108.00       469.93
   85.60        2981.75           1653         100.00       435.05
   85.62        2982.00           1656          93.00       404.54
   85.65        2982.25           1659         101.00       439.41
   85.68        2982.50           1663         101.00       439.41
   85.71        2982.75           1666          98.00       426.34
   85.73        2983.00           1669          92.00       400.18
   85.76        2983.25           1673         101.00       439.41
   85.79        2983.50           1676          99.00       430.69
   85.82        2983.75           1679          98.00       426.34
   85.85        2984.00           1683          96.00       417.62
HS scan finished at 01:26:09
end
