************************************************************
  HS Scan of (1) Internal mercury lamp
************************************************************
Integration time is 0.2294 seconds per sample
dh140617Delft 51.997-4.386 2.750537pr1000
************************************************************
Dead Time -------------------------  3E-08 
Number of Cycles Used -------------  4 
Starting Wavelength (Angstroms) ---  2950 
Final Wavelength (Angstoms) -------  2984 
Wavelength Increment (Angstroms) --  .25 
Filter Wheel #1 Position ---------- (1) Ground quartz diffuser (ND=2.32)
Filter Wheel #2 Position ---------- (1) Neutral Density 0.494



************************************************************
HS scan start time = 01:55:16
Dark Count =  .1 


Time (GMT)  Wavelength (Ang)  Step Number  Raw Counts  Counts/Second

  115.71        2950.00           1229         113.00       492.16
  115.81        2950.25           1232         116.00       505.24
  115.84        2950.50           1236         126.00       548.83
  115.87        2950.75           1239         125.00       544.47
  115.89        2951.00           1242         118.00       513.96
  115.92        2951.25           1246         118.00       513.96
  115.95        2951.50           1249         126.00       548.83
  115.98        2951.75           1252         118.00       513.96
  116.01        2952.00           1255         134.00       583.71
  116.04        2952.25           1259         124.00       540.11
  116.07        2952.50           1262         117.00       509.60
  116.09        2952.75           1265         135.00       588.07
  116.12        2953.00           1269         125.00       544.47
  116.15        2953.25           1272         126.00       548.83
  116.18        2953.50           1275         126.00       548.83
  116.20        2953.75           1279         128.00       557.55
  116.23        2954.00           1282         123.00       535.75
  116.26        2954.25           1285         117.00       509.60
  116.29        2954.50           1289         124.00       540.11
  116.31        2954.75           1292         116.00       505.24
  116.34        2955.00           1295         131.00       570.63
  116.37        2955.25           1299         112.00       487.80
  116.40        2955.50           1302         127.00       553.19
  116.43        2955.75           1305         121.00       527.04
  116.46        2956.00           1309         124.00       540.11
  116.49        2956.25           1312         129.00       561.91
  116.51        2956.50           1315         124.00       540.11
  116.54        2956.75           1319         114.00       496.52
  116.57        2957.00           1322         123.00       535.75
  116.60        2957.25           1325         123.00       535.75
  116.62        2957.50           1329         120.00       522.68
  116.65        2957.75           1332         122.00       531.39
  116.68        2958.00           1335         120.00       522.68
  116.71        2958.25           1339         122.00       531.39
  116.73        2958.50           1342         113.00       492.16
  116.76        2958.75           1345         114.00       496.52
  116.79        2959.00           1349         122.00       531.39
  116.82        2959.25           1352         122.00       531.39
  116.84        2959.50           1355         120.00       522.68
  116.87        2959.75           1359         116.00       505.24
  116.90        2960.00           1362         127.00       553.19
  116.93        2960.25           1365         117.00       509.60
  116.96        2960.50           1369         128.00       557.55
  116.99        2960.75           1372         140.00       609.86
  117.02        2961.00           1375         141.00       614.22
  117.04        2961.25           1379         157.00       683.97
  117.07        2961.50           1382         270.00      1176.59
  117.10        2961.75           1385         976.00      4254.68
  117.13        2962.00           1389        3265.00     14238.43
  117.15        2962.25           1392        5644.00     24621.06
  117.18        2962.50           1395        8021.00     35001.43
  117.21        2962.75           1399       10949.00     47796.92
  117.24        2963.00           1402       14272.00     62330.49
  117.26        2963.25           1405       17381.00     75939.60
  117.29        2963.50           1409       21125.00     92343.09
  117.32        2963.75           1412       24429.00    106832.30
  117.35        2964.00           1415       27287.00    119375.80
  117.38        2964.25           1419       30714.00    134429.00
  117.40        2964.50           1422       33875.00    148326.00
  117.43        2964.75           1425       36673.00    160636.70
  117.46        2965.00           1429       40173.00    176049.00
  117.49        2965.25           1432       42781.00    187542.60
  117.51        2965.50           1435       44955.00    197129.70
  117.54        2965.75           1439       48269.00    211754.60
  117.57        2966.00           1442       51001.00    223820.90
  117.60        2966.25           1445       54127.00    237638.00
  117.63        2966.50           1449       56970.00    250214.20
  117.65        2966.75           1452       58361.00    256371.00
  117.68        2967.00           1455       58553.00    257220.90
  117.71        2967.25           1459       58549.00    257203.20
  117.74        2967.50           1462       58619.00    257513.10
  117.76        2967.75           1465       58433.00    256689.70
  117.79        2968.00           1469       57314.00    251736.60
  117.82        2968.25           1472       56055.00    246165.70
  117.85        2968.50           1475       53825.00    236302.70
  117.87        2968.75           1479       50391.00    221126.00
  117.90        2969.00           1482       47582.00    208721.80
  117.93        2969.25           1485       44651.00    195788.70
  117.96        2969.50           1489       40581.00    177846.50
  117.99        2969.75           1492       37811.00    165646.30
  118.02        2970.00           1495       35541.00    155655.00
  118.05        2970.25           1499       31862.00    139474.70
  118.08        2970.50           1502       28603.00    125154.70
  118.11        2970.75           1505       25877.00    113186.20
  118.13        2971.00           1509       22845.00     99884.30
  118.16        2971.25           1512       20382.00     89086.52
  118.19        2971.50           1515       17696.00     77319.08
  118.22        2971.75           1519       13984.00     61070.38
  118.25        2972.00           1522       10770.00     47014.40
  118.27        2972.25           1525        7941.00     34651.96
  118.30        2972.50           1529        4740.00     20674.98
  118.33        2972.75           1532        2422.00     10560.89
  118.36        2973.00           1536         787.00      3430.61
  118.38        2973.25           1539         303.00      1320.45
  118.41        2973.50           1542         192.00       836.55
  118.44        2973.75           1546         141.00       614.22
  118.47        2974.00           1549         139.00       605.50
  118.49        2974.25           1552         136.00       592.43
  118.52        2974.50           1556         134.00       583.71
  118.55        2974.75           1559         119.00       518.32
  118.58        2975.00           1562         118.00       513.96
  118.60        2975.25           1566         108.00       470.36
  118.63        2975.50           1569         110.00       479.08
  118.66        2975.75           1572         124.00       540.11
  118.69        2976.00           1576         108.00       470.36
  118.72        2976.25           1579         108.00       470.36
  118.74        2976.50           1582         113.00       492.16
  118.77        2976.75           1586         102.00       444.21
  118.80        2977.00           1589         103.00       448.57
  118.83        2977.25           1592         106.00       461.65
  118.85        2977.50           1596         110.00       479.08
  118.88        2977.75           1599         111.00       483.44
  118.91        2978.00           1602          99.00       431.13
  118.94        2978.25           1606         116.00       505.24
  118.96        2978.50           1609         100.00       435.49
  118.99        2978.75           1612         106.00       461.65
  119.02        2979.00           1616         104.00       452.93
  119.05        2979.25           1619         107.00       466.00
  119.07        2979.50           1623         108.00       470.36
  119.10        2979.75           1626         103.00       448.57
  119.13        2980.00           1629         111.00       483.44
  119.16        2980.25           1633         100.00       435.49
  119.18        2980.50           1636         103.00       448.57
  119.21        2980.75           1639         113.00       492.16
  119.24        2981.00           1643         107.00       466.00
  119.27        2981.25           1646         101.00       439.85
  119.30        2981.50           1649          94.00       409.33
  119.33        2981.75           1653          94.00       409.33
  119.35        2982.00           1656          98.00       426.77
  119.38        2982.25           1659         107.00       466.00
  119.41        2982.50           1663          96.00       418.05
  119.44        2982.75           1666         104.00       452.93
  119.46        2983.00           1669         107.00       466.00
  119.49        2983.25           1673         101.00       439.85
  119.52        2983.50           1676         113.00       492.16
  119.55        2983.75           1679         107.00       466.00
  119.59        2984.00           1683          97.00       422.41
HS scan finished at 01:59:53
end
