************************************************************
  HS Scan of (1) Internal mercury lamp
************************************************************
Integration time is 0.2294 seconds per sample
dh230617Delft 51.997-4.386 2.911481pr1000
************************************************************
Dead Time -------------------------  3E-08 
Number of Cycles Used -------------  4 
Starting Wavelength (Angstroms) ---  2950 
Final Wavelength (Angstoms) -------  2984 
Wavelength Increment (Angstroms) --  .25 
Filter Wheel #1 Position ---------- (1) Ground quartz diffuser (ND=2.32)
Filter Wheel #2 Position ---------- (1) Neutral Density 0.494



************************************************************
HS scan start time = 00:25:12
Dark Count =  .1 


Time (GMT)  Wavelength (Ang)  Step Number  Raw Counts  Counts/Second

   25.64        2950.00           1229         116.00       505.24
   25.74        2950.25           1232         117.00       509.60
   25.77        2950.50           1236         119.00       518.32
   25.80        2950.75           1239         120.00       522.68
   25.83        2951.00           1242         119.00       518.32
   25.85        2951.25           1246         128.00       557.55
   25.88        2951.50           1249         121.00       527.04
   25.91        2951.75           1252         108.00       470.36
   25.94        2952.00           1255         121.00       527.04
   25.96        2952.25           1259         116.00       505.24
   25.99        2952.50           1262         121.00       527.04
   26.02        2952.75           1265         120.00       522.68
   26.05        2953.00           1269         120.00       522.68
   26.08        2953.25           1272         120.00       522.68
   26.11        2953.50           1275         108.00       470.36
   26.13        2953.75           1279         109.00       474.72
   26.16        2954.00           1282         112.00       487.80
   26.19        2954.25           1285         116.00       505.24
   26.22        2954.50           1289         115.00       500.88
   26.25        2954.75           1292         122.00       531.39
   26.27        2955.00           1295         112.00       487.80
   26.30        2955.25           1299         118.00       513.96
   26.33        2955.50           1302         111.00       483.44
   26.36        2955.75           1305         116.00       505.24
   26.39        2956.00           1309         113.00       492.16
   26.42        2956.25           1312         102.00       444.21
   26.45        2956.50           1315         113.00       492.16
   26.47        2956.75           1319         116.00       505.24
   26.50        2957.00           1322         124.00       540.11
   26.53        2957.25           1325         117.00       509.60
   26.56        2957.50           1329         104.00       452.93
   26.58        2957.75           1332         109.00       474.72
   26.61        2958.00           1335         112.00       487.80
   26.64        2958.25           1339         116.00       505.24
   26.67        2958.50           1342         108.00       470.36
   26.69        2958.75           1345         108.00       470.36
   26.72        2959.00           1349         108.00       470.36
   26.75        2959.25           1352         115.00       500.88
   26.78        2959.50           1355         114.00       496.52
   26.80        2959.75           1359         106.00       461.65
   26.83        2960.00           1362         119.00       518.32
   26.86        2960.25           1365         107.00       466.00
   26.89        2960.50           1369         116.00       505.24
   26.91        2960.75           1372         125.00       544.47
   26.94        2961.00           1375         143.00       622.94
   26.97        2961.25           1379         135.00       588.07
   27.00        2961.50           1382         207.00       901.94
   27.03        2961.75           1385         884.00      3853.54
   27.05        2962.00           1389        3076.00     13413.85
   27.08        2962.25           1392        5473.00     23874.55
   27.11        2962.50           1395        8408.00     36692.07
   27.14        2962.75           1399       12372.00     54019.03
   27.16        2963.00           1402       15722.00     68676.23
   27.19        2963.25           1405       18160.00     79351.28
   27.22        2963.50           1409       22113.00     96674.48
   27.25        2963.75           1412       25447.00    111299.10
   27.28        2964.00           1415       28451.00    124487.20
   27.31        2964.25           1419       32916.00    144108.60
   27.34        2964.50           1422       35937.00    157397.50
   27.36        2964.75           1425       38406.00    168266.20
   27.39        2965.00           1429       42518.00    186383.20
   27.42        2965.25           1432       45771.00    200729.60
   27.45        2965.50           1435       49121.00    215516.70
   27.48        2965.75           1439       52965.00    232500.50
   27.50        2966.00           1442       55556.00    243958.10
   27.53        2966.25           1445       58112.00    255268.70
   27.56        2966.50           1449       61478.00    270175.30
   27.59        2966.75           1452       63527.00    279256.10
   27.61        2967.00           1455       63755.00    280266.80
   27.64        2967.25           1459       64035.00    281508.20
   27.67        2967.50           1462       64051.00    281579.20
   27.70        2967.75           1465       63798.00    280457.50
   27.73        2968.00           1469       62362.00    274092.50
   27.76        2968.25           1472       60100.00    264071.10
   27.79        2968.50           1475       57862.00    254162.00
   27.82        2968.75           1479       54392.00    238809.90
   27.85        2969.00           1482       52045.00    228434.10
   27.87        2969.25           1485       49205.00    215887.60
   27.90        2969.50           1489       45057.00    197579.60
   27.93        2969.75           1492       42066.00    184390.80
   27.96        2970.00           1495       38886.00    170380.00
   27.99        2970.25           1499       35127.00    153833.40
   28.02        2970.50           1502       32063.00    140358.30
   28.04        2970.75           1505       28930.00    126591.00
   28.07        2971.00           1509       25089.00    109728.10
   28.10        2971.25           1512       22061.00     96446.49
   28.13        2971.50           1515       19095.00     83447.10
   28.16        2971.75           1519       15691.00     68540.53
   28.18        2972.00           1522       12975.00     56656.38
   28.21        2972.25           1525       10570.00     46140.12
   28.24        2972.50           1529        6221.00     27140.23
   28.27        2972.75           1532        3285.00     14325.69
   28.29        2973.00           1536         894.00      3897.14
   28.32        2973.25           1539         329.00      1433.80
   28.35        2973.50           1542         194.00       845.27
   28.38        2973.75           1546         160.00       697.05
   28.41        2974.00           1549         134.00       583.71
   28.43        2974.25           1552         132.00       574.99
   28.46        2974.50           1556         127.00       553.19
   28.49        2974.75           1559         108.00       470.36
   28.51        2975.00           1562         106.00       461.65
   28.54        2975.25           1566         112.00       487.80
   28.57        2975.50           1569          92.00       400.62
   28.60        2975.75           1572         102.00       444.21
   28.62        2976.00           1576         106.00       461.65
   28.65        2976.25           1579         105.00       457.29
   28.68        2976.50           1582         107.00       466.00
   28.71        2976.75           1586         106.00       461.65
   28.74        2977.00           1589         110.00       479.08
   28.76        2977.25           1592          94.00       409.33
   28.79        2977.50           1596         106.00       461.65
   28.82        2977.75           1599          97.00       422.41
   28.85        2978.00           1602         102.00       444.21
   28.87        2978.25           1606         103.00       448.57
   28.90        2978.50           1609         100.00       435.49
   28.93        2978.75           1612         105.00       457.29
   28.96        2979.00           1616         105.00       457.29
   28.99        2979.25           1619         111.00       483.44
   29.01        2979.50           1623          97.00       422.41
   29.04        2979.75           1626         102.00       444.21
   29.07        2980.00           1629          98.00       426.77
   29.10        2980.25           1633         106.00       461.65
   29.12        2980.50           1636          93.00       404.97
   29.15        2980.75           1639          94.00       409.33
   29.18        2981.00           1643          97.00       422.41
   29.21        2981.25           1646         108.00       470.36
   29.23        2981.50           1649          96.00       418.05
   29.26        2981.75           1653          99.00       431.13
   29.29        2982.00           1656          90.00       391.90
   29.32        2982.25           1659          96.00       418.05
   29.34        2982.50           1663         102.00       444.21
   29.37        2982.75           1666         100.00       435.49
   29.40        2983.00           1669          98.00       426.77
   29.43        2983.25           1673          98.00       426.77
   29.46        2983.50           1676          93.00       404.97
   29.48        2983.75           1679          94.00       409.33
   29.51        2984.00           1683          98.00       426.77
HS scan finished at 00:29:49
end
************************************************************
  HS Scan of (1) Internal mercury lamp
************************************************************
Integration time is 0.2294 seconds per sample
dh230617Delft 51.997-4.386 2.965129pr1000
************************************************************
Dead Time -------------------------  3E-08 
Number of Cycles Used -------------  4 
Starting Wavelength (Angstroms) ---  2950 
Final Wavelength (Angstoms) -------  2984 
Wavelength Increment (Angstroms) --  .25 
Filter Wheel #1 Position ---------- (1) Ground quartz diffuser (ND=2.32)
Filter Wheel #2 Position ---------- (1) Neutral Density 0.494



************************************************************
HS scan start time = 01:21:16
Dark Count =  .1 


Time (GMT)  Wavelength (Ang)  Step Number  Raw Counts  Counts/Second

   81.71        2950.00           1229         114.00       496.52
   81.81        2950.25           1232         114.00       496.52
   81.84        2950.50           1236         118.00       513.96
   81.87        2950.75           1239         111.00       483.44
   81.89        2951.00           1242         123.00       535.75
   81.92        2951.25           1246         118.00       513.96
   81.95        2951.50           1249         109.00       474.72
   81.98        2951.75           1252         120.00       522.68
   82.00        2952.00           1255         117.00       509.60
   82.03        2952.25           1259         113.00       492.16
   82.06        2952.50           1262         106.00       461.65
   82.09        2952.75           1265         121.00       527.04
   82.11        2953.00           1269         119.00       518.32
   82.14        2953.25           1272         111.00       483.44
   82.17        2953.50           1275         120.00       522.68
   82.20        2953.75           1279         113.00       492.16
   82.22        2954.00           1282         116.00       505.24
   82.25        2954.25           1285         113.00       492.16
   82.28        2954.50           1289         111.00       483.44
   82.31        2954.75           1292         116.00       505.24
   82.33        2955.00           1295         113.00       492.16
   82.36        2955.25           1299         117.00       509.60
   82.39        2955.50           1302         124.00       540.11
   82.42        2955.75           1305         115.00       500.88
   82.44        2956.00           1309         111.00       483.44
   82.47        2956.25           1312         117.00       509.60
   82.50        2956.50           1315         120.00       522.68
   82.53        2956.75           1319         123.00       535.75
   82.56        2957.00           1322         114.00       496.52
   82.58        2957.25           1325         106.00       461.65
   82.61        2957.50           1329         119.00       518.32
   82.64        2957.75           1332         114.00       496.52
   82.67        2958.00           1335         121.00       527.04
   82.69        2958.25           1339         116.00       505.24
   82.73        2958.50           1342         109.00       474.72
   82.76        2958.75           1345         109.00       474.72
   82.78        2959.00           1349         108.00       470.36
   82.81        2959.25           1352         109.00       474.72
   82.84        2959.50           1355         108.00       470.36
   82.87        2959.75           1359         113.00       492.16
   82.90        2960.00           1362         109.00       474.72
   82.93        2960.25           1365         109.00       474.72
   82.95        2960.50           1369         116.00       505.24
   82.98        2960.75           1372         121.00       527.04
   83.01        2961.00           1375         135.00       588.07
   83.04        2961.25           1379         148.00       644.74
   83.07        2961.50           1382         221.00       962.97
   83.10        2961.75           1385         969.00      4224.16
   83.13        2962.00           1389        3486.00     15202.66
   83.16        2962.25           1392        5928.00     25860.95
   83.19        2962.50           1395        8157.00     35595.54
   83.22        2962.75           1399       11767.00     51373.37
   83.24        2963.00           1402       14672.00     64080.79
   83.27        2963.25           1405       17685.00     77270.90
   83.30        2963.50           1409       22524.00     98476.64
   83.33        2963.75           1412       25398.00    111084.10
   83.35        2964.00           1415       28336.00    123982.10
   83.38        2964.25           1419       32013.00    140138.50
   83.41        2964.50           1422       35092.00    153679.40
   83.44        2964.75           1425       38399.00    168235.40
   83.47        2965.00           1429       42356.00    185669.10
   83.49        2965.25           1432       44764.00    196287.20
   83.52        2965.50           1435       47493.00    208328.90
   83.55        2965.75           1439       51784.00    227280.70
   83.58        2966.00           1442       54769.00    240477.10
   83.60        2966.25           1445       57459.00    252378.40
   83.63        2966.50           1449       61169.00    268806.40
   83.66        2966.75           1452       62486.00    274642.00
   83.69        2967.00           1455       63124.00    277469.70
   83.71        2967.25           1459       63525.00    279247.20
   83.74        2967.50           1462       63011.00    276968.80
   83.77        2967.75           1465       62751.00    275816.40
   83.80        2968.00           1469       61257.00    269196.20
   83.83        2968.25           1472       59880.00    263096.80
   83.85        2968.50           1475       57339.00    251847.20
   83.88        2968.75           1479       53489.00    234817.10
   83.91        2969.00           1482       50254.00    220520.80
   83.94        2969.25           1485       47445.00    208117.00
   83.96        2969.50           1489       43790.00    191991.50
   83.99        2969.75           1492       41053.00    179926.30
   84.02        2970.00           1495       38055.00    166720.60
   84.05        2970.25           1499       34384.00    150564.80
   84.08        2970.50           1502       31185.00    136499.00
   84.11        2970.75           1505       28542.00    124886.80
   84.14        2971.00           1509       24865.00    108745.20
   84.16        2971.25           1512       22228.00     97178.72
   84.19        2971.50           1515       19479.00     85129.52
   84.22        2971.75           1519       15371.00     67139.90
   84.25        2972.00           1522       12305.00     53726.02
   84.27        2972.25           1525        9466.00     41314.91
   84.30        2972.50           1529        5523.00     24092.82
   84.33        2972.75           1532        3077.00     13418.22
   84.36        2973.00           1536         929.00      4049.75
   84.39        2973.25           1539         345.00      1503.56
   84.42        2973.50           1542         176.00       766.80
   84.45        2973.75           1546         151.00       657.82
   84.47        2974.00           1549         145.00       631.66
   84.50        2974.25           1552         126.00       548.83
   84.53        2974.50           1556         114.00       496.52
   84.56        2974.75           1559         123.00       535.75
   84.58        2975.00           1562         117.00       509.60
   84.61        2975.25           1566         107.00       466.00
   84.64        2975.50           1569          91.00       396.26
   84.67        2975.75           1572          99.00       431.13
   84.69        2976.00           1576         104.00       452.93
   84.72        2976.25           1579          97.00       422.41
   84.75        2976.50           1582         106.00       461.65
   84.78        2976.75           1586          98.00       426.77
   84.80        2977.00           1589         110.00       479.08
   84.83        2977.25           1592         101.00       439.85
   84.86        2977.50           1596         114.00       496.52
   84.89        2977.75           1599         107.00       466.00
   84.92        2978.00           1602         107.00       466.00
   84.94        2978.25           1606         108.00       470.36
   84.97        2978.50           1609         102.00       444.21
   85.00        2978.75           1612         100.00       435.49
   85.03        2979.00           1616         104.00       452.93
   85.05        2979.25           1619          94.00       409.33
   85.08        2979.50           1623          97.00       422.41
   85.11        2979.75           1626         107.00       466.00
   85.14        2980.00           1629         103.00       448.57
   85.16        2980.25           1633         112.00       487.80
   85.19        2980.50           1636         111.00       483.44
   85.22        2980.75           1639         108.00       470.36
   85.25        2981.00           1643          97.00       422.41
   85.27        2981.25           1646         112.00       487.80
   85.30        2981.50           1649          98.00       426.77
   85.33        2981.75           1653          97.00       422.41
   85.36        2982.00           1656         102.00       444.21
   85.38        2982.25           1659          94.00       409.33
   85.41        2982.50           1663          96.00       418.05
   85.44        2982.75           1666          93.00       404.97
   85.47        2983.00           1669         101.00       439.85
   85.49        2983.25           1673         105.00       457.29
   85.52        2983.50           1676         102.00       444.21
   85.55        2983.75           1679          83.00       361.38
   85.58        2984.00           1683         104.00       452.93
HS scan finished at 01:25:53
end
