************************************************************
  HS Scan of (1) Internal mercury lamp
************************************************************
Integration time is 0.2294 seconds per sample
dh280617Delft 51.997-4.386 2.857833pr1000
************************************************************
Dead Time -------------------------  3E-08 
Number of Cycles Used -------------  4 
Starting Wavelength (Angstroms) ---  2950 
Final Wavelength (Angstoms) -------  2984 
Wavelength Increment (Angstroms) --  .25 
Filter Wheel #1 Position ---------- (1) Ground quartz diffuser (ND=2.32)
Filter Wheel #2 Position ---------- (1) Neutral Density 0.494



************************************************************
HS scan start time = 01:59:14
Dark Count =  .1 


Time (GMT)  Wavelength (Ang)  Step Number  Raw Counts  Counts/Second

  119.68        2950.00           1229         118.00       513.96
  119.78        2950.25           1232         131.00       570.63
  119.80        2950.50           1236         134.00       583.71
  119.83        2950.75           1239         121.00       527.04
  119.86        2951.00           1242         122.00       531.39
  119.89        2951.25           1246         119.00       518.32
  119.91        2951.50           1249         116.00       505.24
  119.94        2951.75           1252         123.00       535.75
  119.97        2952.00           1255         110.00       479.08
  120.00        2952.25           1259         118.00       513.96
  120.03        2952.50           1262         117.00       509.60
  120.05        2952.75           1265         118.00       513.96
  120.08        2953.00           1269         126.00       548.83
  120.11        2953.25           1272         117.00       509.60
  120.14        2953.50           1275         112.00       487.80
  120.17        2953.75           1279         121.00       527.04
  120.20        2954.00           1282         117.00       509.60
  120.23        2954.25           1285         122.00       531.39
  120.25        2954.50           1289         109.00       474.72
  120.28        2954.75           1292         123.00       535.75
  120.31        2955.00           1295         113.00       492.16
  120.34        2955.25           1299         125.00       544.47
  120.37        2955.50           1302         120.00       522.68
  120.39        2955.75           1305         116.00       505.24
  120.42        2956.00           1309         114.00       496.52
  120.45        2956.25           1312         110.00       479.08
  120.48        2956.50           1315         120.00       522.68
  120.51        2956.75           1319         105.00       457.29
  120.53        2957.00           1322         111.00       483.44
  120.56        2957.25           1325         120.00       522.68
  120.59        2957.50           1329         121.00       527.04
  120.62        2957.75           1332         111.00       483.44
  120.64        2958.00           1335         114.00       496.52
  120.68        2958.25           1339         111.00       483.44
  120.71        2958.50           1342         112.00       487.80
  120.73        2958.75           1345         107.00       466.00
  120.76        2959.00           1349         108.00       470.36
  120.79        2959.25           1352         116.00       505.24
  120.82        2959.50           1355         109.00       474.72
  120.84        2959.75           1359         118.00       513.96
  120.87        2960.00           1362         106.00       461.65
  120.90        2960.25           1365         116.00       505.24
  120.93        2960.50           1369         122.00       531.39
  120.95        2960.75           1372         126.00       548.83
  120.98        2961.00           1375         138.00       601.14
  121.01        2961.25           1379         144.00       627.30
  121.04        2961.50           1382         174.00       758.08
  121.07        2961.75           1385         657.00      2863.80
  121.09        2962.00           1389        2511.00     10949.11
  121.12        2962.25           1392        5001.00     21814.18
  121.15        2962.50           1395        7695.00     33577.40
  121.18        2962.75           1399       11421.00     49860.49
  121.20        2963.00           1402       14501.00     63332.51
  121.23        2963.25           1405       17504.00     76478.24
  121.26        2963.50           1409       21766.00     95153.10
  121.29        2963.75           1412       24408.00    106740.10
  121.32        2964.00           1415       26852.00    117466.00
  121.34        2964.25           1419       30391.00    133009.60
  121.37        2964.50           1422       33499.00    146672.30
  121.40        2964.75           1425       36286.00    158933.40
  121.43        2965.00           1429       40294.00    176582.00
  121.45        2965.25           1432       42832.00    187767.50
  121.48        2965.50           1435       45377.00    198991.30
  121.51        2965.75           1439       49181.00    215781.60
  121.54        2966.00           1442       52241.00    229300.40
  121.57        2966.25           1445       55116.00    242011.90
  121.60        2966.50           1449       57817.00    253962.90
  121.63        2966.75           1452       59473.00    261294.40
  121.65        2967.00           1455       60436.00    265559.30
  121.68        2967.25           1459       60774.00    267056.50
  121.71        2967.50           1462       60739.00    266901.50
  121.74        2967.75           1465       60763.00    267007.80
  121.76        2968.00           1469       59168.00    259943.80
  121.79        2968.25           1472       57652.00    253232.60
  121.82        2968.50           1475       55274.00    242710.70
  121.85        2968.75           1479       51976.00    228129.20
  121.88        2969.00           1482       49272.00    216183.50
  121.90        2969.25           1485       46225.00    202732.80
  121.93        2969.50           1489       43132.00    189090.10
  121.96        2969.75           1492       40854.00    179049.40
  121.99        2970.00           1495       37844.00    165791.60
  122.01        2970.25           1499       33692.00    147521.10
  122.04        2970.50           1502       30825.00    134916.80
  122.07        2970.75           1505       27804.00    121645.80
  122.10        2971.00           1509       24367.00    106560.30
  122.13        2971.25           1512       21477.00     93886.13
  122.15        2971.50           1515       18542.00     81024.52
  122.18        2971.75           1519       14912.00     65131.07
  122.21        2972.00           1522       12136.00     52986.96
  122.24        2972.25           1525        9797.00     42761.45
  122.26        2972.50           1529        6254.00     27284.31
  122.29        2972.75           1532        3998.00     17436.75
  122.32        2973.00           1536        1255.00      5471.26
  122.35        2973.25           1539         416.00      1813.09
  122.37        2973.50           1542         196.00       853.99
  122.40        2973.75           1546         155.00       675.25
  122.43        2974.00           1549         139.00       605.50
  122.46        2974.25           1552         132.00       574.99
  122.49        2974.50           1556         127.00       553.19
  122.51        2974.75           1559         120.00       522.68
  122.54        2975.00           1562         112.00       487.80
  122.57        2975.25           1566         111.00       483.44
  122.60        2975.50           1569         107.00       466.00
  122.63        2975.75           1572         108.00       470.36
  122.66        2976.00           1576         103.00       448.57
  122.69        2976.25           1579         106.00       461.65
  122.71        2976.50           1582         101.00       439.85
  122.74        2976.75           1586         111.00       483.44
  122.77        2977.00           1589         103.00       448.57
  122.80        2977.25           1592         105.00       457.29
  122.82        2977.50           1596         111.00       483.44
  122.85        2977.75           1599         109.00       474.72
  122.88        2978.00           1602         101.00       439.85
  122.91        2978.25           1606         104.00       452.93
  122.93        2978.50           1609         110.00       479.08
  122.96        2978.75           1612          98.00       426.77
  122.99        2979.00           1616          99.00       431.13
  123.02        2979.25           1619         105.00       457.29
  123.05        2979.50           1623          99.00       431.13
  123.07        2979.75           1626         106.00       461.65
  123.10        2980.00           1629         101.00       439.85
  123.13        2980.25           1633          96.00       418.05
  123.16        2980.50           1636         100.00       435.49
  123.18        2980.75           1639         106.00       461.65
  123.21        2981.00           1643         101.00       439.85
  123.24        2981.25           1646          94.00       409.33
  123.27        2981.50           1649         102.00       444.21
  123.29        2981.75           1653          93.00       404.97
  123.32        2982.00           1656         102.00       444.21
  123.35        2982.25           1659          94.00       409.33
  123.38        2982.50           1663         105.00       457.29
  123.41        2982.75           1666         106.00       461.65
  123.44        2983.00           1669          87.00       378.82
  123.47        2983.25           1673          96.00       418.05
  123.49        2983.50           1676         102.00       444.21
  123.52        2983.75           1679         102.00       444.21
  123.55        2984.00           1683          93.00       404.97
HS scan finished at 02:03:51
end
