************************************************************
  HS Scan of (1) Internal mercury lamp
************************************************************
Integration time is 0.2294 seconds per sample
dh260617Delft 51.997-4.386 2.911481pr1000
************************************************************
Dead Time -------------------------  3E-08 
Number of Cycles Used -------------  4 
Starting Wavelength (Angstroms) ---  2950 
Final Wavelength (Angstoms) -------  2984 
Wavelength Increment (Angstroms) --  .25 
Filter Wheel #1 Position ---------- (1) Ground quartz diffuser (ND=2.32)
Filter Wheel #2 Position ---------- (1) Neutral Density 0.494



************************************************************
HS scan start time = 01:24:22
Dark Count =  .1 


Time (GMT)  Wavelength (Ang)  Step Number  Raw Counts  Counts/Second

   84.81        2950.00           1229         119.00       518.32
   84.91        2950.25           1232         121.00       527.04
   84.94        2950.50           1236         122.00       531.39
   84.97        2950.75           1239         122.00       531.39
   85.00        2951.00           1242         111.00       483.44
   85.02        2951.25           1246         132.00       574.99
   85.05        2951.50           1249         130.00       566.27
   85.08        2951.75           1252         123.00       535.75
   85.11        2952.00           1255         110.00       479.08
   85.13        2952.25           1259         127.00       553.19
   85.16        2952.50           1262         116.00       505.24
   85.19        2952.75           1265         117.00       509.60
   85.22        2953.00           1269         123.00       535.75
   85.24        2953.25           1272         109.00       474.72
   85.27        2953.50           1275         111.00       483.44
   85.30        2953.75           1279         116.00       505.24
   85.33        2954.00           1282         115.00       500.88
   85.35        2954.25           1285         114.00       496.52
   85.38        2954.50           1289         120.00       522.68
   85.41        2954.75           1292         113.00       492.16
   85.44        2955.00           1295         114.00       496.52
   85.47        2955.25           1299         108.00       470.36
   85.49        2955.50           1302         112.00       487.80
   85.52        2955.75           1305         122.00       531.39
   85.55        2956.00           1309         111.00       483.44
   85.58        2956.25           1312         119.00       518.32
   85.60        2956.50           1315         112.00       487.80
   85.63        2956.75           1319         118.00       513.96
   85.66        2957.00           1322         113.00       492.16
   85.69        2957.25           1325         116.00       505.24
   85.72        2957.50           1329         125.00       544.47
   85.74        2957.75           1332         125.00       544.47
   85.77        2958.00           1335         112.00       487.80
   85.80        2958.25           1339         108.00       470.36
   85.83        2958.50           1342         126.00       548.83
   85.86        2958.75           1345         107.00       466.00
   85.89        2959.00           1349         128.00       557.55
   85.91        2959.25           1352         115.00       500.88
   85.94        2959.50           1355         121.00       527.04
   85.97        2959.75           1359         118.00       513.96
   86.00        2960.00           1362         117.00       509.60
   86.02        2960.25           1365         119.00       518.32
   86.05        2960.50           1369         117.00       509.60
   86.08        2960.75           1372         119.00       518.32
   86.11        2961.00           1375         127.00       553.19
   86.13        2961.25           1379         150.00       653.46
   86.16        2961.50           1382         205.00       893.22
   86.19        2961.75           1385         679.00      2959.72
   86.22        2962.00           1389        2810.00     12253.41
   86.25        2962.25           1392        5056.00     22054.26
   86.27        2962.50           1395        7554.00     32961.52
   86.30        2962.75           1399       11807.00     51548.28
   86.33        2963.00           1402       14822.00     64737.20
   86.36        2963.25           1405       17582.00     76819.82
   86.38        2963.50           1409       21892.00     95705.52
   86.41        2963.75           1412       24989.00    109289.30
   86.44        2964.00           1415       27956.00    122313.30
   86.47        2964.25           1419       31398.00    137435.20
   86.50        2964.50           1422       34041.00    149056.10
   86.52        2964.75           1425       36978.00    161979.20
   86.55        2965.00           1429       40689.00    178322.40
   86.58        2965.25           1432       43740.00    191771.00
   86.61        2965.50           1435       46484.00    203875.70
   86.64        2965.75           1439       49978.00    219301.60
   86.67        2966.00           1442       52703.00    231342.40
   86.69        2966.25           1445       55664.00    244435.90
   86.72        2966.50           1449       58647.00    257637.10
   86.75        2966.75           1452       60739.00    266901.50
   86.78        2967.00           1455       61115.00    268567.10
   86.81        2967.25           1459       61385.00    269763.30
   86.84        2967.50           1462       61232.00    269085.50
   86.87        2967.75           1465       61207.00    268974.70
   86.89        2968.00           1469       60380.00    265311.30
   86.92        2968.25           1472       58506.00    257012.80
   86.95        2968.50           1475       55956.00    245727.70
   86.98        2968.75           1479       52581.00    230803.10
   87.02        2969.00           1482       49858.00    218771.60
   87.05        2969.25           1485       46807.00    205301.10
   87.08        2969.50           1489       43147.00    189156.20
   87.11        2969.75           1492       40709.00    178410.50
   87.13        2970.00           1495       38155.00    167160.90
   87.16        2970.25           1499       34365.00    150481.20
   87.19        2970.50           1502       31474.00    137769.20
   87.22        2970.75           1505       28161.00    123213.50
   87.24        2971.00           1509       23978.00    104853.70
   87.27        2971.25           1512       21102.00     92242.27
   87.30        2971.50           1515       18501.00     80844.93
   87.33        2971.75           1519       14881.00     64995.41
   87.36        2972.00           1522       12288.00     53651.68
   87.38        2972.25           1525        9440.00     41201.29
   87.41        2972.50           1529        5721.00     24957.22
   87.44        2972.75           1532        3397.00     14814.34
   87.47        2973.00           1536        1228.00      5353.52
   87.49        2973.25           1539         505.00      2201.10
   87.52        2973.50           1542         190.00       827.83
   87.55        2973.75           1546         154.00       670.89
   87.58        2974.00           1549         152.00       662.18
   87.61        2974.25           1552         139.00       605.50
   87.64        2974.50           1556         129.00       561.91
   87.67        2974.75           1559         127.00       553.19
   87.69        2975.00           1562         118.00       513.96
   87.72        2975.25           1566         107.00       466.00
   87.75        2975.50           1569         108.00       470.36
   87.78        2975.75           1572         104.00       452.93
   87.80        2976.00           1576          96.00       418.05
   87.83        2976.25           1579         102.00       444.21
   87.86        2976.50           1582         103.00       448.57
   87.89        2976.75           1586         100.00       435.49
   87.91        2977.00           1589          91.00       396.26
   87.94        2977.25           1592         104.00       452.93
   87.97        2977.50           1596         111.00       483.44
   88.00        2977.75           1599         106.00       461.65
   88.03        2978.00           1602          95.00       413.69
   88.06        2978.25           1606         103.00       448.57
   88.09        2978.50           1609         102.00       444.21
   88.11        2978.75           1612         110.00       479.08
   88.14        2979.00           1616         105.00       457.29
   88.17        2979.25           1619         102.00       444.21
   88.20        2979.50           1623         102.00       444.21
   88.23        2979.75           1626         105.00       457.29
   88.26        2980.00           1629         107.00       466.00
   88.28        2980.25           1633         111.00       483.44
   88.31        2980.50           1636         103.00       448.57
   88.35        2980.75           1639          98.00       426.77
   88.38        2981.00           1643          97.00       422.41
   88.40        2981.25           1646          99.00       431.13
   88.43        2981.50           1649          96.00       418.05
   88.46        2981.75           1653          97.00       422.41
   88.49        2982.00           1656          97.00       422.41
   88.52        2982.25           1659         104.00       452.93
   88.55        2982.50           1663          98.00       426.77
   88.58        2982.75           1666         100.00       435.49
   88.60        2983.00           1669         109.00       474.72
   88.63        2983.25           1673          98.00       426.77
   88.66        2983.50           1676          90.00       391.90
   88.69        2983.75           1679          87.00       378.82
   88.72        2984.00           1683          98.00       426.77
HS scan finished at 01:29:01
end
