************************************************************
  HS Scan of (1) Internal mercury lamp
************************************************************
Integration time is 0.2294 seconds per sample
dh220617Delft 51.997-4.386 3.287017pr1000
************************************************************
Dead Time -------------------------  3E-08 
Number of Cycles Used -------------  4 
Starting Wavelength (Angstroms) ---  2950 
Final Wavelength (Angstoms) -------  2984 
Wavelength Increment (Angstroms) --  .25 
Filter Wheel #1 Position ---------- (1) Ground quartz diffuser (ND=2.32)
Filter Wheel #2 Position ---------- (1) Neutral Density 0.494



************************************************************
HS scan start time = 01:21:41
Dark Count =  .3 


Time (GMT)  Wavelength (Ang)  Step Number  Raw Counts  Counts/Second

   82.12        2950.00           1229         105.00       456.41
   82.22        2950.25           1232         106.00       460.77
   82.25        2950.50           1236         109.00       473.85
   82.28        2950.75           1239         107.00       465.13
   82.31        2951.00           1242          96.00       417.18
   82.33        2951.25           1246         107.00       465.13
   82.36        2951.50           1249         113.00       491.29
   82.39        2951.75           1252         100.00       434.62
   82.42        2952.00           1255          98.00       425.90
   82.45        2952.25           1259         105.00       456.41
   82.48        2952.50           1262          98.00       425.90
   82.50        2952.75           1265         104.00       452.05
   82.53        2953.00           1269         111.00       482.57
   82.56        2953.25           1272          98.00       425.90
   82.59        2953.50           1275         101.00       438.98
   82.61        2953.75           1279         106.00       460.77
   82.64        2954.00           1282         112.00       486.93
   82.67        2954.25           1285         107.00       465.13
   82.70        2954.50           1289         115.00       500.01
   82.72        2954.75           1292          95.00       412.82
   82.75        2955.00           1295         100.00       434.62
   82.78        2955.25           1299          93.00       404.10
   82.81        2955.50           1302         100.00       434.62
   82.84        2955.75           1305          98.00       425.90
   82.87        2956.00           1309         105.00       456.41
   82.89        2956.25           1312         117.00       508.73
   82.92        2956.50           1315         100.00       434.62
   82.95        2956.75           1319         103.00       447.70
   82.98        2957.00           1322         100.00       434.62
   83.00        2957.25           1325          98.00       425.90
   83.03        2957.50           1329          94.00       408.46
   83.06        2957.75           1332         109.00       473.85
   83.09        2958.00           1335         100.00       434.62
   83.11        2958.25           1339         106.00       460.77
   83.14        2958.50           1342         101.00       438.98
   83.17        2958.75           1345         104.00       452.05
   83.20        2959.00           1349         101.00       438.98
   83.22        2959.25           1352         107.00       465.13
   83.25        2959.50           1355          97.00       421.54
   83.28        2959.75           1359         104.00       452.05
   83.31        2960.00           1362         105.00       456.41
   83.34        2960.25           1365         104.00       452.05
   83.36        2960.50           1369         114.00       495.65
   83.39        2960.75           1372         121.00       526.16
   83.42        2961.00           1375         122.00       530.52
   83.45        2961.25           1379         145.00       630.79
   83.47        2961.50           1382         223.00       970.82
   83.50        2961.75           1385         992.00      4323.58
   83.53        2962.00           1389        3954.00     17243.88
   83.56        2962.25           1392        6572.00     28672.00
   83.58        2962.50           1395        8997.00     39264.62
   83.61        2962.75           1399       13046.00     56966.06
   83.64        2963.00           1402       16463.00     71919.18
   83.67        2963.25           1405       19940.00     87148.64
   83.70        2963.50           1409       24939.00    109069.00
   83.73        2963.75           1412       27967.00    122360.70
   83.76        2964.00           1415       30910.00    135289.50
   83.78        2964.25           1419       35723.00    156454.90
   83.81        2964.50           1422       38916.00    170511.20
   83.84        2964.75           1425       41942.00    183843.40
   83.87        2965.00           1429       46926.00    205825.40
   83.90        2965.25           1432       50237.00    220444.80
   83.92        2965.50           1435       53217.00    233613.70
   83.95        2965.75           1439       57854.00    254125.80
   83.98        2966.00           1442       61117.00    268575.10
   84.01        2966.25           1445       64315.00    282748.80
   84.03        2966.50           1449       67156.00    295350.40
   84.06        2966.75           1452       68287.00    300369.80
   84.09        2967.00           1455       68898.00    303082.00
   84.12        2967.25           1459       68835.00    302802.30
   84.15        2967.50           1462       69154.00    304218.50
   84.17        2967.75           1465       68861.00    302917.80
   84.20        2968.00           1469       67116.00    295172.90
   84.23        2968.25           1472       65101.00    286234.20
   84.26        2968.50           1475       62226.00    273488.90
   84.28        2968.75           1479       58096.00    255197.00
   84.31        2969.00           1482       55082.00    241860.60
   84.34        2969.25           1485       51895.00    227770.40
   84.38        2969.50           1489       48393.00    212301.20
   84.41        2969.75           1492       45438.00    199259.50
   84.43        2970.00           1495       42164.00    184821.90
   84.46        2970.25           1499       38148.00    167129.20
   84.49        2970.50           1502       34432.00    150775.10
   84.52        2970.75           1505       30764.00    134647.90
   84.54        2971.00           1509       26794.00    117210.50
   84.57        2971.25           1512       23713.00    103690.40
   84.60        2971.50           1515       20473.00     89484.46
   84.63        2971.75           1519       16037.00     70054.22
   84.66        2972.00           1522       13120.00     57289.75
   84.68        2972.25           1525       10600.00     46270.37
   84.71        2972.50           1529        6468.00     28217.86
   84.74        2972.75           1532        3469.00     15127.61
   84.77        2973.00           1536         877.00      3822.15
   84.80        2973.25           1539         280.00      1219.31
   84.83        2973.50           1542         175.00       761.57
   84.86        2973.75           1546         155.00       674.38
   84.89        2974.00           1549         125.00       543.60
   84.91        2974.25           1552         121.00       526.16
   84.94        2974.50           1556         111.00       482.57
   84.97        2974.75           1559         114.00       495.65
   85.00        2975.00           1562          96.00       417.18
   85.02        2975.25           1566          95.00       412.82
   85.05        2975.50           1569         103.00       447.70
   85.08        2975.75           1572          95.00       412.82
   85.11        2976.00           1576          92.00       399.74
   85.13        2976.25           1579          95.00       412.82
   85.16        2976.50           1582         103.00       447.70
   85.19        2976.75           1586          98.00       425.90
   85.22        2977.00           1589          97.00       421.54
   85.25        2977.25           1592          96.00       417.18
   85.27        2977.50           1596          91.00       395.38
   85.31        2977.75           1599          94.00       408.46
   85.34        2978.00           1602          95.00       412.82
   85.37        2978.25           1606         102.00       443.34
   85.40        2978.50           1609          98.00       425.90
   85.43        2978.75           1612         100.00       434.62
   85.45        2979.00           1616          97.00       421.54
   85.49        2979.25           1619         107.00       465.13
   85.52        2979.50           1623          91.00       395.38
   85.55        2979.75           1626          91.00       395.38
   85.57        2980.00           1629          94.00       408.46
   85.60        2980.25           1633          91.00       395.38
   85.63        2980.50           1636          95.00       412.82
   85.66        2980.75           1639          93.00       404.10
   85.68        2981.00           1643          99.00       430.26
   85.71        2981.25           1646          94.00       408.46
   85.74        2981.50           1649          86.00       373.59
   85.77        2981.75           1653          97.00       421.54
   85.79        2982.00           1656          83.00       360.51
   85.82        2982.25           1659          94.00       408.46
   85.85        2982.50           1663          90.00       391.02
   85.88        2982.75           1666          87.00       377.95
   85.90        2983.00           1669          90.00       391.02
   85.93        2983.25           1673          88.00       382.31
   85.96        2983.50           1676          83.00       360.51
   85.99        2983.75           1679          84.00       364.87
   86.02        2984.00           1683          92.00       399.74
HS scan finished at 01:26:19
end
