************************************************************
  HS Scan of (1) Internal mercury lamp
************************************************************
Integration time is 0.2294 seconds per sample
dh210617Delft 51.997-4.386 2.857833pr1000
************************************************************
Dead Time -------------------------  3E-08 
Number of Cycles Used -------------  4 
Starting Wavelength (Angstroms) ---  2950 
Final Wavelength (Angstoms) -------  2984 
Wavelength Increment (Angstroms) --  .25 
Filter Wheel #1 Position ---------- (1) Ground quartz diffuser (ND=2.32)
Filter Wheel #2 Position ---------- (1) Neutral Density 0.494



************************************************************
HS scan start time = 01:55:21
Dark Count =  .1 


Time (GMT)  Wavelength (Ang)  Step Number  Raw Counts  Counts/Second

  115.81        2950.00           1229         118.00       513.96
  115.91        2950.25           1232         122.00       531.39
  115.93        2950.50           1236         127.00       553.19
  115.96        2950.75           1239         119.00       518.32
  115.99        2951.00           1242         135.00       588.07
  116.02        2951.25           1246         123.00       535.75
  116.04        2951.50           1249         135.00       588.07
  116.07        2951.75           1252         123.00       535.75
  116.10        2952.00           1255         120.00       522.68
  116.13        2952.25           1259         128.00       557.55
  116.17        2952.50           1262         119.00       518.32
  116.19        2952.75           1265         131.00       570.63
  116.22        2953.00           1269         124.00       540.11
  116.25        2953.25           1272         116.00       505.24
  116.28        2953.50           1275         120.00       522.68
  116.30        2953.75           1279         115.00       500.88
  116.33        2954.00           1282         129.00       561.91
  116.37        2954.25           1285         118.00       513.96
  116.40        2954.50           1289         117.00       509.60
  116.42        2954.75           1292         112.00       487.80
  116.45        2955.00           1295         112.00       487.80
  116.48        2955.25           1299         116.00       505.24
  116.51        2955.50           1302         114.00       496.52
  116.54        2955.75           1305         125.00       544.47
  116.57        2956.00           1309         116.00       505.24
  116.59        2956.25           1312         124.00       540.11
  116.62        2956.50           1315         119.00       518.32
  116.65        2956.75           1319         115.00       500.88
  116.68        2957.00           1322         111.00       483.44
  116.71        2957.25           1325         110.00       479.08
  116.73        2957.50           1329         126.00       548.83
  116.76        2957.75           1332         119.00       518.32
  116.79        2958.00           1335         113.00       492.16
  116.82        2958.25           1339         114.00       496.52
  116.84        2958.50           1342         114.00       496.52
  116.87        2958.75           1345         110.00       479.08
  116.90        2959.00           1349         112.00       487.80
  116.93        2959.25           1352         108.00       470.36
  116.95        2959.50           1355         117.00       509.60
  116.98        2959.75           1359         112.00       487.80
  117.01        2960.00           1362         118.00       513.96
  117.04        2960.25           1365         122.00       531.39
  117.06        2960.50           1369         112.00       487.80
  117.10        2960.75           1372         130.00       566.27
  117.13        2961.00           1375         134.00       583.71
  117.15        2961.25           1379         148.00       644.74
  117.18        2961.50           1382         222.00       967.33
  117.21        2961.75           1385         907.00      3953.83
  117.24        2962.00           1389        2816.00     12279.59
  117.26        2962.25           1392        4830.00     21067.80
  117.29        2962.50           1395        7659.00     33420.15
  117.32        2962.75           1399       11383.00     49694.35
  117.35        2963.00           1402       14301.00     62457.38
  117.37        2963.25           1405       17481.00     76377.51
  117.40        2963.50           1409       21598.00     94416.58
  117.43        2963.75           1412       24786.00    108398.60
  117.46        2964.00           1415       27668.00    121048.60
  117.49        2964.25           1419       31309.00    137044.00
  117.51        2964.50           1422       34667.00    151809.70
  117.54        2964.75           1425       36951.00    161860.40
  117.57        2965.00           1429       40301.00    176612.90
  117.60        2965.25           1432       43214.00    189451.60
  117.63        2965.50           1435       45701.00    200420.70
  117.65        2965.75           1439       49888.00    218904.10
  117.68        2966.00           1442       52735.00    231483.90
  117.71        2966.25           1445       55010.00    241543.00
  117.74        2966.50           1449       58539.00    257159.00
  117.77        2966.75           1452       59837.00    262906.30
  117.79        2967.00           1455       60364.00    265240.40
  117.82        2967.25           1459       60433.00    265546.00
  117.85        2967.50           1462       60607.00    266316.70
  117.88        2967.75           1465       60279.00    264863.90
  117.90        2968.00           1469       59742.00    262485.60
  117.93        2968.25           1472       58324.00    256207.10
  117.96        2968.50           1475       55965.00    245767.50
  117.99        2968.75           1479       51953.00    228027.60
  118.02        2969.00           1482       49082.00    215344.50
  118.04        2969.25           1485       46353.00    203297.60
  118.07        2969.50           1489       42550.00    186524.30
  118.10        2969.75           1492       39764.00    174247.20
  118.13        2970.00           1495       36819.00    161279.30
  118.16        2970.25           1499       33565.00    146962.60
  118.19        2970.50           1502       30998.00    135677.10
  118.22        2970.75           1505       28102.00    122954.50
  118.24        2971.00           1509       24366.00    106555.90
  118.27        2971.25           1512       21173.00     92553.49
  118.30        2971.50           1515       18187.00     79469.53
  118.33        2971.75           1519       14431.00     63026.21
  118.35        2972.00           1522       11874.00     51841.24
  118.38        2972.25           1525        9351.00     40812.36
  118.41        2972.50           1529        5522.00     24088.46
  118.44        2972.75           1532        2857.00     12458.45
  118.47        2973.00           1536         867.00      3779.42
  118.50        2973.25           1539         369.00      1608.19
  118.53        2973.50           1542         199.00       867.07
  118.56        2973.75           1546         154.00       670.89
  118.59        2974.00           1549         148.00       644.74
  118.61        2974.25           1552         129.00       561.91
  118.64        2974.50           1556         123.00       535.75
  118.67        2974.75           1559         120.00       522.68
  118.70        2975.00           1562         119.00       518.32
  118.72        2975.25           1566         107.00       466.00
  118.75        2975.50           1569         103.00       448.57
  118.78        2975.75           1572         110.00       479.08
  118.81        2976.00           1576         114.00       496.52
  118.84        2976.25           1579         107.00       466.00
  118.87        2976.50           1582         113.00       492.16
  118.89        2976.75           1586          97.00       422.41
  118.92        2977.00           1589         110.00       479.08
  118.95        2977.25           1592         107.00       466.00
  118.98        2977.50           1596         113.00       492.16
  119.00        2977.75           1599         103.00       448.57
  119.03        2978.00           1602         103.00       448.57
  119.06        2978.25           1606         105.00       457.29
  119.09        2978.50           1609         114.00       496.52
  119.12        2978.75           1612         103.00       448.57
  119.14        2979.00           1616         106.00       461.65
  119.17        2979.25           1619         105.00       457.29
  119.20        2979.50           1623          98.00       426.77
  119.23        2979.75           1626         104.00       452.93
  119.26        2980.00           1629         101.00       439.85
  119.29        2980.25           1633         113.00       492.16
  119.32        2980.50           1636         100.00       435.49
  119.35        2980.75           1639         106.00       461.65
  119.37        2981.00           1643         105.00       457.29
  119.40        2981.25           1646         101.00       439.85
  119.43        2981.50           1649         101.00       439.85
  119.46        2981.75           1653         104.00       452.93
  119.49        2982.00           1656          91.00       396.26
  119.51        2982.25           1659         104.00       452.93
  119.54        2982.50           1663          99.00       431.13
  119.57        2982.75           1666         103.00       448.57
  119.60        2983.00           1669          96.00       418.05
  119.62        2983.25           1673          99.00       431.13
  119.65        2983.50           1676         106.00       461.65
  119.68        2983.75           1679          94.00       409.33
  119.71        2984.00           1683         107.00       466.00
HS scan finished at 02:00:00
end
