************************************************************
  HS Scan of (1) Internal mercury lamp
************************************************************
Integration time is 0.2294 seconds per sample
dh270617Delft 51.997-4.386 2.750537pr1000
************************************************************
Dead Time -------------------------  3E-08 
Number of Cycles Used -------------  4 
Starting Wavelength (Angstroms) ---  2950 
Final Wavelength (Angstoms) -------  2984 
Wavelength Increment (Angstroms) --  .25 
Filter Wheel #1 Position ---------- (1) Ground quartz diffuser (ND=2.32)
Filter Wheel #2 Position ---------- (1) Neutral Density 0.494



************************************************************
HS scan start time = 01:14:59
Dark Count =  .1 


Time (GMT)  Wavelength (Ang)  Step Number  Raw Counts  Counts/Second

   75.42        2950.00           1229         131.00       570.63
   75.52        2950.25           1232         133.00       579.35
   75.55        2950.50           1236         113.00       492.16
   75.58        2950.75           1239         120.00       522.68
   75.61        2951.00           1242         120.00       522.68
   75.64        2951.25           1246         120.00       522.68
   75.66        2951.50           1249         120.00       522.68
   75.69        2951.75           1252         103.00       448.57
   75.72        2952.00           1255         124.00       540.11
   75.75        2952.25           1259         123.00       535.75
   75.77        2952.50           1262         113.00       492.16
   75.80        2952.75           1265         110.00       479.08
   75.83        2953.00           1269         115.00       500.88
   75.86        2953.25           1272         124.00       540.11
   75.89        2953.50           1275         122.00       531.39
   75.92        2953.75           1279         118.00       513.96
   75.94        2954.00           1282         124.00       540.11
   75.97        2954.25           1285         125.00       544.47
   76.00        2954.50           1289         116.00       505.24
   76.03        2954.75           1292         116.00       505.24
   76.05        2955.00           1295         116.00       505.24
   76.08        2955.25           1299         118.00       513.96
   76.11        2955.50           1302         117.00       509.60
   76.14        2955.75           1305         125.00       544.47
   76.17        2956.00           1309         127.00       553.19
   76.19        2956.25           1312         125.00       544.47
   76.22        2956.50           1315         123.00       535.75
   76.25        2956.75           1319         123.00       535.75
   76.28        2957.00           1322         115.00       500.88
   76.30        2957.25           1325         118.00       513.96
   76.33        2957.50           1329         123.00       535.75
   76.36        2957.75           1332         111.00       483.44
   76.39        2958.00           1335         121.00       527.04
   76.41        2958.25           1339         119.00       518.32
   76.44        2958.50           1342         127.00       553.19
   76.47        2958.75           1345         121.00       527.04
   76.50        2959.00           1349         120.00       522.68
   76.53        2959.25           1352         109.00       474.72
   76.56        2959.50           1355         120.00       522.68
   76.58        2959.75           1359         126.00       548.83
   76.61        2960.00           1362         107.00       466.00
   76.64        2960.25           1365         120.00       522.68
   76.67        2960.50           1369         115.00       500.88
   76.70        2960.75           1372         129.00       561.91
   76.72        2961.00           1375         133.00       579.35
   76.75        2961.25           1379         139.00       605.50
   76.78        2961.50           1382         201.00       875.79
   76.81        2961.75           1385         603.00      2628.37
   76.83        2962.00           1389        2265.00      9876.07
   76.86        2962.25           1392        4413.00     19247.82
   76.89        2962.50           1395        7087.00     30921.87
   76.92        2962.75           1399       10498.00     45825.38
   76.94        2963.00           1402       12792.00     55855.94
   76.97        2963.25           1405       15283.00     66754.74
   77.00        2963.50           1409       19407.00     84814.05
   77.03        2963.75           1412       22355.00     97735.59
   77.05        2964.00           1415       25340.00    110829.50
   77.08        2964.25           1419       28681.00    125497.30
   77.11        2964.50           1422       31106.00    136151.80
   77.14        2964.75           1425       33607.00    147147.30
   77.17        2965.00           1429       37572.00    164594.10
   77.19        2965.25           1432       40294.00    176582.00
   77.22        2965.50           1435       43279.00    189738.20
   77.25        2965.75           1439       47099.00    206589.80
   77.28        2966.00           1442       49561.00    217459.80
   77.30        2966.25           1445       52197.00    229105.90
   77.33        2966.50           1449       55203.00    242396.70
   77.36        2966.75           1452       56483.00    248059.30
   77.39        2967.00           1455       56923.00    250006.30
   77.41        2967.25           1459       57165.00    251077.20
   77.44        2967.50           1462       56983.00    250271.80
   77.47        2967.75           1465       56857.00    249714.20
   77.50        2968.00           1469       55683.00    244519.90
   77.53        2968.25           1472       53874.00    236519.30
   77.56        2968.50           1475       51880.00    227705.00
   77.59        2968.75           1479       48575.00    213105.70
   77.61        2969.00           1482       46108.00    202216.50
   77.64        2969.25           1485       43346.00    190033.70
   77.67        2969.50           1489       39864.00    174687.70
   77.70        2969.75           1492       37629.00    164845.00
   77.73        2970.00           1495       35173.00    154035.80
   77.75        2970.25           1499       31684.00    138692.30
   77.78        2970.50           1502       29107.00    127368.50
   77.81        2970.75           1505       26419.00    115565.20
   77.84        2971.00           1509       22754.00     99485.24
   77.86        2971.25           1512       19873.00     86855.94
   77.89        2971.50           1515       17345.00     75781.95
   77.93        2971.75           1519       13961.00     60969.75
   77.95        2972.00           1522       11568.00     50503.23
   77.98        2972.25           1525        8944.00     39033.92
   78.01        2972.50           1529        5390.00     23512.22
   78.04        2972.75           1532        3511.00     15311.74
   78.06        2973.00           1536        1317.00      5741.62
   78.09        2973.25           1539         510.00      2222.90
   78.12        2973.50           1542         226.00       984.77
   78.15        2973.75           1546         152.00       662.18
   78.18        2974.00           1549         154.00       670.89
   78.21        2974.25           1552         130.00       566.27
   78.23        2974.50           1556         117.00       509.60
   78.26        2974.75           1559         113.00       492.16
   78.29        2975.00           1562         105.00       457.29
   78.32        2975.25           1566         119.00       518.32
   78.35        2975.50           1569         116.00       505.24
   78.37        2975.75           1572         108.00       470.36
   78.40        2976.00           1576          98.00       426.77
   78.43        2976.25           1579         119.00       518.32
   78.46        2976.50           1582         106.00       461.65
   78.49        2976.75           1586         100.00       435.49
   78.52        2977.00           1589         112.00       487.80
   78.54        2977.25           1592         108.00       470.36
   78.57        2977.50           1596         115.00       500.88
   78.60        2977.75           1599         108.00       470.36
   78.63        2978.00           1602         103.00       448.57
   78.65        2978.25           1606          96.00       418.05
   78.68        2978.50           1609         106.00       461.65
   78.71        2978.75           1612         108.00       470.36
   78.74        2979.00           1616         108.00       470.36
   78.76        2979.25           1619         100.00       435.49
   78.79        2979.50           1623         104.00       452.93
   78.82        2979.75           1626         112.00       487.80
   78.85        2980.00           1629         109.00       474.72
   78.88        2980.25           1633         103.00       448.57
   78.90        2980.50           1636          99.00       431.13
   78.93        2980.75           1639          99.00       431.13
   78.96        2981.00           1643         108.00       470.36
   78.99        2981.25           1646          98.00       426.77
   79.01        2981.50           1649          95.00       413.69
   79.04        2981.75           1653          94.00       409.33
   79.07        2982.00           1656         105.00       457.29
   79.10        2982.25           1659         104.00       452.93
   79.12        2982.50           1663         110.00       479.08
   79.15        2982.75           1666         100.00       435.49
   79.18        2983.00           1669         111.00       483.44
   79.21        2983.25           1673          90.00       391.90
   79.24        2983.50           1676          96.00       418.05
   79.26        2983.75           1679         100.00       435.49
   79.29        2984.00           1683         114.00       496.52
HS scan finished at 01:19:35
end
