************************************************************
  HS Scan of (1) Internal mercury lamp
************************************************************
Integration time is 0.2294 seconds per sample
dh240617Delft 51.997-4.386 2.965129pr1000
************************************************************
Dead Time -------------------------  3E-08 
Number of Cycles Used -------------  4 
Starting Wavelength (Angstroms) ---  2950 
Final Wavelength (Angstoms) -------  2984 
Wavelength Increment (Angstroms) --  .25 
Filter Wheel #1 Position ---------- (1) Ground quartz diffuser (ND=2.32)
Filter Wheel #2 Position ---------- (1) Neutral Density 0.494



************************************************************
HS scan start time = 01:12:56
Dark Count =  .1 


Time (GMT)  Wavelength (Ang)  Step Number  Raw Counts  Counts/Second

   73.38        2950.00           1229         113.00       492.16
   73.48        2950.25           1232         120.00       522.68
   73.51        2950.50           1236         125.00       544.47
   73.54        2950.75           1239         111.00       483.44
   73.57        2951.00           1242         114.00       496.52
   73.59        2951.25           1246         116.00       505.24
   73.62        2951.50           1249         122.00       531.39
   73.65        2951.75           1252         116.00       505.24
   73.68        2952.00           1255         111.00       483.44
   73.70        2952.25           1259         124.00       540.11
   73.73        2952.50           1262         106.00       461.65
   73.76        2952.75           1265         109.00       474.72
   73.79        2953.00           1269         109.00       474.72
   73.82        2953.25           1272         121.00       527.04
   73.84        2953.50           1275         109.00       474.72
   73.87        2953.75           1279         121.00       527.04
   73.90        2954.00           1282         118.00       513.96
   73.93        2954.25           1285         104.00       452.93
   73.95        2954.50           1289         109.00       474.72
   73.98        2954.75           1292         113.00       492.16
   74.01        2955.00           1295         110.00       479.08
   74.04        2955.25           1299         107.00       466.00
   74.06        2955.50           1302         113.00       492.16
   74.09        2955.75           1305         114.00       496.52
   74.12        2956.00           1309         122.00       531.39
   74.15        2956.25           1312         119.00       518.32
   74.18        2956.50           1315         122.00       531.39
   74.20        2956.75           1319         121.00       527.04
   74.23        2957.00           1322         114.00       496.52
   74.26        2957.25           1325         111.00       483.44
   74.29        2957.50           1329         122.00       531.39
   74.31        2957.75           1332         109.00       474.72
   74.34        2958.00           1335         101.00       439.85
   74.37        2958.25           1339         113.00       492.16
   74.40        2958.50           1342         101.00       439.85
   74.43        2958.75           1345         116.00       505.24
   74.46        2959.00           1349         109.00       474.72
   74.48        2959.25           1352         111.00       483.44
   74.51        2959.50           1355         110.00       479.08
   74.54        2959.75           1359         115.00       500.88
   74.57        2960.00           1362         113.00       492.16
   74.60        2960.25           1365         113.00       492.16
   74.62        2960.50           1369         121.00       527.04
   74.65        2960.75           1372         121.00       527.04
   74.68        2961.00           1375         129.00       561.91
   74.71        2961.25           1379         139.00       605.50
   74.73        2961.50           1382         204.00       888.86
   74.76        2961.75           1385         753.00      3282.36
   74.79        2962.00           1389        2859.00     12467.17
   74.82        2962.25           1392        5213.00     22739.57
   74.85        2962.50           1395        8013.00     34966.48
   74.87        2962.75           1399       11474.00     50092.23
   74.90        2963.00           1402       14190.00     61971.69
   74.93        2963.25           1405       17439.00     76193.59
   74.96        2963.50           1409       21921.00     95832.68
   74.98        2963.75           1412       24636.00    107740.50
   75.01        2964.00           1415       28215.00    123450.70
   75.04        2964.25           1419       32177.00    140859.50
   75.07        2964.50           1422       35371.00    154907.00
   75.10        2964.75           1425       38274.00    167684.90
   75.13        2965.00           1429       42157.00    184791.90
   75.16        2965.25           1432       45246.00    198413.40
   75.18        2965.50           1435       47934.00    210275.70
   75.21        2965.75           1439       51072.00    224134.50
   75.24        2966.00           1442       53958.00    236890.70
   75.27        2966.25           1445       56686.00    248957.50
   75.30        2966.50           1449       60592.00    266250.30
   75.32        2966.75           1452       62252.00    273605.00
   75.35        2967.00           1455       62638.00    275315.60
   75.38        2967.25           1459       62684.00    275519.50
   75.41        2967.50           1462       62939.00    276649.70
   75.44        2967.75           1465       62445.00    274460.30
   75.47        2968.00           1469       61644.00    270910.90
   75.50        2968.25           1472       59929.00    263313.80
   75.52        2968.50           1475       57937.00    254494.00
   75.55        2968.75           1479       54570.00    239597.00
   75.58        2969.00           1482       51667.00    226763.70
   75.61        2969.25           1485       48698.00    213648.80
   75.63        2969.50           1489       44641.00    195744.60
   75.66        2969.75           1492       41637.00    182500.00
   75.69        2970.00           1495       38409.00    168279.40
   75.72        2970.25           1499       34872.00    152711.50
   75.75        2970.50           1502       31803.00    139215.40
   75.77        2970.75           1505       28435.00    124416.90
   75.80        2971.00           1509       24604.00    107600.10
   75.83        2971.25           1512       22506.00     98397.71
   75.86        2971.50           1515       19543.00     85409.94
   75.89        2971.75           1519       15830.00     69148.97
   75.91        2972.00           1522       12497.00     54565.71
   75.94        2972.25           1525        9370.00     40895.39
   75.97        2972.50           1529        5306.00     23145.54
   76.00        2972.75           1532        3151.00     13741.06
   76.02        2973.00           1536         974.00      4245.96
   76.05        2973.25           1539         386.00      1682.30
   76.08        2973.50           1542         187.00       814.75
   76.11        2973.75           1546         136.00       592.43
   76.14        2974.00           1549         141.00       614.22
   76.17        2974.25           1552         130.00       566.27
   76.19        2974.50           1556         122.00       531.39
   76.22        2974.75           1559         122.00       531.39
   76.25        2975.00           1562         107.00       466.00
   76.28        2975.25           1566         105.00       457.29
   76.30        2975.50           1569         105.00       457.29
   76.33        2975.75           1572         104.00       452.93
   76.36        2976.00           1576         103.00       448.57
   76.39        2976.25           1579          93.00       404.97
   76.41        2976.50           1582          97.00       422.41
   76.44        2976.75           1586         109.00       474.72
   76.47        2977.00           1589         106.00       461.65
   76.50        2977.25           1592         107.00       466.00
   76.53        2977.50           1596         108.00       470.36
   76.55        2977.75           1599          98.00       426.77
   76.58        2978.00           1602         102.00       444.21
   76.61        2978.25           1606         106.00       461.65
   76.64        2978.50           1609         105.00       457.29
   76.66        2978.75           1612         106.00       461.65
   76.69        2979.00           1616          89.00       387.54
   76.72        2979.25           1619         101.00       439.85
   76.75        2979.50           1623         102.00       444.21
   76.77        2979.75           1626         100.00       435.49
   76.80        2980.00           1629          96.00       418.05
   76.83        2980.25           1633          99.00       431.13
   76.86        2980.50           1636         102.00       444.21
   76.88        2980.75           1639         101.00       439.85
   76.91        2981.00           1643          94.00       409.33
   76.94        2981.25           1646          97.00       422.41
   76.97        2981.50           1649         105.00       457.29
   76.99        2981.75           1653         105.00       457.29
   77.02        2982.00           1656          98.00       426.77
   77.05        2982.25           1659         100.00       435.49
   77.08        2982.50           1663         103.00       448.57
   77.10        2982.75           1666         107.00       466.00
   77.13        2983.00           1669          95.00       413.69
   77.16        2983.25           1673         100.00       435.49
   77.19        2983.50           1676         101.00       439.85
   77.22        2983.75           1679          90.00       391.90
   77.24        2984.00           1683          96.00       418.05
HS scan finished at 01:17:33
end
