************************************************************
  HS Scan of (1) Internal mercury lamp
************************************************************
Integration time is 0.2294 seconds per sample
dh250617Delft 51.997-4.386 2.965129pr1000
************************************************************
Dead Time -------------------------  3E-08 
Number of Cycles Used -------------  4 
Starting Wavelength (Angstroms) ---  2950 
Final Wavelength (Angstoms) -------  2984 
Wavelength Increment (Angstroms) --  .25 
Filter Wheel #1 Position ---------- (1) Ground quartz diffuser (ND=2.32)
Filter Wheel #2 Position ---------- (1) Neutral Density 0.494



************************************************************
HS scan start time = 01:24:22
Dark Count =  .1 


Time (GMT)  Wavelength (Ang)  Step Number  Raw Counts  Counts/Second

   84.82        2950.00           1229         115.00       500.88
   84.92        2950.25           1232         123.00       535.75
   84.95        2950.50           1236         122.00       531.39
   84.98        2950.75           1239         108.00       470.36
   85.01        2951.00           1242         108.00       470.36
   85.03        2951.25           1246         116.00       505.24
   85.06        2951.50           1249         108.00       470.36
   85.09        2951.75           1252         114.00       496.52
   85.12        2952.00           1255         119.00       518.32
   85.14        2952.25           1259         115.00       500.88
   85.17        2952.50           1262         116.00       505.24
   85.20        2952.75           1265         119.00       518.32
   85.23        2953.00           1269         116.00       505.24
   85.25        2953.25           1272         114.00       496.52
   85.28        2953.50           1275         121.00       527.04
   85.31        2953.75           1279         116.00       505.24
   85.34        2954.00           1282         113.00       492.16
   85.37        2954.25           1285         123.00       535.75
   85.39        2954.50           1289         115.00       500.88
   85.42        2954.75           1292         113.00       492.16
   85.45        2955.00           1295         115.00       500.88
   85.48        2955.25           1299         106.00       461.65
   85.50        2955.50           1302         121.00       527.04
   85.53        2955.75           1305         114.00       496.52
   85.56        2956.00           1309         105.00       457.29
   85.59        2956.25           1312         115.00       500.88
   85.61        2956.50           1315         111.00       483.44
   85.64        2956.75           1319         103.00       448.57
   85.67        2957.00           1322         117.00       509.60
   85.70        2957.25           1325         114.00       496.52
   85.72        2957.50           1329         101.00       439.85
   85.75        2957.75           1332         116.00       505.24
   85.78        2958.00           1335         119.00       518.32
   85.81        2958.25           1339         110.00       479.08
   85.84        2958.50           1342         117.00       509.60
   85.86        2958.75           1345         114.00       496.52
   85.89        2959.00           1349         111.00       483.44
   85.92        2959.25           1352         122.00       531.39
   85.95        2959.50           1355         116.00       505.24
   85.97        2959.75           1359         116.00       505.24
   86.00        2960.00           1362         116.00       505.24
   86.03        2960.25           1365         110.00       479.08
   86.06        2960.50           1369         116.00       505.24
   86.08        2960.75           1372         139.00       605.50
   86.11        2961.00           1375         135.00       588.07
   86.14        2961.25           1379         146.00       636.02
   86.17        2961.50           1382         204.00       888.86
   86.20        2961.75           1385         708.00      3086.16
   86.22        2962.00           1389        2922.00     12742.01
   86.25        2962.25           1392        5202.00     22691.55
   86.28        2962.50           1395        7775.00     33926.84
   86.31        2962.75           1399       12037.00     52554.03
   86.34        2963.00           1402       15145.00     66150.77
   86.37        2963.25           1405       18052.00     78878.24
   86.39        2963.50           1409       22651.00     99033.56
   86.42        2963.75           1412       25666.00    112260.20
   86.45        2964.00           1415       28710.00    125624.70
   86.48        2964.25           1419       32345.00    141598.10
   86.51        2964.50           1422       34813.00    152452.00
   86.53        2964.75           1425       37599.00    164713.00
   86.56        2965.00           1429       41342.00    181199.90
   86.59        2965.25           1432       44691.00    195965.10
   86.62        2965.50           1435       47605.00    208823.30
   86.65        2965.75           1439       51133.00    224404.10
   86.67        2966.00           1442       54133.00    237664.50
   86.70        2966.25           1445       56708.00    249054.90
   86.73        2966.50           1449       60054.00    263867.40
   86.76        2966.75           1452       61812.00    271655.20
   86.78        2967.00           1455       62395.00    274238.70
   86.81        2967.25           1459       62587.00    275089.60
   86.84        2967.50           1462       62533.00    274850.20
   86.87        2967.75           1465       62413.00    274318.50
   86.90        2968.00           1469       62000.00    272488.30
   86.93        2968.25           1472       59982.00    263548.50
   86.96        2968.50           1475       57022.00    250444.40
   86.98        2968.75           1479       53713.00    235807.40
   87.01        2969.00           1482       51062.00    224090.40
   87.04        2969.25           1485       47828.00    209807.70
   87.07        2969.50           1489       43914.00    192538.30
   87.09        2969.75           1492       41346.00    181217.50
   87.12        2970.00           1495       38882.00    170362.40
   87.15        2970.25           1499       35378.00    154937.80
   87.18        2970.50           1502       32100.00    140521.00
   87.21        2970.75           1505       28585.00    125075.70
   87.23        2971.00           1509       24469.00    107007.80
   87.26        2971.25           1512       21702.00     94872.52
   87.29        2971.50           1515       18898.00     82584.04
   87.32        2971.75           1519       15308.00     66864.16
   87.34        2972.00           1522       12571.00     54889.36
   87.37        2972.25           1525        9769.00     42639.08
   87.40        2972.50           1529        5762.00     25136.21
   87.43        2972.75           1532        3455.00     15067.40
   87.46        2973.00           1536        1172.00      5109.33
   87.48        2973.25           1539         485.00      2113.91
   87.51        2973.50           1542         202.00       880.15
   87.54        2973.75           1546         147.00       640.38
   87.57        2974.00           1549         136.00       592.43
   87.59        2974.25           1552         137.00       596.78
   87.62        2974.50           1556         106.00       461.65
   87.65        2974.75           1559         124.00       540.11
   87.68        2975.00           1562         111.00       483.44
   87.71        2975.25           1566         113.00       492.16
   87.73        2975.50           1569         112.00       487.80
   87.76        2975.75           1572         107.00       466.00
   87.79        2976.00           1576          98.00       426.77
   87.82        2976.25           1579         111.00       483.44
   87.84        2976.50           1582         107.00       466.00
   87.87        2976.75           1586         109.00       474.72
   87.90        2977.00           1589         106.00       461.65
   87.93        2977.25           1592         105.00       457.29
   87.95        2977.50           1596         108.00       470.36
   87.98        2977.75           1599         110.00       479.08
   88.01        2978.00           1602         106.00       461.65
   88.04        2978.25           1606         104.00       452.93
   88.06        2978.50           1609         111.00       483.44
   88.09        2978.75           1612         110.00       479.08
   88.12        2979.00           1616          98.00       426.77
   88.15        2979.25           1619         107.00       466.00
   88.18        2979.50           1623         105.00       457.29
   88.20        2979.75           1626         101.00       439.85
   88.23        2980.00           1629         102.00       444.21
   88.26        2980.25           1633         111.00       483.44
   88.29        2980.50           1636         105.00       457.29
   88.32        2980.75           1639          94.00       409.33
   88.35        2981.00           1643          88.00       383.18
   88.38        2981.25           1646          94.00       409.33
   88.40        2981.50           1649          92.00       400.62
   88.43        2981.75           1653         104.00       452.93
   88.46        2982.00           1656         100.00       435.49
   88.49        2982.25           1659          96.00       418.05
   88.51        2982.50           1663          91.00       396.26
   88.54        2982.75           1666         102.00       444.21
   88.57        2983.00           1669         100.00       435.49
   88.60        2983.25           1673          94.00       409.33
   88.62        2983.50           1676         110.00       479.08
   88.65        2983.75           1679          91.00       396.26
   88.68        2984.00           1683          96.00       418.05
HS scan finished at 01:28:59
end
