************************************************************
  HS Scan of (1) Internal mercury lamp
************************************************************
Integration time is 0.2294 seconds per sample
dh220619El Arenosillo 37.1 6.73 2.965129pr1000
************************************************************
Dead Time -------------------------  2.8E-08 
Number of Cycles Used -------------  4 
Starting Wavelength (Angstroms) ---  2950 
Final Wavelength (Angstoms) -------  2984 
Wavelength Increment (Angstroms) --  .25 
Filter Wheel #1 Position ---------- (1) Ground quartz diffuser (ND=2.32)
Filter Wheel #2 Position ---------- (1) Neutral Density 0.494



************************************************************
HS scan start time = 03:30:39
Dark Count =  .2 


Time (GMT)  Wavelength (Ang)  Step Number  Raw Counts  Counts/Second

  211.09        2950.00           1232         117.00       509.16
  211.19        2950.25           1236         105.00       456.85
  211.22        2950.50           1239         127.00       552.75
  211.25        2950.75           1242         116.00       504.80
  211.28        2951.00           1246         122.00       530.96
  211.31        2951.25           1249         112.00       487.36
  211.33        2951.50           1252         116.00       504.80
  211.36        2951.75           1256         113.00       491.72
  211.39        2952.00           1259         119.00       517.88
  211.42        2952.25           1262         120.00       522.24
  211.45        2952.50           1265         117.00       509.16
  211.47        2952.75           1269         115.00       500.44
  211.50        2953.00           1272         120.00       522.24
  211.53        2953.25           1275         113.00       491.72
  211.56        2953.50           1279         118.00       513.52
  211.59        2953.75           1282         110.00       478.65
  211.62        2954.00           1285         116.00       504.80
  211.65        2954.25           1289         111.00       483.01
  211.67        2954.50           1292         123.00       535.32
  211.70        2954.75           1295         123.00       535.32
  211.73        2955.00           1299         120.00       522.24
  211.76        2955.25           1302         112.00       487.36
  211.79        2955.50           1305         109.00       474.29
  211.82        2955.75           1309         114.00       496.08
  211.85        2956.00           1312         111.00       483.01
  211.87        2956.25           1315         122.00       530.96
  211.90        2956.50           1318         112.00       487.36
  211.93        2956.75           1322         112.00       487.36
  211.96        2957.00           1325         106.00       461.21
  211.99        2957.25           1328         106.00       461.21
  212.02        2957.50           1332         109.00       474.29
  212.04        2957.75           1335         105.00       456.85
  212.07        2958.00           1338         116.00       504.80
  212.10        2958.25           1342         112.00       487.36
  212.13        2958.50           1345         109.00       474.29
  212.16        2958.75           1348         113.00       491.72
  212.19        2959.00           1352         109.00       474.29
  212.21        2959.25           1355         112.00       487.36
  212.24        2959.50           1358         111.00       483.01
  212.27        2959.75           1362         107.00       465.57
  212.30        2960.00           1365         123.00       535.32
  212.33        2960.25           1368         108.00       469.93
  212.36        2960.50           1372         130.00       565.83
  212.39        2960.75           1375         147.00       639.94
  212.41        2961.00           1378         146.00       635.58
  212.44        2961.25           1382         217.00       945.10
  212.47        2961.50           1385         736.00      3207.79
  212.50        2961.75           1388        2010.00      8763.27
  212.53        2962.00           1391        4026.00     17557.89
  212.56        2962.25           1395        7776.00     33928.47
  212.58        2962.50           1398       10839.00     47311.11
  212.61        2962.75           1401       13722.00     59916.48
  212.64        2963.00           1405       17567.00     76741.90
  212.67        2963.25           1408       21218.00     92733.07
  212.70        2963.50           1411       25031.00    109449.10
  212.73        2963.75           1415       28881.00    126343.30
  212.75        2964.00           1418       32473.00    142119.80
  212.78        2964.25           1421       35738.00    156472.20
  212.81        2964.50           1425       39944.00    174978.10
  212.84        2964.75           1428       43567.00    190934.40
  212.87        2965.00           1431       46420.00    203509.50
  212.90        2965.25           1435       50409.00    221106.60
  212.93        2965.50           1438       53553.00    234988.30
  212.96        2965.75           1441       56386.00    247506.20
  212.98        2966.00           1445       59726.00    262275.60
  213.01        2966.25           1448       62992.00    276729.70
  213.04        2966.50           1451       65088.00    286012.00
  213.07        2966.75           1455       66282.00    291301.80
  213.10        2967.00           1458       66548.00    292480.50
  213.13        2967.25           1461       66678.00    293056.60
  213.15        2967.50           1465       66239.00    291111.30
  213.18        2967.75           1468       65733.00    288869.30
  213.21        2968.00           1471       64321.00    282614.70
  213.24        2968.25           1475       61569.00    270430.60
  213.27        2968.50           1478       59023.00    259166.00
  213.30        2968.75           1481       56118.00    246321.70
  213.33        2969.00           1485       52325.00    229565.00
  213.35        2969.25           1488       49386.00    216592.10
  213.38        2969.50           1491       45836.00    200934.70
  213.41        2969.75           1495       41451.00    181613.40
  213.44        2970.00           1498       37935.00    166136.40
  213.47        2970.25           1501       35175.00    153996.50
  213.50        2970.50           1505       30963.00    135486.00
  213.53        2970.75           1508       27512.00    120334.20
  213.55        2971.00           1511       24252.00    106032.70
  213.58        2971.25           1515       21026.00     91891.76
  213.61        2971.50           1518       17996.00     78620.15
  213.64        2971.75           1521       15085.00     65879.04
  213.67        2972.00           1525       10960.00     47839.98
  213.70        2972.25           1528        7498.00     32714.35
  213.73        2972.50           1531        4403.00     19203.00
  213.75        2972.75           1535        1660.00      7236.86
  213.78        2973.00           1538         609.00      2654.08
  213.81        2973.25           1541         250.00      1088.96
  213.84        2973.50           1544         187.00       814.32
  213.87        2973.75           1548         148.00       644.30
  213.89        2974.00           1551         141.00       613.79
  213.92        2974.25           1554         130.00       565.83
  213.95        2974.50           1558         125.00       544.04
  213.98        2974.75           1561         120.00       522.24
  214.01        2975.00           1564         105.00       456.85
  214.04        2975.25           1568         106.00       461.21
  214.07        2975.50           1571         103.00       448.13
  214.09        2975.75           1574         106.00       461.21
  214.12        2976.00           1578         109.00       474.29
  214.15        2976.25           1581         115.00       500.44
  214.18        2976.50           1584         107.00       465.57
  214.21        2976.75           1588         108.00       469.93
  214.24        2977.00           1591         100.00       435.05
  214.26        2977.25           1595         114.00       496.08
  214.29        2977.50           1598         100.00       435.05
  214.32        2977.75           1601         109.00       474.29
  214.35        2978.00           1605         105.00       456.85
  214.38        2978.25           1608         100.00       435.05
  214.41        2978.50           1611         108.00       469.93
  214.44        2978.75           1615          93.00       404.54
  214.46        2979.00           1618          99.00       430.69
  214.49        2979.25           1621          96.00       417.62
  214.52        2979.50           1625         103.00       448.13
  214.55        2979.75           1628          99.00       430.69
  214.58        2980.00           1631         100.00       435.05
  214.61        2980.25           1635         103.00       448.13
  214.63        2980.50           1638         108.00       469.93
  214.66        2980.75           1641         100.00       435.05
  214.69        2981.00           1645          99.00       430.69
  214.72        2981.25           1648          92.00       400.18
  214.75        2981.50           1651         103.00       448.13
  214.78        2981.75           1655          94.00       408.90
  214.80        2982.00           1658          89.00       387.10
  214.83        2982.25           1661         104.00       452.49
  214.86        2982.50           1665          97.00       421.98
  214.89        2982.75           1668          93.00       404.54
  214.92        2983.00           1671         100.00       435.05
  214.95        2983.25           1675          98.00       426.33
  214.97        2983.50           1678          96.00       417.62
  215.00        2983.75           1681          92.00       400.18
  215.03        2984.00           1685          95.00       413.26
HS scan finished at 03:35:20
end
