************************************************************
  HS Scan of (1) Internal mercury lamp
************************************************************
Integration time is 0.2294 seconds per sample
dh290617Delft 51.997-4.386 2.911481pr1000
************************************************************
Dead Time -------------------------  3E-08 
Number of Cycles Used -------------  4 
Starting Wavelength (Angstroms) ---  2950 
Final Wavelength (Angstoms) -------  2984 
Wavelength Increment (Angstroms) --  .25 
Filter Wheel #1 Position ---------- (1) Ground quartz diffuser (ND=2.32)
Filter Wheel #2 Position ---------- (1) Neutral Density 0.494



************************************************************
HS scan start time = 01:25:32
Dark Count =  .1 


Time (GMT)  Wavelength (Ang)  Step Number  Raw Counts  Counts/Second

   85.97        2950.00           1229         118.00       513.96
   86.07        2950.25           1232         114.00       496.52
   86.10        2950.50           1236         117.00       509.60
   86.13        2950.75           1239         112.00       487.80
   86.16        2951.00           1242         116.00       505.24
   86.19        2951.25           1246         131.00       570.63
   86.22        2951.50           1249         107.00       466.00
   86.25        2951.75           1252         122.00       531.39
   86.28        2952.00           1255         121.00       527.04
   86.31        2952.25           1259         124.00       540.11
   86.34        2952.50           1262         118.00       513.96
   86.36        2952.75           1265         123.00       535.75
   86.39        2953.00           1269         121.00       527.04
   86.42        2953.25           1272         124.00       540.11
   86.45        2953.50           1275         119.00       518.32
   86.48        2953.75           1279         125.00       544.47
   86.51        2954.00           1282         114.00       496.52
   86.53        2954.25           1285         115.00       500.88
   86.56        2954.50           1289         119.00       518.32
   86.59        2954.75           1292         120.00       522.68
   86.62        2955.00           1295         112.00       487.80
   86.64        2955.25           1299         119.00       518.32
   86.67        2955.50           1302         118.00       513.96
   86.70        2955.75           1305         113.00       492.16
   86.73        2956.00           1309         111.00       483.44
   86.76        2956.25           1312         112.00       487.80
   86.78        2956.50           1315         108.00       470.36
   86.81        2956.75           1319         112.00       487.80
   86.84        2957.00           1322         110.00       479.08
   86.87        2957.25           1325         103.00       448.57
   86.89        2957.50           1329         116.00       505.24
   86.92        2957.75           1332         113.00       492.16
   86.95        2958.00           1335         111.00       483.44
   86.98        2958.25           1339         116.00       505.24
   87.00        2958.50           1342         109.00       474.72
   87.04        2958.75           1345         112.00       487.80
   87.07        2959.00           1349         107.00       466.00
   87.09        2959.25           1352         110.00       479.08
   87.12        2959.50           1355         126.00       548.83
   87.15        2959.75           1359         123.00       535.75
   87.18        2960.00           1362         126.00       548.83
   87.20        2960.25           1365         111.00       483.44
   87.23        2960.50           1369         119.00       518.32
   87.26        2960.75           1372         121.00       527.04
   87.29        2961.00           1375         152.00       662.18
   87.32        2961.25           1379         138.00       601.14
   87.35        2961.50           1382         203.00       884.50
   87.37        2961.75           1385         750.00      3269.28
   87.40        2962.00           1389        2554.00     11136.68
   87.43        2962.25           1392        4887.00     21316.59
   87.46        2962.50           1395        7486.00     32664.51
   87.49        2962.75           1399       11507.00     50236.51
   87.51        2963.00           1402       14524.00     63433.16
   87.54        2963.25           1405       17080.00     74621.53
   87.57        2963.50           1409       20563.00     89879.79
   87.60        2963.75           1412       23647.00    103401.80
   87.62        2964.00           1415       26595.00    116337.80
   87.65        2964.25           1419       30926.00    135360.70
   87.68        2964.50           1422       33738.00    147723.40
   87.71        2964.75           1425       36135.00    158268.90
   87.74        2965.00           1429       40015.00    175352.90
   87.76        2965.25           1432       42994.00    188481.70
   87.79        2965.50           1435       46082.00    202101.80
   87.82        2965.75           1439       49812.00    218568.40
   87.85        2966.00           1442       52378.00    229905.90
   87.87        2966.25           1445       54955.00    241299.70
   87.90        2966.50           1449       58681.00    257787.60
   87.93        2966.75           1452       60389.00    265351.10
   87.96        2967.00           1455       61020.00    268146.20
   87.99        2967.25           1459       60858.00    267428.60
   88.01        2967.50           1462       61068.00    268358.90
   88.04        2967.75           1465       60892.00    267579.20
   88.07        2968.00           1469       59529.00    261542.40
   88.10        2968.25           1472       57750.00    253666.30
   88.13        2968.50           1475       55444.00    243462.70
   88.15        2968.75           1479       52376.00    229897.00
   88.18        2969.00           1482       50098.00    219831.70
   88.21        2969.25           1485       47222.00    207132.70
   88.24        2969.50           1489       43379.00    190179.20
   88.26        2969.75           1492       40316.00    176679.00
   88.29        2970.00           1495       37428.00    163960.10
   88.32        2970.25           1499       33798.00    147987.30
   88.35        2970.50           1502       30962.00    135518.90
   88.38        2970.75           1505       28045.00    122704.10
   88.41        2971.00           1509       24185.00    105761.80
   88.44        2971.25           1512       21322.00     93206.64
   88.46        2971.50           1515       18567.00     81134.04
   88.49        2971.75           1519       15501.00     67708.90
   88.52        2972.00           1522       12864.00     56170.87
   88.55        2972.25           1525       10387.00     45340.19
   88.57        2972.50           1529        6181.00     26965.58
   88.60        2972.75           1532        3542.00     15447.00
   88.63        2973.00           1536        1021.00      4450.90
   88.66        2973.25           1539         385.00      1677.94
   88.68        2973.50           1542         203.00       884.50
   88.71        2973.75           1546         153.00       666.53
   88.74        2974.00           1549         142.00       618.58
   88.77        2974.25           1552         138.00       601.14
   88.79        2974.50           1556         129.00       561.91
   88.82        2974.75           1559         118.00       513.96
   88.85        2975.00           1562         100.00       435.49
   88.88        2975.25           1566         113.00       492.16
   88.91        2975.50           1569         112.00       487.80
   88.93        2975.75           1572         108.00       470.36
   88.96        2976.00           1576         100.00       435.49
   88.99        2976.25           1579         105.00       457.29
   89.02        2976.50           1582         104.00       452.93
   89.04        2976.75           1586         106.00       461.65
   89.07        2977.00           1589         103.00       448.57
   89.10        2977.25           1592          98.00       426.77
   89.13        2977.50           1596         105.00       457.29
   89.15        2977.75           1599          99.00       431.13
   89.18        2978.00           1602         118.00       513.96
   89.21        2978.25           1606         104.00       452.93
   89.24        2978.50           1609         104.00       452.93
   89.26        2978.75           1612         106.00       461.65
   89.30        2979.00           1616         108.00       470.36
   89.33        2979.25           1619          94.00       409.33
   89.35        2979.50           1623         107.00       466.00
   89.38        2979.75           1626         106.00       461.65
   89.41        2980.00           1629         102.00       444.21
   89.44        2980.25           1633         101.00       439.85
   89.46        2980.50           1636          99.00       431.13
   89.49        2980.75           1639         102.00       444.21
   89.52        2981.00           1643          97.00       422.41
   89.55        2981.25           1646         107.00       466.00
   89.58        2981.50           1649         102.00       444.21
   89.61        2981.75           1653          94.00       409.33
   89.64        2982.00           1656         101.00       439.85
   89.67        2982.25           1659         111.00       483.44
   89.70        2982.50           1663          99.00       431.13
   89.72        2982.75           1666          91.00       396.26
   89.75        2983.00           1669          92.00       400.62
   89.78        2983.25           1673          96.00       418.05
   89.81        2983.50           1676         103.00       448.57
   89.83        2983.75           1679          97.00       422.41
   89.86        2984.00           1683          97.00       422.41
HS scan finished at 01:30:10
end
