************************************************************
  HS Scan of (1) Internal mercury lamp
************************************************************
Integration time is 0.2294 seconds per sample
dh020717Delft 51.997-4.386 2.857833pr1000
************************************************************
Dead Time -------------------------  3E-08 
Number of Cycles Used -------------  4 
Starting Wavelength (Angstroms) ---  2950 
Final Wavelength (Angstoms) -------  2984 
Wavelength Increment (Angstroms) --  .25 
Filter Wheel #1 Position ---------- (1) Ground quartz diffuser (ND=2.32)
Filter Wheel #2 Position ---------- (1) Neutral Density 0.494



************************************************************
HS scan start time = 01:28:10
Dark Count =  .1 


Time (GMT)  Wavelength (Ang)  Step Number  Raw Counts  Counts/Second

   88.62        2950.00           1229         124.00       540.11
   88.72        2950.25           1232         102.00       444.21
   88.74        2950.50           1236         117.00       509.60
   88.77        2950.75           1239         119.00       518.32
   88.80        2951.00           1242         121.00       527.04
   88.83        2951.25           1246         116.00       505.24
   88.86        2951.50           1249         119.00       518.32
   88.88        2951.75           1252         109.00       474.72
   88.91        2952.00           1255         113.00       492.16
   88.94        2952.25           1259         116.00       505.24
   88.97        2952.50           1262         121.00       527.04
   88.99        2952.75           1265         120.00       522.68
   89.02        2953.00           1269         122.00       531.39
   89.05        2953.25           1272         111.00       483.44
   89.08        2953.50           1275         128.00       557.55
   89.11        2953.75           1279         114.00       496.52
   89.14        2954.00           1282         116.00       505.24
   89.17        2954.25           1285         121.00       527.04
   89.19        2954.50           1289         125.00       544.47
   89.22        2954.75           1292         117.00       509.60
   89.25        2955.00           1295         118.00       513.96
   89.28        2955.25           1299         117.00       509.60
   89.30        2955.50           1302         106.00       461.65
   89.33        2955.75           1305         112.00       487.80
   89.36        2956.00           1309         117.00       509.60
   89.39        2956.25           1312         114.00       496.52
   89.41        2956.50           1315         118.00       513.96
   89.44        2956.75           1319         121.00       527.04
   89.47        2957.00           1322         110.00       479.08
   89.50        2957.25           1325         104.00       452.93
   89.53        2957.50           1329         120.00       522.68
   89.55        2957.75           1332         107.00       466.00
   89.58        2958.00           1335         128.00       557.55
   89.61        2958.25           1339         123.00       535.75
   89.64        2958.50           1342         113.00       492.16
   89.66        2958.75           1345         121.00       527.04
   89.69        2959.00           1349         105.00       457.29
   89.72        2959.25           1352         108.00       470.36
   89.75        2959.50           1355         118.00       513.96
   89.77        2959.75           1359         122.00       531.39
   89.80        2960.00           1362         116.00       505.24
   89.83        2960.25           1365         112.00       487.80
   89.86        2960.50           1369         112.00       487.80
   89.88        2960.75           1372         131.00       570.63
   89.91        2961.00           1375         135.00       588.07
   89.94        2961.25           1379         159.00       692.69
   89.97        2961.50           1382         196.00       853.99
   90.00        2961.75           1385         674.00      2937.92
   90.03        2962.00           1389        2496.00     10883.68
   90.06        2962.25           1392        4613.00     20120.69
   90.08        2962.50           1395        7267.00     31708.00
   90.11        2962.75           1399       10970.00     47888.72
   90.14        2963.00           1402       13498.00     58944.16
   90.17        2963.25           1405       16186.00     70707.38
   90.20        2963.50           1409       20335.00     88880.53
   90.23        2963.75           1412       23703.00    103647.40
   90.25        2964.00           1415       26841.00    117417.70
   90.28        2964.25           1419       30073.00    131612.40
   90.31        2964.50           1422       32796.00    143580.90
   90.34        2964.75           1425       35457.00    155285.40
   90.37        2965.00           1429       39719.00    174049.00
   90.39        2965.25           1432       42513.00    186361.20
   90.42        2965.50           1435       45354.00    198889.80
   90.45        2965.75           1439       49428.00    216872.50
   90.48        2966.00           1442       52286.00    229499.30
   90.51        2966.25           1445       54926.00    241171.50
   90.54        2966.50           1449       58215.00    255724.60
   90.57        2966.75           1452       59531.00    261551.20
   90.59        2967.00           1455       59925.00    263296.10
   90.62        2967.25           1459       60160.00    264336.90
   90.65        2967.50           1462       60139.00    264243.80
   90.68        2967.75           1465       59960.00    263451.10
   90.71        2968.00           1469       58870.00    258624.40
   90.74        2968.25           1472       56952.00    250134.60
   90.77        2968.50           1475       54515.00    239353.80
   90.80        2968.75           1479       51305.00    225164.10
   90.82        2969.00           1482       48921.00    214633.50
   90.85        2969.25           1485       45814.00    200919.30
   90.88        2969.50           1489       42108.00    184575.90
   90.91        2969.75           1492       39506.00    173110.70
   90.93        2970.00           1495       36984.00    162005.60
   90.96        2970.25           1499       33566.00    146966.90
   90.99        2970.50           1502       30852.00    135035.50
   91.02        2970.75           1505       27649.00    120965.20
   91.04        2971.00           1509       23991.00    104910.80
   91.07        2971.25           1512       20951.00     91580.39
   91.10        2971.50           1515       18324.00     80069.61
   91.13        2971.75           1519       14863.00     64916.63
   91.16        2972.00           1522       12263.00     53542.35
   91.18        2972.25           1525        9436.00     41183.81
   91.21        2972.50           1529        5578.00     24332.93
   91.24        2972.75           1532        3506.00     15289.93
   91.27        2973.00           1536        1392.00      6068.67
   91.29        2973.25           1539         533.00      2323.18
   91.32        2973.50           1542         221.00       962.97
   91.35        2973.75           1546         155.00       675.25
   91.38        2974.00           1549         139.00       605.50
   91.41        2974.25           1552         127.00       553.19
   91.44        2974.50           1556         119.00       518.32
   91.47        2974.75           1559         122.00       531.39
   91.49        2975.00           1562         103.00       448.57
   91.52        2975.25           1566         114.00       496.52
   91.55        2975.50           1569         105.00       457.29
   91.58        2975.75           1572         108.00       470.36
   91.60        2976.00           1576         106.00       461.65
   91.63        2976.25           1579          94.00       409.33
   91.66        2976.50           1582         104.00       452.93
   91.69        2976.75           1586         108.00       470.36
   91.71        2977.00           1589         100.00       435.49
   91.74        2977.25           1592         102.00       444.21
   91.77        2977.50           1596         101.00       439.85
   91.80        2977.75           1599         100.00       435.49
   91.82        2978.00           1602         101.00       439.85
   91.85        2978.25           1606         106.00       461.65
   91.88        2978.50           1609         101.00       439.85
   91.91        2978.75           1612         101.00       439.85
   91.93        2979.00           1616         108.00       470.36
   91.96        2979.25           1619          99.00       431.13
   91.99        2979.50           1623         103.00       448.57
   92.02        2979.75           1626          99.00       431.13
   92.05        2980.00           1629          99.00       431.13
   92.07        2980.25           1633          99.00       431.13
   92.10        2980.50           1636         108.00       470.36
   92.13        2980.75           1639          97.00       422.41
   92.16        2981.00           1643         110.00       479.08
   92.18        2981.25           1646         102.00       444.21
   92.21        2981.50           1649          91.00       396.26
   92.24        2981.75           1653         110.00       479.08
   92.27        2982.00           1656          98.00       426.77
   92.30        2982.25           1659          97.00       422.41
   92.33        2982.50           1663          95.00       413.69
   92.35        2982.75           1666          98.00       426.77
   92.38        2983.00           1669         100.00       435.49
   92.41        2983.25           1673          92.00       400.62
   92.44        2983.50           1676         102.00       444.21
   92.47        2983.75           1679          98.00       426.77
   92.49        2984.00           1683          92.00       400.62
HS scan finished at 01:32:47
end
