************************************************************
  HS Scan of (1) Internal mercury lamp
************************************************************
Integration time is 0.2294 seconds per sample
dh300617Delft 51.997-4.386 2.804185pr1000
************************************************************
Dead Time -------------------------  3E-08 
Number of Cycles Used -------------  4 
Starting Wavelength (Angstroms) ---  2950 
Final Wavelength (Angstoms) -------  2984 
Wavelength Increment (Angstroms) --  .25 
Filter Wheel #1 Position ---------- (1) Ground quartz diffuser (ND=2.32)
Filter Wheel #2 Position ---------- (1) Neutral Density 0.494



************************************************************
HS scan start time = 00:29:09
Dark Count =  .1 


Time (GMT)  Wavelength (Ang)  Step Number  Raw Counts  Counts/Second

   29.60        2950.00           1229         127.00       553.19
   29.69        2950.25           1232         114.00       496.52
   29.72        2950.50           1236         124.00       540.11
   29.75        2950.75           1239         118.00       513.96
   29.78        2951.00           1242         125.00       544.47
   29.80        2951.25           1246         115.00       500.88
   29.83        2951.50           1249         116.00       505.24
   29.86        2951.75           1252         124.00       540.11
   29.89        2952.00           1255         109.00       474.72
   29.91        2952.25           1259         117.00       509.60
   29.94        2952.50           1262         120.00       522.68
   29.97        2952.75           1265         113.00       492.16
   30.00        2953.00           1269         119.00       518.32
   30.03        2953.25           1272         118.00       513.96
   30.05        2953.50           1275         121.00       527.04
   30.08        2953.75           1279         113.00       492.16
   30.11        2954.00           1282         113.00       492.16
   30.14        2954.25           1285         115.00       500.88
   30.16        2954.50           1289         123.00       535.75
   30.19        2954.75           1292         117.00       509.60
   30.22        2955.00           1295         109.00       474.72
   30.25        2955.25           1299         119.00       518.32
   30.27        2955.50           1302         118.00       513.96
   30.30        2955.75           1305         105.00       457.29
   30.33        2956.00           1309         123.00       535.75
   30.36        2956.25           1312         110.00       479.08
   30.39        2956.50           1315         124.00       540.11
   30.41        2956.75           1319         109.00       474.72
   30.44        2957.00           1322         106.00       461.65
   30.47        2957.25           1325         124.00       540.11
   30.50        2957.50           1329         121.00       527.04
   30.52        2957.75           1332         114.00       496.52
   30.55        2958.00           1335         122.00       531.39
   30.58        2958.25           1339         110.00       479.08
   30.61        2958.50           1342         117.00       509.60
   30.64        2958.75           1345         111.00       483.44
   30.66        2959.00           1349         119.00       518.32
   30.69        2959.25           1352         117.00       509.60
   30.72        2959.50           1355         122.00       531.39
   30.75        2959.75           1359         118.00       513.96
   30.77        2960.00           1362         110.00       479.08
   30.80        2960.25           1365         114.00       496.52
   30.83        2960.50           1369         127.00       553.19
   30.86        2960.75           1372         132.00       574.99
   30.88        2961.00           1375         127.00       553.19
   30.91        2961.25           1379         142.00       618.58
   30.94        2961.50           1382         231.00      1006.57
   30.97        2961.75           1385         809.00      3526.53
   30.99        2962.00           1389        3009.00     13121.56
   31.03        2962.25           1392        5377.00     23455.47
   31.06        2962.50           1395        7923.00     34573.33
   31.08        2962.75           1399       11283.00     49257.14
   31.11        2963.00           1402       14192.00     61980.44
   31.14        2963.25           1405       17499.00     76456.34
   31.17        2963.50           1409       21517.00     94061.49
   31.19        2963.75           1412       24534.00    107292.90
   31.22        2964.00           1415       27846.00    121830.30
   31.25        2964.25           1419       31807.00    139232.90
   31.28        2964.50           1422       34871.00    152707.10
   31.31        2964.75           1425       37888.00    165985.40
   31.33        2965.00           1429       41438.00    181622.90
   31.36        2965.25           1432       44840.00    196622.40
   31.39        2965.50           1435       47219.00    207119.50
   31.42        2965.75           1439       50302.00    220732.80
   31.44        2966.00           1442       52875.00    232102.70
   31.47        2966.25           1445       55964.00    245763.10
   31.50        2966.50           1449       59586.00    261794.80
   31.53        2966.75           1452       60768.00    267029.90
   31.56        2967.00           1455       61554.00    270512.10
   31.58        2967.25           1459       61388.00    269776.60
   31.61        2967.50           1462       61331.00    269524.00
   31.64        2967.75           1465       61419.00    269913.90
   31.67        2968.00           1469       60274.00    264841.80
   31.69        2968.25           1472       58707.00    257902.70
   31.72        2968.50           1475       56639.00    248749.60
   31.75        2968.75           1479       53218.00    233619.00
   31.78        2969.00           1482       50405.00    221187.80
   31.80        2969.25           1485       47386.00    207856.60
   31.83        2969.50           1489       43305.00    189852.90
   31.86        2969.75           1492       40049.00    175502.70
   31.89        2970.00           1495       37566.00    164567.70
   31.92        2970.25           1499       33662.00    147389.10
   31.94        2970.50           1502       30601.00    133932.50
   31.97        2970.75           1505       27612.00    120802.80
   32.00        2971.00           1509       24111.00    105437.20
   32.03        2971.25           1512       21873.00     95622.22
   32.06        2971.50           1515       18953.00     82825.00
   32.08        2971.75           1519       15160.00     66216.41
   32.11        2972.00           1522       11824.00     51622.61
   32.14        2972.25           1525        8721.00     38059.56
   32.17        2972.50           1529        5275.00     23010.21
   32.20        2972.75           1532        2872.00     12523.89
   32.23        2973.00           1536         966.00      4211.08
   32.25        2973.25           1539         383.00      1669.22
   32.28        2973.50           1542         180.00       784.24
   32.31        2973.75           1546         145.00       631.66
   32.35        2974.00           1549         142.00       618.58
   32.38        2974.25           1552         138.00       601.14
   32.41        2974.50           1556         126.00       548.83
   32.44        2974.75           1559         115.00       500.88
   32.46        2975.00           1562         110.00       479.08
   32.49        2975.25           1566         113.00       492.16
   32.52        2975.50           1569         109.00       474.72
   32.55        2975.75           1572         107.00       466.00
   32.57        2976.00           1576         106.00       461.65
   32.60        2976.25           1579         113.00       492.16
   32.64        2976.50           1582         102.00       444.21
   32.67        2976.75           1586         101.00       439.85
   32.70        2977.00           1589         106.00       461.65
   32.72        2977.25           1592          99.00       431.13
   32.75        2977.50           1596         105.00       457.29
   32.78        2977.75           1599          88.00       383.18
   32.81        2978.00           1602         110.00       479.08
   32.83        2978.25           1606         103.00       448.57
   32.86        2978.50           1609          95.00       413.69
   32.89        2978.75           1612         104.00       452.93
   32.92        2979.00           1616         108.00       470.36
   32.95        2979.25           1619         100.00       435.49
   32.98        2979.50           1623         107.00       466.00
   33.01        2979.75           1626          84.00       365.74
   33.03        2980.00           1629         110.00       479.08
   33.06        2980.25           1633         109.00       474.72
   33.09        2980.50           1636          97.00       422.41
   33.12        2980.75           1639         101.00       439.85
   33.14        2981.00           1643          98.00       426.77
   33.17        2981.25           1646          99.00       431.13
   33.20        2981.50           1649          98.00       426.77
   33.23        2981.75           1653          94.00       409.33
   33.26        2982.00           1656          99.00       431.13
   33.29        2982.25           1659         106.00       461.65
   33.31        2982.50           1663          95.00       413.69
   33.34        2982.75           1666         103.00       448.57
   33.37        2983.00           1669         104.00       452.93
   33.40        2983.25           1673          91.00       396.26
   33.43        2983.50           1676         101.00       439.85
   33.45        2983.75           1679         103.00       448.57
   33.48        2984.00           1683          99.00       431.13
HS scan finished at 00:33:47
end
************************************************************
  HS Scan of (1) Internal mercury lamp
************************************************************
Integration time is 0.2294 seconds per sample
dh300617Delft 51.997-4.386 2.857833pr1000
************************************************************
Dead Time -------------------------  3E-08 
Number of Cycles Used -------------  4 
Starting Wavelength (Angstroms) ---  2950 
Final Wavelength (Angstoms) -------  2984 
Wavelength Increment (Angstroms) --  .25 
Filter Wheel #1 Position ---------- (1) Ground quartz diffuser (ND=2.32)
Filter Wheel #2 Position ---------- (1) Neutral Density 0.494



************************************************************
HS scan start time = 01:25:12
Dark Count =  0 


Time (GMT)  Wavelength (Ang)  Step Number  Raw Counts  Counts/Second

   85.65        2950.00           1229         123.00       536.19
   85.74        2950.25           1232         115.00       501.32
   85.77        2950.50           1236         112.00       488.24
   85.80        2950.75           1239         119.00       518.75
   85.83        2951.00           1242         122.00       531.83
   85.86        2951.25           1246         116.00       505.67
   85.88        2951.50           1249         119.00       518.75
   85.91        2951.75           1252         128.00       557.99
   85.94        2952.00           1255         126.00       549.27
   85.97        2952.25           1259         125.00       544.91
   85.99        2952.50           1262         116.00       505.67
   86.02        2952.75           1265         120.00       523.11
   86.06        2953.00           1269         122.00       531.83
   86.09        2953.25           1272         128.00       557.99
   86.11        2953.50           1275         121.00       527.47
   86.14        2953.75           1279         113.00       492.60
   86.17        2954.00           1282         109.00       475.16
   86.20        2954.25           1285         117.00       510.03
   86.23        2954.50           1289         115.00       501.32
   86.25        2954.75           1292         116.00       505.67
   86.28        2955.00           1295         107.00       466.44
   86.31        2955.25           1299         116.00       505.67
   86.34        2955.50           1302         108.00       470.80
   86.37        2955.75           1305         111.00       483.88
   86.40        2956.00           1309         111.00       483.88
   86.42        2956.25           1312         119.00       518.75
   86.45        2956.50           1315         118.00       514.39
   86.48        2956.75           1319         118.00       514.39
   86.51        2957.00           1322         107.00       466.44
   86.54        2957.25           1325         124.00       540.55
   86.56        2957.50           1329         113.00       492.60
   86.59        2957.75           1332         108.00       470.80
   86.62        2958.00           1335         111.00       483.88
   86.65        2958.25           1339         118.00       514.39
   86.67        2958.50           1342         111.00       483.88
   86.70        2958.75           1345         113.00       492.60
   86.73        2959.00           1349         114.00       496.96
   86.76        2959.25           1352         118.00       514.39
   86.78        2959.50           1355         114.00       496.96
   86.81        2959.75           1359         111.00       483.88
   86.84        2960.00           1362         115.00       501.32
   86.87        2960.25           1365         117.00       510.03
   86.89        2960.50           1369         122.00       531.83
   86.92        2960.75           1372         123.00       536.19
   86.95        2961.00           1375         139.00       605.94
   86.98        2961.25           1379         162.00       706.21
   87.01        2961.50           1382         300.00      1307.81
   87.03        2961.75           1385        1009.00      4399.01
   87.06        2962.00           1389        3047.00     13287.77
   87.09        2962.25           1392        5537.00     24154.38
   87.12        2962.50           1395        8196.00     35766.35
   87.14        2962.75           1399       11860.00     51780.46
   87.17        2963.00           1402       15092.00     65919.25
   87.20        2963.25           1405       18319.00     80048.15
   87.23        2963.50           1409       22342.00     97679.02
   87.26        2963.75           1412       25536.00    111690.10
   87.29        2964.00           1415       28264.00    123666.30
   87.32        2964.25           1419       32239.00    141132.50
   87.34        2964.50           1422       35208.00    154190.20
   87.37        2964.75           1425       37649.00    164933.50
   87.40        2965.00           1429       41190.00    180530.50
   87.43        2965.25           1432       44051.00    193142.90
   87.45        2965.50           1435       46812.00    205323.60
   87.48        2965.75           1439       50831.00    223070.20
   87.51        2966.00           1442       53380.00    234335.60
   87.54        2966.25           1445       56036.00    246082.00
   87.57        2966.50           1449       59498.00    261405.50
   87.59        2966.75           1452       60678.00    266631.70
   87.62        2967.00           1455       61065.00    268346.10
   87.65        2967.25           1459       61336.00    269546.70
   87.68        2967.50           1462       61301.00    269391.60
   87.71        2967.75           1465       61246.00    269147.90
   87.74        2968.00           1469       60179.00    264421.50
   87.77        2968.25           1472       58574.00    257314.40
   87.80        2968.50           1475       55787.00    244980.40
   87.83        2968.75           1479       51652.00    226697.80
   87.86        2969.00           1482       49077.00    215322.80
   87.89        2969.25           1485       46479.00    203854.10
   87.92        2969.50           1489       42583.00    186670.20
   87.94        2969.75           1492       39523.00    173186.10
   87.97        2970.00           1495       37084.00    162446.30
   88.00        2970.25           1499       33559.00    146936.60
   88.03        2970.50           1502       30734.00    134517.40
   88.06        2970.75           1505       28130.00    123077.90
   88.08        2971.00           1509       23906.00    104538.30
   88.11        2971.25           1512       20787.00     90861.99
   88.14        2971.50           1515       17822.00     77871.33
   88.17        2971.75           1519       14342.00     62637.21
   88.19        2972.00           1522       11457.00     50018.33
   88.22        2972.25           1525        8979.00     39187.28
   88.25        2972.50           1529        5383.00     23482.10
   88.28        2972.75           1532        2469.00     10766.34
   88.31        2973.00           1536         822.00      3583.65
   88.33        2973.25           1539         336.00      1464.76
   88.36        2973.50           1542         184.00       802.11
   88.39        2973.75           1546         151.00       658.25
   88.41        2974.00           1549         131.00       571.06
   88.44        2974.25           1552         119.00       518.75
   88.47        2974.50           1556         129.00       562.35
   88.50        2974.75           1559         118.00       514.39
   88.53        2975.00           1562         114.00       496.96
   88.55        2975.25           1566         109.00       475.16
   88.58        2975.50           1569         106.00       462.08
   88.61        2975.75           1572         107.00       466.44
   88.64        2976.00           1576         105.00       457.72
   88.66        2976.25           1579         114.00       496.96
   88.69        2976.50           1582          99.00       431.57
   88.72        2976.75           1586         104.00       453.36
   88.75        2977.00           1589         106.00       462.08
   88.77        2977.25           1592         104.00       453.36
   88.80        2977.50           1596         108.00       470.80
   88.83        2977.75           1599         102.00       444.64
   88.86        2978.00           1602         100.00       435.93
   88.89        2978.25           1606         100.00       435.93
   88.91        2978.50           1609         101.00       440.28
   88.94        2978.75           1612         106.00       462.08
   88.97        2979.00           1616         107.00       466.44
   89.00        2979.25           1619         102.00       444.64
   89.03        2979.50           1623          98.00       427.21
   89.06        2979.75           1626         105.00       457.72
   89.08        2980.00           1629         106.00       462.08
   89.11        2980.25           1633          93.00       405.41
   89.14        2980.50           1636         102.00       444.64
   89.17        2980.75           1639         101.00       440.28
   89.19        2981.00           1643          98.00       427.21
   89.22        2981.25           1646         109.00       475.16
   89.25        2981.50           1649         108.00       470.80
   89.28        2981.75           1653         106.00       462.08
   89.31        2982.00           1656         107.00       466.44
   89.33        2982.25           1659          98.00       427.21
   89.36        2982.50           1663          93.00       405.41
   89.39        2982.75           1666         108.00       470.80
   89.42        2983.00           1669         103.00       449.00
   89.44        2983.25           1673         108.00       470.80
   89.47        2983.50           1676         101.00       440.28
   89.50        2983.75           1679         102.00       444.64
   89.53        2984.00           1683         104.00       453.36
HS scan finished at 01:29:50
end
