************************************************************
  HS Scan of (1) Internal mercury lamp
************************************************************
Integration time is 0.2294 seconds per sample
dh030717Delft 51.997-4.386 2.750537pr1000
************************************************************
Dead Time -------------------------  3E-08 
Number of Cycles Used -------------  4 
Starting Wavelength (Angstroms) ---  2950 
Final Wavelength (Angstoms) -------  2984 
Wavelength Increment (Angstroms) --  .25 
Filter Wheel #1 Position ---------- (1) Ground quartz diffuser (ND=2.32)
Filter Wheel #2 Position ---------- (1) Neutral Density 0.494



************************************************************
HS scan start time = 01:28:17
Dark Count =  0 


Time (GMT)  Wavelength (Ang)  Step Number  Raw Counts  Counts/Second

   88.73        2950.00           1229         119.00       518.75
   88.82        2950.25           1232         120.00       523.11
   88.85        2950.50           1236         122.00       531.83
   88.88        2950.75           1239         123.00       536.19
   88.91        2951.00           1242         113.00       492.60
   88.94        2951.25           1246         131.00       571.06
   88.96        2951.50           1249         120.00       523.11
   88.99        2951.75           1252         121.00       527.47
   89.02        2952.00           1255         123.00       536.19
   89.05        2952.25           1259         128.00       557.99
   89.07        2952.50           1262         125.00       544.91
   89.10        2952.75           1265         123.00       536.19
   89.13        2953.00           1269         114.00       496.96
   89.16        2953.25           1272         119.00       518.75
   89.19        2953.50           1275         117.00       510.03
   89.21        2953.75           1279         130.00       566.71
   89.24        2954.00           1282         126.00       549.27
   89.27        2954.25           1285         119.00       518.75
   89.30        2954.50           1289         124.00       540.55
   89.32        2954.75           1292         123.00       536.19
   89.35        2955.00           1295         117.00       510.03
   89.38        2955.25           1299         125.00       544.91
   89.41        2955.50           1302         114.00       496.96
   89.44        2955.75           1305         115.00       501.32
   89.47        2956.00           1309         121.00       527.47
   89.50        2956.25           1312         120.00       523.11
   89.53        2956.50           1315         118.00       514.39
   89.56        2956.75           1319         122.00       531.83
   89.58        2957.00           1322         117.00       510.03
   89.61        2957.25           1325         121.00       527.47
   89.64        2957.50           1329         121.00       527.47
   89.67        2957.75           1332         118.00       514.39
   89.69        2958.00           1335         138.00       601.58
   89.72        2958.25           1339         136.00       592.86
   89.75        2958.50           1342         113.00       492.60
   89.78        2958.75           1345         117.00       510.03
   89.81        2959.00           1349         112.00       488.24
   89.83        2959.25           1352         106.00       462.08
   89.86        2959.50           1355         110.00       479.52
   89.89        2959.75           1359         119.00       518.75
   89.92        2960.00           1362         109.00       475.16
   89.94        2960.25           1365         123.00       536.19
   89.97        2960.50           1369         123.00       536.19
   90.00        2960.75           1372         133.00       579.78
   90.03        2961.00           1375         142.00       619.02
   90.06        2961.25           1379         137.00       597.22
   90.09        2961.50           1382         183.00       797.75
   90.11        2961.75           1385         616.00      2685.48
   90.14        2962.00           1389        2363.00     10303.97
   90.17        2962.25           1392        4502.00     19636.67
   90.20        2962.50           1395        7162.00     31249.86
   90.23        2962.75           1399       10594.00     46245.46
   90.25        2963.00           1402       13534.00     59102.09
   90.28        2963.25           1405       16170.00     70637.77
   90.31        2963.50           1409       20216.00     88359.46
   90.34        2963.75           1412       22992.00    100529.40
   90.36        2964.00           1415       25328.00    110777.30
   90.39        2964.25           1419       28577.00    125041.00
   90.42        2964.50           1422       31312.00    137057.60
   90.45        2964.75           1425       33787.00    147939.40
   90.48        2965.00           1429       37568.00    164576.90
   90.50        2965.25           1432       40012.00    175340.10
   90.53        2965.50           1435       42529.00    186432.10
   90.56        2965.75           1439       46030.00    201872.80
   90.59        2966.00           1442       48674.00    213543.30
   90.61        2966.25           1445       51121.00    224351.50
   90.64        2966.50           1449       54435.00    239000.50
   90.67        2966.75           1452       55591.00    244113.40
   90.70        2967.00           1455       56240.00    246984.60
   90.73        2967.25           1459       56426.00    247807.50
   90.75        2967.50           1462       56748.00    249232.30
   90.78        2967.75           1465       56455.00    247935.90
   90.81        2968.00           1469       55339.00    242998.70
   90.84        2968.25           1472       53687.00    235692.90
   90.86        2968.50           1475       51694.00    226883.40
   90.89        2968.75           1479       48524.00    212881.00
   90.93        2969.00           1482       45812.00    200910.90
   90.95        2969.25           1485       43421.00    190364.80
   90.98        2969.50           1489       40173.00    176049.40
   91.01        2969.75           1492       37917.00    166113.50
   91.04        2970.00           1495       35260.00    154419.00
   91.06        2970.25           1499       31855.00    139444.40
   91.09        2970.50           1502       28857.00    126270.80
   91.12        2970.75           1505       25966.00    113577.30
   91.15        2971.00           1509       22441.00     98113.12
   91.18        2971.25           1512       20009.00     87452.33
   91.21        2971.50           1515       17481.00     76377.95
   91.24        2971.75           1519       14072.00     61455.83
   91.26        2972.00           1522       11297.00     49318.78
   91.29        2972.25           1525        8845.00     38601.78
   91.32        2972.50           1529        5650.00     24647.69
   91.35        2972.75           1532        3402.00     14836.59
   91.37        2973.00           1536        1365.00      5951.37
   91.40        2973.25           1539         499.00      2175.38
   91.43        2973.50           1542         191.00       832.63
   91.46        2973.75           1546         158.00       688.77
   91.49        2974.00           1549         136.00       592.86
   91.51        2974.25           1552         126.00       549.27
   91.54        2974.50           1556         129.00       562.35
   91.57        2974.75           1559         116.00       505.67
   91.60        2975.00           1562         112.00       488.24
   91.62        2975.25           1566         113.00       492.60
   91.65        2975.50           1569         111.00       483.88
   91.68        2975.75           1572         112.00       488.24
   91.71        2976.00           1576         106.00       462.08
   91.73        2976.25           1579         100.00       435.93
   91.76        2976.50           1582          98.00       427.21
   91.79        2976.75           1586         106.00       462.08
   91.82        2977.00           1589         105.00       457.72
   91.85        2977.25           1592         108.00       470.80
   91.88        2977.50           1596         106.00       462.08
   91.90        2977.75           1599          99.00       431.57
   91.93        2978.00           1602          99.00       431.57
   91.96        2978.25           1606         103.00       449.00
   92.00        2978.50           1609         103.00       449.00
   92.02        2978.75           1612          93.00       405.41
   92.05        2979.00           1616         109.00       475.16
   92.08        2979.25           1619         101.00       440.28
   92.11        2979.50           1623         103.00       449.00
   92.14        2979.75           1626         108.00       470.80
   92.17        2980.00           1629         104.00       453.36
   92.21        2980.25           1633         107.00       466.44
   92.24        2980.50           1636          97.00       422.85
   92.27        2980.75           1639         101.00       440.28
   92.30        2981.00           1643         105.00       457.72
   92.33        2981.25           1646         102.00       444.64
   92.35        2981.50           1649         103.00       449.00
   92.38        2981.75           1653         105.00       457.72
   92.41        2982.00           1656         107.00       466.44
   92.44        2982.25           1659         107.00       466.44
   92.46        2982.50           1663          98.00       427.21
   92.49        2982.75           1666         107.00       466.44
   92.52        2983.00           1669          99.00       431.57
   92.55        2983.25           1673         109.00       475.16
   92.58        2983.50           1676         102.00       444.64
   92.60        2983.75           1679          93.00       405.41
   92.63        2984.00           1683         105.00       457.72
HS scan finished at 01:32:56
end
