************************************************************
  HS Scan of (1) Internal mercury lamp
************************************************************
Integration time is 0.2294 seconds per sample
dh070717Delft 51.997-4.386 2.965129pr1000
************************************************************
Dead Time -------------------------  3E-08 
Number of Cycles Used -------------  4 
Starting Wavelength (Angstroms) ---  2950 
Final Wavelength (Angstoms) -------  2984 
Wavelength Increment (Angstroms) --  .25 
Filter Wheel #1 Position ---------- (1) Ground quartz diffuser (ND=2.32)
Filter Wheel #2 Position ---------- (1) Neutral Density 0.494



************************************************************
HS scan start time = 00:31:06
Dark Count =  .1 


Time (GMT)  Wavelength (Ang)  Step Number  Raw Counts  Counts/Second

   31.55        2950.00           1229         105.00       457.29
   31.64        2950.25           1232         120.00       522.68
   31.67        2950.50           1236         112.00       487.80
   31.70        2950.75           1239         108.00       470.36
   31.73        2951.00           1242         110.00       479.08
   31.75        2951.25           1246         111.00       483.44
   31.78        2951.50           1249         117.00       509.60
   31.81        2951.75           1252         119.00       518.32
   31.84        2952.00           1255         120.00       522.68
   31.87        2952.25           1259         118.00       513.96
   31.89        2952.50           1262         118.00       513.96
   31.92        2952.75           1265         116.00       505.24
   31.95        2953.00           1269         113.00       492.16
   31.98        2953.25           1272         109.00       474.72
   32.00        2953.50           1275         123.00       535.75
   32.03        2953.75           1279         121.00       527.04
   32.06        2954.00           1282         110.00       479.08
   32.09        2954.25           1285         119.00       518.32
   32.12        2954.50           1289         112.00       487.80
   32.15        2954.75           1292         111.00       483.44
   32.17        2955.00           1295         108.00       470.36
   32.20        2955.25           1299         108.00       470.36
   32.23        2955.50           1302         117.00       509.60
   32.26        2955.75           1305         111.00       483.44
   32.28        2956.00           1309         109.00       474.72
   32.31        2956.25           1312         103.00       448.57
   32.34        2956.50           1315         108.00       470.36
   32.37        2956.75           1319         103.00       448.57
   32.40        2957.00           1322         109.00       474.72
   32.42        2957.25           1325         104.00       452.93
   32.45        2957.50           1329         114.00       496.52
   32.48        2957.75           1332         116.00       505.24
   32.51        2958.00           1335         104.00       452.93
   32.53        2958.25           1339         104.00       452.93
   32.56        2958.50           1342         106.00       461.65
   32.60        2958.75           1345          99.00       431.13
   32.63        2959.00           1349         107.00       466.00
   32.66        2959.25           1352         115.00       500.88
   32.68        2959.50           1355         110.00       479.08
   32.71        2959.75           1359         109.00       474.72
   32.74        2960.00           1362         119.00       518.32
   32.77        2960.25           1365         115.00       500.88
   32.79        2960.50           1369         109.00       474.72
   32.82        2960.75           1372         129.00       561.91
   32.85        2961.00           1375         126.00       548.83
   32.88        2961.25           1379         141.00       614.22
   32.90        2961.50           1382         184.00       801.68
   32.93        2961.75           1385         709.00      3090.52
   32.96        2962.00           1389        2858.00     12462.81
   32.99        2962.25           1392        5448.00     23765.41
   33.01        2962.50           1395        8352.00     36447.42
   33.04        2962.75           1399       12008.00     52427.21
   33.07        2963.00           1402       14777.00     64540.28
   33.10        2963.25           1405       17548.00     76670.93
   33.13        2963.50           1409       22005.00     96200.96
   33.16        2963.75           1412       25617.00    112045.10
   33.19        2964.00           1415       28727.00    125699.40
   33.21        2964.25           1419       32067.00    140375.90
   33.24        2964.50           1422       35161.00    153983.00
   33.27        2964.75           1425       38201.00    167363.50
   33.30        2965.00           1429       42660.00    187009.20
   33.32        2965.25           1432       45806.00    200884.00
   33.35        2965.50           1435       48680.00    213569.30
   33.38        2965.75           1439       52132.00    228818.60
   33.41        2966.00           1442       55374.00    243153.00
   33.44        2966.25           1445       58629.00    257557.40
   33.47        2966.50           1449       61906.00    272071.70
   33.50        2966.75           1452       63610.00    279624.00
   33.52        2967.00           1455       64249.00    282457.00
   33.55        2967.25           1459       64592.00    283977.90
   33.58        2967.50           1462       64545.00    283769.50
   33.61        2967.75           1465       64067.00    281650.10
   33.63        2968.00           1469       62757.00    275843.00
   33.66        2968.25           1472       60733.00    266874.90
   33.69        2968.50           1475       58787.00    258256.90
   33.72        2968.75           1479       55307.00    242856.70
   33.75        2969.00           1482       52370.00    229870.50
   33.78        2969.25           1485       49348.00    216519.10
   33.81        2969.50           1489       45107.00    197800.20
   33.84        2969.75           1492       42564.00    186586.00
   33.87        2970.00           1495       39598.00    173516.00
   33.90        2970.25           1499       35889.00    157186.30
   33.92        2970.50           1502       32722.00    143255.60
   33.95        2970.75           1505       29185.00    127711.10
   33.98        2971.00           1509       25380.00    111005.10
   34.01        2971.25           1512       23014.00    100625.40
   34.03        2971.50           1515       20107.00     87881.34
   34.06        2971.75           1519       16530.00     72213.38
   34.09        2972.00           1522       13437.00     58677.32
   34.12        2972.25           1525       10285.00     44894.35
   34.15        2972.50           1529        6138.00     26777.83
   34.18        2972.75           1532        3378.00     14731.44
   34.21        2973.00           1536        1153.00      5026.48
   34.23        2973.25           1539         403.00      1756.41
   34.26        2973.50           1542         188.00       819.11
   34.29        2973.75           1546         145.00       631.66
   34.32        2974.00           1549         133.00       579.35
   34.34        2974.25           1552         127.00       553.19
   34.37        2974.50           1556         116.00       505.24
   34.40        2974.75           1559         118.00       513.96
   34.43        2975.00           1562         109.00       474.72
   34.46        2975.25           1566         103.00       448.57
   34.49        2975.50           1569         114.00       496.52
   34.51        2975.75           1572         105.00       457.29
   34.54        2976.00           1576         101.00       439.85
   34.57        2976.25           1579         111.00       483.44
   34.60        2976.50           1582          99.00       431.13
   34.63        2976.75           1586         101.00       439.85
   34.65        2977.00           1589         102.00       444.21
   34.68        2977.25           1592          97.00       422.41
   34.71        2977.50           1596         102.00       444.21
   34.74        2977.75           1599          92.00       400.62
   34.76        2978.00           1602          92.00       400.62
   34.79        2978.25           1606          99.00       431.13
   34.83        2978.50           1609         107.00       466.00
   34.85        2978.75           1612          98.00       426.77
   34.88        2979.00           1616          99.00       431.13
   34.91        2979.25           1619          96.00       418.05
   34.94        2979.50           1623          95.00       413.69
   34.96        2979.75           1626         103.00       448.57
   34.99        2980.00           1629          90.00       391.90
   35.02        2980.25           1633          95.00       413.69
   35.05        2980.50           1636          96.00       418.05
   35.08        2980.75           1639          95.00       413.69
   35.11        2981.00           1643          89.00       387.54
   35.13        2981.25           1646         109.00       474.72
   35.16        2981.50           1649         104.00       452.93
   35.19        2981.75           1653          96.00       418.05
   35.22        2982.00           1656          88.00       383.18
   35.25        2982.25           1659          93.00       404.97
   35.27        2982.50           1663          99.00       431.13
   35.30        2982.75           1666          93.00       404.97
   35.33        2983.00           1669          98.00       426.77
   35.36        2983.25           1673          96.00       418.05
   35.38        2983.50           1676          97.00       422.41
   35.41        2983.75           1679          93.00       404.97
   35.44        2984.00           1683          98.00       426.77
HS scan finished at 00:35:44
end
************************************************************
  HS Scan of (1) Internal mercury lamp
************************************************************
Integration time is 0.2294 seconds per sample
dh070717Delft 51.997-4.386 3.018777pr1000
************************************************************
Dead Time -------------------------  3E-08 
Number of Cycles Used -------------  4 
Starting Wavelength (Angstroms) ---  2950 
Final Wavelength (Angstoms) -------  2984 
Wavelength Increment (Angstroms) --  .25 
Filter Wheel #1 Position ---------- (1) Ground quartz diffuser (ND=2.32)
Filter Wheel #2 Position ---------- (1) Neutral Density 0.494



************************************************************
HS scan start time = 01:27:13
Dark Count =  .1 


Time (GMT)  Wavelength (Ang)  Step Number  Raw Counts  Counts/Second

   87.66        2950.00           1229         111.00       483.44
   87.76        2950.25           1232         117.00       509.60
   87.79        2950.50           1236         101.00       439.85
   87.82        2950.75           1239         114.00       496.52
   87.84        2951.00           1242         117.00       509.60
   87.87        2951.25           1246         121.00       527.04
   87.90        2951.50           1249         106.00       461.65
   87.93        2951.75           1252         111.00       483.44
   87.95        2952.00           1255         117.00       509.60
   87.98        2952.25           1259         120.00       522.68
   88.01        2952.50           1262         116.00       505.24
   88.04        2952.75           1265         100.00       435.49
   88.06        2953.00           1269         111.00       483.44
   88.09        2953.25           1272         111.00       483.44
   88.12        2953.50           1275         110.00       479.08
   88.15        2953.75           1279         112.00       487.80
   88.18        2954.00           1282         109.00       474.72
   88.20        2954.25           1285         109.00       474.72
   88.23        2954.50           1289         109.00       474.72
   88.26        2954.75           1292         116.00       505.24
   88.29        2955.00           1295         116.00       505.24
   88.31        2955.25           1299         105.00       457.29
   88.34        2955.50           1302         117.00       509.60
   88.37        2955.75           1305         108.00       470.36
   88.40        2956.00           1309         114.00       496.52
   88.42        2956.25           1312         112.00       487.80
   88.45        2956.50           1315         106.00       461.65
   88.48        2956.75           1319         107.00       466.00
   88.51        2957.00           1322         109.00       474.72
   88.54        2957.25           1325         122.00       531.39
   88.56        2957.50           1329         107.00       466.00
   88.59        2957.75           1332         109.00       474.72
   88.62        2958.00           1335         107.00       466.00
   88.65        2958.25           1339         111.00       483.44
   88.67        2958.50           1342         120.00       522.68
   88.70        2958.75           1345         106.00       461.65
   88.73        2959.00           1349         102.00       444.21
   88.76        2959.25           1352         104.00       452.93
   88.78        2959.50           1355         106.00       461.65
   88.81        2959.75           1359         108.00       470.36
   88.84        2960.00           1362         114.00       496.52
   88.87        2960.25           1365         125.00       544.47
   88.90        2960.50           1369         106.00       461.65
   88.92        2960.75           1372         128.00       557.55
   88.95        2961.00           1375         135.00       588.07
   88.98        2961.25           1379         143.00       622.94
   89.01        2961.50           1382         256.00      1115.56
   89.03        2961.75           1385         896.00      3905.86
   89.06        2962.00           1389        2635.00     11490.01
   89.09        2962.25           1392        4837.00     21098.35
   89.12        2962.50           1395        7399.00     32284.52
   89.14        2962.75           1399       11996.00     52374.74
   89.17        2963.00           1402       15032.00     65656.23
   89.20        2963.25           1405       17584.00     76828.58
   89.23        2963.50           1409       21599.00     94420.96
   89.26        2963.75           1412       25029.00    109464.80
   89.28        2964.00           1415       28195.00    123362.90
   89.31        2964.25           1419       32368.00    141699.20
   89.34        2964.50           1422       35216.00    154225.00
   89.37        2964.75           1425       38044.00    166672.20
   89.39        2965.00           1429       41911.00    183707.60
   89.42        2965.25           1432       45212.00    198263.40
   89.45        2965.50           1435       47985.00    210500.80
   89.48        2965.75           1439       52403.00    230016.40
   89.51        2966.00           1442       55877.00    245378.20
   89.53        2966.25           1445       58660.00    257694.60
   89.56        2966.50           1449       61586.00    270653.90
   89.59        2966.75           1452       63021.00    277013.10
   89.62        2967.00           1455       63236.00    277966.10
   89.65        2967.25           1459       63402.00    278702.00
   89.68        2967.50           1462       63460.00    278959.10
   89.70        2967.75           1465       63540.00    279313.70
   89.73        2968.00           1469       62142.00    273117.50
   89.76        2968.25           1472       60166.00    264363.40
   89.79        2968.50           1475       57334.00    251825.10
   89.82        2968.75           1479       53953.00    236868.60
   89.84        2969.00           1482       50978.00    223719.20
   89.87        2969.25           1485       48174.00    211335.20
   89.90        2969.50           1489       44355.00    194483.20
   89.93        2969.75           1492       41478.00    181799.20
   89.95        2970.00           1495       38558.00    168935.50
   89.98        2970.25           1499       35025.00    153384.60
   90.01        2970.50           1502       32216.00    141030.90
   90.04        2970.75           1505       29338.00    128383.20
   90.07        2971.00           1509       25035.00    109491.20
   90.09        2971.25           1512       22086.00     96556.09
   90.12        2971.50           1515       19072.00     83346.33
   90.15        2971.75           1519       15325.00     66938.56
   90.18        2972.00           1522       12644.00     55208.63
   90.20        2972.25           1525       10014.00     43709.85
   90.23        2972.50           1529        5932.00     25878.41
   90.26        2972.75           1532        3315.00     14456.57
   90.29        2973.00           1536        1220.00      5318.63
   90.32        2973.25           1539         515.00      2244.70
   90.35        2973.50           1542         216.00       941.18
   90.38        2973.75           1546         145.00       631.66
   90.41        2974.00           1549         140.00       609.86
   90.43        2974.25           1552         132.00       574.99
   90.47        2974.50           1556         114.00       496.52
   90.50        2974.75           1559         121.00       527.04
   90.52        2975.00           1562         102.00       444.21
   90.55        2975.25           1566         105.00       457.29
   90.58        2975.50           1569         107.00       466.00
   90.61        2975.75           1572         111.00       483.44
   90.64        2976.00           1576          97.00       422.41
   90.67        2976.25           1579         101.00       439.85
   90.69        2976.50           1582         110.00       479.08
   90.72        2976.75           1586         100.00       435.49
   90.75        2977.00           1589         101.00       439.85
   90.78        2977.25           1592         111.00       483.44
   90.81        2977.50           1596          93.00       404.97
   90.85        2977.75           1599         102.00       444.21
   90.88        2978.00           1602          99.00       431.13
   90.90        2978.25           1606          97.00       422.41
   90.93        2978.50           1609         105.00       457.29
   90.96        2978.75           1612         106.00       461.65
   90.99        2979.00           1616         103.00       448.57
   91.02        2979.25           1619         104.00       452.93
   91.04        2979.50           1623          99.00       431.13
   91.07        2979.75           1626         106.00       461.65
   91.10        2980.00           1629         101.00       439.85
   91.13        2980.25           1633         108.00       470.36
   91.15        2980.50           1636          95.00       413.69
   91.19        2980.75           1639          98.00       426.77
   91.22        2981.00           1643         101.00       439.85
   91.24        2981.25           1646         107.00       466.00
   91.27        2981.50           1649          95.00       413.69
   91.30        2981.75           1653         100.00       435.49
   91.34        2982.00           1656         100.00       435.49
   91.37        2982.25           1659         106.00       461.65
   91.39        2982.50           1663         105.00       457.29
   91.42        2982.75           1666          89.00       387.54
   91.45        2983.00           1669          94.00       409.33
   91.48        2983.25           1673          86.00       374.46
   91.50        2983.50           1676         105.00       457.29
   91.53        2983.75           1679          98.00       426.77
   91.56        2984.00           1683          97.00       422.41
HS scan finished at 01:31:51
end
