************************************************************
  HS Scan of (1) Internal mercury lamp
************************************************************
Integration time is 0.2294 seconds per sample
dh060717Delft 51.997-4.386 2.911481pr1000
************************************************************
Dead Time -------------------------  3E-08 
Number of Cycles Used -------------  4 
Starting Wavelength (Angstroms) ---  2950 
Final Wavelength (Angstoms) -------  2984 
Wavelength Increment (Angstroms) --  .25 
Filter Wheel #1 Position ---------- (1) Ground quartz diffuser (ND=2.32)
Filter Wheel #2 Position ---------- (1) Neutral Density 0.494



************************************************************
HS scan start time = 01:25:33
Dark Count =  0 


Time (GMT)  Wavelength (Ang)  Step Number  Raw Counts  Counts/Second

   86.00        2950.00           1229         113.00       492.60
   86.10        2950.25           1232         122.00       531.83
   86.12        2950.50           1236         122.00       531.83
   86.15        2950.75           1239         125.00       544.91
   86.18        2951.00           1242         120.00       523.11
   86.21        2951.25           1246         126.00       549.27
   86.23        2951.50           1249         113.00       492.60
   86.26        2951.75           1252         121.00       527.47
   86.29        2952.00           1255         108.00       470.80
   86.32        2952.25           1259         120.00       523.11
   86.35        2952.50           1262         124.00       540.55
   86.37        2952.75           1265         114.00       496.96
   86.40        2953.00           1269         118.00       514.39
   86.43        2953.25           1272         118.00       514.39
   86.46        2953.50           1275         124.00       540.55
   86.49        2953.75           1279         116.00       505.67
   86.52        2954.00           1282         114.00       496.96
   86.55        2954.25           1285         104.00       453.36
   86.58        2954.50           1289         108.00       470.80
   86.60        2954.75           1292         112.00       488.24
   86.63        2955.00           1295         110.00       479.52
   86.66        2955.25           1299         112.00       488.24
   86.69        2955.50           1302         123.00       536.19
   86.72        2955.75           1305         108.00       470.80
   86.74        2956.00           1309         109.00       475.16
   86.77        2956.25           1312         113.00       492.60
   86.80        2956.50           1315         116.00       505.67
   86.83        2956.75           1319         126.00       549.27
   86.86        2957.00           1322         112.00       488.24
   86.89        2957.25           1325         111.00       483.88
   86.91        2957.50           1329         105.00       457.72
   86.94        2957.75           1332         115.00       501.32
   86.97        2958.00           1335         125.00       544.91
   87.00        2958.25           1339         111.00       483.88
   87.03        2958.50           1342         120.00       523.11
   87.05        2958.75           1345         110.00       479.52
   87.08        2959.00           1349         116.00       505.67
   87.11        2959.25           1352         119.00       518.75
   87.14        2959.50           1355         107.00       466.44
   87.16        2959.75           1359         120.00       523.11
   87.19        2960.00           1362         112.00       488.24
   87.22        2960.25           1365         118.00       514.39
   87.25        2960.50           1369         117.00       510.03
   87.27        2960.75           1372         120.00       523.11
   87.30        2961.00           1375         123.00       536.19
   87.33        2961.25           1379         133.00       579.78
   87.36        2961.50           1382         226.00       985.21
   87.38        2961.75           1385         768.00      3348.20
   87.41        2962.00           1389        2593.00     11307.24
   87.44        2962.25           1392        4659.00     20321.89
   87.47        2962.50           1395        7137.00     31140.67
   87.49        2962.75           1399       11091.00     48418.15
   87.52        2963.00           1402       14089.00     61530.22
   87.56        2963.25           1405       16401.00     71649.04
   87.59        2963.50           1409       20234.00     88438.34
   87.62        2963.75           1412       23670.00    103503.10
   87.65        2964.00           1415       26530.00    116052.90
   87.68        2964.25           1419       30623.00    134029.60
   87.71        2964.50           1422       33765.00    147842.60
   87.74        2964.75           1425       36585.00    160249.80
   87.77        2965.00           1429       40289.00    176560.50
   87.79        2965.25           1432       43266.00    189681.40
   87.82        2965.50           1435       46165.00    202468.50
   87.85        2965.75           1439       49804.00    218533.50
   87.88        2966.00           1442       52221.00    229212.50
   87.90        2966.25           1445       54604.00    239747.90
   87.93        2966.50           1449       57806.00    253914.70
   87.96        2966.75           1452       59433.00    261117.70
   87.99        2967.00           1455       60175.00    264403.80
   88.02        2967.25           1459       60477.00    265741.40
   88.04        2967.50           1462       60524.00    265949.50
   88.07        2967.75           1465       60285.00    264891.00
   88.10        2968.00           1469       59102.00    259652.10
   88.13        2968.25           1472       57733.00    253591.50
   88.15        2968.50           1475       55416.00    243339.30
   88.18        2968.75           1479       52359.00    229822.40
   88.21        2969.00           1482       49746.00    218277.40
   88.24        2969.25           1485       47020.00    206241.60
   88.27        2969.50           1489       43495.00    190691.10
   88.29        2969.75           1492       40745.00    178569.60
   88.32        2970.00           1495       37250.00    163177.00
   88.35        2970.25           1499       33355.00    146039.50
   88.38        2970.50           1502       30583.00    133853.80
   88.41        2970.75           1505       27716.00    121259.90
   88.45        2971.00           1509       23872.00    104389.20
   88.48        2971.25           1512       20889.00     91309.06
   88.51        2971.50           1515       18493.00     80810.32
   88.53        2971.75           1519       15507.00     67735.60
   88.56        2972.00           1522       12797.00     55878.25
   88.59        2972.25           1525       10038.00     43815.19
   88.62        2972.50           1529        5778.00     25206.50
   88.64        2972.75           1532        3014.00     13143.80
   88.67        2973.00           1536         985.00      4294.36
   88.70        2973.25           1539         393.00      1713.25
   88.73        2973.50           1542         193.00       841.35
   88.76        2973.75           1546         151.00       658.25
   88.78        2974.00           1549         159.00       693.13
   88.81        2974.25           1552         135.00       588.50
   88.84        2974.50           1556         121.00       527.47
   88.87        2974.75           1559         114.00       496.96
   88.89        2975.00           1562         110.00       479.52
   88.92        2975.25           1566         104.00       453.36
   88.95        2975.50           1569         112.00       488.24
   88.98        2975.75           1572          94.00       409.77
   89.01        2976.00           1576         106.00       462.08
   89.04        2976.25           1579         106.00       462.08
   89.07        2976.50           1582         104.00       453.36
   89.09        2976.75           1586         106.00       462.08
   89.12        2977.00           1589         107.00       466.44
   89.15        2977.25           1592          94.00       409.77
   89.18        2977.50           1596         109.00       475.16
   89.20        2977.75           1599         101.00       440.28
   89.23        2978.00           1602         104.00       453.36
   89.26        2978.25           1606         104.00       453.36
   89.29        2978.50           1609         109.00       475.16
   89.31        2978.75           1612         110.00       479.52
   89.34        2979.00           1616         107.00       466.44
   89.37        2979.25           1619         108.00       470.80
   89.40        2979.50           1623          99.00       431.57
   89.43        2979.75           1626          91.00       396.69
   89.45        2980.00           1629          99.00       431.57
   89.48        2980.25           1633         103.00       449.00
   89.51        2980.50           1636          94.00       409.77
   89.54        2980.75           1639         106.00       462.08
   89.56        2981.00           1643          95.00       414.13
   89.59        2981.25           1646          94.00       409.77
   89.62        2981.50           1649         104.00       453.36
   89.65        2981.75           1653         101.00       440.28
   89.67        2982.00           1656          96.00       418.49
   89.70        2982.25           1659         100.00       435.93
   89.73        2982.50           1663          93.00       405.41
   89.76        2982.75           1666          93.00       405.41
   89.78        2983.00           1669         107.00       466.44
   89.81        2983.25           1673          99.00       431.57
   89.84        2983.50           1676         116.00       505.67
   89.87        2983.75           1679          94.00       409.77
   89.90        2984.00           1683          92.00       401.05
HS scan finished at 01:30:12
end
