************************************************************
  HS Scan of (1) Internal mercury lamp
************************************************************
Integration time is 0.2294 seconds per sample
dh050717Delft 51.997-4.386 3.018777pr1000
************************************************************
Dead Time -------------------------  3E-08 
Number of Cycles Used -------------  4 
Starting Wavelength (Angstroms) ---  2950 
Final Wavelength (Angstoms) -------  2984 
Wavelength Increment (Angstroms) --  .25 
Filter Wheel #1 Position ---------- (1) Ground quartz diffuser (ND=2.32)
Filter Wheel #2 Position ---------- (1) Neutral Density 0.494



************************************************************
HS scan start time = 01:59:19
Dark Count =  .2 


Time (GMT)  Wavelength (Ang)  Step Number  Raw Counts  Counts/Second

  119.76        2950.00           1229         123.00       535.32
  119.86        2950.25           1232         124.00       539.68
  119.89        2950.50           1236         121.00       526.60
  119.92        2950.75           1239         118.00       513.52
  119.95        2951.00           1242         117.00       509.16
  119.97        2951.25           1246         120.00       522.24
  120.00        2951.50           1249         113.00       491.72
  120.03        2951.75           1252         110.00       478.65
  120.06        2952.00           1255         107.00       465.57
  120.08        2952.25           1259         108.00       469.93
  120.11        2952.50           1262         104.00       452.49
  120.14        2952.75           1265         109.00       474.29
  120.17        2953.00           1269         115.00       500.44
  120.20        2953.25           1272         124.00       539.68
  120.22        2953.50           1275         119.00       517.88
  120.25        2953.75           1279         110.00       478.65
  120.28        2954.00           1282         113.00       491.72
  120.31        2954.25           1285         115.00       500.44
  120.34        2954.50           1289         106.00       461.21
  120.37        2954.75           1292         115.00       500.44
  120.39        2955.00           1295         123.00       535.32
  120.42        2955.25           1299         116.00       504.80
  120.45        2955.50           1302         108.00       469.93
  120.48        2955.75           1305         121.00       526.60
  120.50        2956.00           1309         108.00       469.93
  120.53        2956.25           1312         113.00       491.72
  120.56        2956.50           1315         109.00       474.29
  120.59        2956.75           1319         113.00       491.72
  120.61        2957.00           1322         103.00       448.13
  120.64        2957.25           1325         110.00       478.65
  120.67        2957.50           1329         106.00       461.21
  120.70        2957.75           1332         105.00       456.85
  120.73        2958.00           1335         107.00       465.57
  120.75        2958.25           1339         122.00       530.96
  120.78        2958.50           1342         108.00       469.93
  120.81        2958.75           1345         104.00       452.49
  120.84        2959.00           1349         100.00       435.05
  120.86        2959.25           1352         111.00       483.01
  120.89        2959.50           1355         109.00       474.29
  120.92        2959.75           1359          96.00       417.62
  120.95        2960.00           1362         116.00       504.80
  120.98        2960.25           1365         113.00       491.72
  121.01        2960.50           1369         119.00       517.88
  121.04        2960.75           1372         125.00       544.04
  121.06        2961.00           1375         134.00       583.27
  121.09        2961.25           1379         143.00       622.51
  121.12        2961.50           1382         216.00       940.74
  121.15        2961.75           1385         816.00      3556.61
  121.17        2962.00           1389        3149.00     13731.90
  121.20        2962.25           1392        5526.00     24105.48
  121.23        2962.50           1395        8445.00     36853.28
  121.26        2962.75           1399       12351.00     53926.76
  121.28        2963.00           1402       14803.00     64653.62
  121.31        2963.25           1405       17722.00     77432.50
  121.34        2963.50           1409       22132.00     96757.35
  121.37        2963.75           1412       25104.00    109793.50
  121.40        2964.00           1415       28315.00    123889.40
  121.42        2964.25           1419       32038.00    140248.00
  121.45        2964.50           1422       34907.00    152865.10
  121.48        2964.75           1425       37767.00    165452.20
  121.51        2965.00           1429       41938.00    183826.10
  121.53        2965.25           1432       45570.00    199842.30
  121.56        2965.50           1435       48105.00    211030.20
  121.59        2965.75           1439       51582.00    226387.60
  121.62        2966.00           1442       54496.00    239269.40
  121.65        2966.25           1445       57896.00    254312.10
  121.68        2966.50           1449       61154.00    268739.50
  121.71        2966.75           1452       62552.00    274934.00
  121.74        2967.00           1455       63373.00    278573.00
  121.77        2967.25           1459       63317.00    278324.80
  121.79        2967.50           1462       63294.00    278222.80
  121.82        2967.75           1465       62896.00    276458.60
  121.85        2968.00           1469       61489.00    270223.60
  121.88        2968.25           1472       59548.00    261626.10
  121.91        2968.50           1475       57256.00    251479.50
  121.94        2968.75           1479       54198.00    237951.50
  121.97        2969.00           1482       51371.00    225455.30
  121.99        2969.25           1485       48412.00    212385.60
  122.02        2969.50           1489       44071.00    193230.20
  122.05        2969.75           1492       41414.00    181516.70
  122.08        2970.00           1495       38443.00    168428.70
  122.11        2970.25           1499       34840.00    152570.40
  122.13        2970.50           1502       31728.00    138885.30
  122.16        2970.75           1505       28443.00    124451.60
  122.19        2971.00           1509       24619.00    107665.40
  122.22        2971.25           1512       22153.00     96849.42
  122.24        2971.50           1515       19361.00     84612.06
  122.27        2971.75           1519       15821.00     69109.13
  122.30        2972.00           1522       12890.00     56284.15
  122.33        2972.25           1525        9895.00     43189.32
  122.35        2972.50           1529        5923.00     25838.68
  122.38        2972.75           1532        3175.00     13845.33
  122.41        2973.00           1536         965.00      4206.29
  122.44        2973.25           1539         350.00      1524.92
  122.46        2973.50           1542         172.00       748.93
  122.50        2973.75           1546         142.00       618.15
  122.53        2974.00           1549         140.00       609.43
  122.56        2974.25           1552         126.00       548.40
  122.58        2974.50           1556         122.00       530.96
  122.61        2974.75           1559         109.00       474.29
  122.64        2975.00           1562         101.00       439.41
  122.67        2975.25           1566         105.00       456.85
  122.70        2975.50           1569          99.00       430.69
  122.72        2975.75           1572         113.00       491.72
  122.75        2976.00           1576         104.00       452.49
  122.78        2976.25           1579         110.00       478.65
  122.81        2976.50           1582          98.00       426.34
  122.83        2976.75           1586         106.00       461.21
  122.86        2977.00           1589          99.00       430.69
  122.89        2977.25           1592         103.00       448.13
  122.92        2977.50           1596         106.00       461.21
  122.95        2977.75           1599          98.00       426.34
  122.97        2978.00           1602         109.00       474.29
  123.00        2978.25           1606         104.00       452.49
  123.03        2978.50           1609          90.00       391.46
  123.06        2978.75           1612          94.00       408.90
  123.08        2979.00           1616          99.00       430.69
  123.11        2979.25           1619          99.00       430.69
  123.14        2979.50           1623         104.00       452.49
  123.17        2979.75           1626          92.00       400.18
  123.19        2980.00           1629          91.00       395.82
  123.22        2980.25           1633         105.00       456.85
  123.25        2980.50           1636          97.00       421.98
  123.28        2980.75           1639         102.00       443.77
  123.31        2981.00           1643          95.00       413.26
  123.33        2981.25           1646         102.00       443.77
  123.36        2981.50           1649          97.00       421.98
  123.39        2981.75           1653          92.00       400.18
  123.42        2982.00           1656         103.00       448.13
  123.45        2982.25           1659          86.00       374.02
  123.48        2982.50           1663          94.00       408.90
  123.51        2982.75           1666          94.00       408.90
  123.53        2983.00           1669          87.00       378.38
  123.56        2983.25           1673          91.00       395.82
  123.59        2983.50           1676          91.00       395.82
  123.62        2983.75           1679         102.00       443.77
  123.64        2984.00           1683          95.00       413.26
HS scan finished at 02:03:57
end
