************************************************************
  HS Scan of (1) Internal mercury lamp
************************************************************
Integration time is 0.2294 seconds per sample
dh010717Delft 51.997-4.386 2.750537pr1000
************************************************************
Dead Time -------------------------  3E-08 
Number of Cycles Used -------------  4 
Starting Wavelength (Angstroms) ---  2950 
Final Wavelength (Angstoms) -------  2984 
Wavelength Increment (Angstroms) --  .25 
Filter Wheel #1 Position ---------- (1) Ground quartz diffuser (ND=2.32)
Filter Wheel #2 Position ---------- (1) Neutral Density 0.494



************************************************************
HS scan start time = 01:16:49
Dark Count =  .1 


Time (GMT)  Wavelength (Ang)  Step Number  Raw Counts  Counts/Second

   77.26        2950.00           1229         114.00       496.52
   77.36        2950.25           1232         129.00       561.91
   77.39        2950.50           1236         120.00       522.68
   77.42        2950.75           1239         118.00       513.96
   77.44        2951.00           1242         115.00       500.88
   77.47        2951.25           1246         120.00       522.68
   77.50        2951.50           1249         115.00       500.88
   77.53        2951.75           1252         123.00       535.75
   77.56        2952.00           1255         114.00       496.52
   77.59        2952.25           1259         132.00       574.99
   77.62        2952.50           1262         114.00       496.52
   77.65        2952.75           1265         117.00       509.60
   77.68        2953.00           1269         119.00       518.32
   77.70        2953.25           1272         131.00       570.63
   77.73        2953.50           1275         120.00       522.68
   77.76        2953.75           1279         123.00       535.75
   77.79        2954.00           1282         115.00       500.88
   77.81        2954.25           1285         122.00       531.39
   77.84        2954.50           1289         116.00       505.24
   77.87        2954.75           1292         132.00       574.99
   77.90        2955.00           1295         115.00       500.88
   77.92        2955.25           1299         121.00       527.04
   77.95        2955.50           1302         111.00       483.44
   77.98        2955.75           1305         115.00       500.88
   78.01        2956.00           1309         121.00       527.04
   78.04        2956.25           1312         126.00       548.83
   78.06        2956.50           1315         119.00       518.32
   78.09        2956.75           1319         118.00       513.96
   78.12        2957.00           1322         117.00       509.60
   78.15        2957.25           1325         113.00       492.16
   78.17        2957.50           1329         112.00       487.80
   78.20        2957.75           1332         111.00       483.44
   78.23        2958.00           1335         108.00       470.36
   78.26        2958.25           1339         126.00       548.83
   78.28        2958.50           1342         117.00       509.60
   78.31        2958.75           1345         119.00       518.32
   78.34        2959.00           1349         114.00       496.52
   78.37        2959.25           1352         111.00       483.44
   78.40        2959.50           1355         119.00       518.32
   78.42        2959.75           1359         111.00       483.44
   78.45        2960.00           1362         126.00       548.83
   78.48        2960.25           1365         122.00       531.39
   78.51        2960.50           1369         120.00       522.68
   78.53        2960.75           1372         133.00       579.35
   78.56        2961.00           1375         133.00       579.35
   78.59        2961.25           1379         154.00       670.89
   78.62        2961.50           1382         222.00       967.33
   78.64        2961.75           1385         826.00      3600.65
   78.67        2962.00           1389        3200.00     13954.84
   78.70        2962.25           1392        5314.00     23180.46
   78.73        2962.50           1395        7223.00     31515.84
   78.76        2962.75           1399       10524.00     45939.04
   78.78        2963.00           1402       13458.00     58769.18
   78.81        2963.25           1405       16473.00     71963.83
   78.84        2963.50           1409       20569.00     89906.07
   78.87        2963.75           1412       23156.00    101248.20
   78.89        2964.00           1415       25485.00    111465.80
   78.92        2964.25           1419       29206.00    127803.40
   78.95        2964.50           1422       32086.00    140459.40
   78.98        2964.75           1425       34875.00    152724.80
   79.01        2965.00           1429       38895.00    170419.60
   79.03        2965.25           1432       41789.00    183169.90
   79.06        2965.50           1435       44279.00    194148.00
   79.09        2965.75           1439       47820.00    209772.40
   79.12        2966.00           1442       50388.00    221112.70
   79.15        2966.25           1445       53017.00    232730.40
   79.17        2966.50           1449       56058.00    246178.90
   79.20        2966.75           1452       56697.00    249006.20
   79.23        2967.00           1455       57044.00    250541.70
   79.26        2967.25           1459       57164.00    251072.80
   79.28        2967.50           1462       57094.00    250763.00
   79.31        2967.75           1465       57084.00    250718.70
   79.34        2968.00           1469       55542.00    243896.20
   79.37        2968.25           1472       54187.00    237903.30
   79.40        2968.50           1475       51667.00    226763.70
   79.43        2968.75           1479       48547.00    212982.10
   79.46        2969.00           1482       45649.00    200191.30
   79.48        2969.25           1485       43075.00    188838.80
   79.51        2969.50           1489       40216.00    176238.40
   79.54        2969.75           1492       37882.00    165958.90
   79.57        2970.00           1495       35313.00    154651.80
   79.60        2970.25           1499       31581.00    138239.50
   79.62        2970.50           1502       28591.00    125102.00
   79.65        2970.75           1505       25686.00    112348.00
   79.68        2971.00           1509       21998.00     96170.27
   79.71        2971.25           1512       19683.00     86023.38
   79.73        2971.50           1515       17042.00     74455.13
   79.76        2971.75           1519       13623.00     59491.01
   79.79        2972.00           1522       10758.00     46961.94
   79.82        2972.25           1525        8652.00     37758.10
   79.85        2972.50           1529        5633.00     24573.03
   79.87        2972.75           1532        3098.00     13509.83
   79.90        2973.00           1536        1001.00      4363.69
   79.93        2973.25           1539         331.00      1442.52
   79.96        2973.50           1542         174.00       758.08
   79.98        2973.75           1546         155.00       675.25
   80.01        2974.00           1549         146.00       636.02
   80.04        2974.25           1552         115.00       500.88
   80.07        2974.50           1556         127.00       553.19
   80.09        2974.75           1559         120.00       522.68
   80.12        2975.00           1562         115.00       500.88
   80.15        2975.25           1566         115.00       500.88
   80.18        2975.50           1569          99.00       431.13
   80.20        2975.75           1572         116.00       505.24
   80.24        2976.00           1576         105.00       457.29
   80.27        2976.25           1579         102.00       444.21
   80.30        2976.50           1582         110.00       479.08
   80.33        2976.75           1586         110.00       479.08
   80.35        2977.00           1589         112.00       487.80
   80.38        2977.25           1592          99.00       431.13
   80.41        2977.50           1596          99.00       431.13
   80.44        2977.75           1599         109.00       474.72
   80.46        2978.00           1602         106.00       461.65
   80.49        2978.25           1606          99.00       431.13
   80.52        2978.50           1609         104.00       452.93
   80.55        2978.75           1612         104.00       452.93
   80.57        2979.00           1616         108.00       470.36
   80.60        2979.25           1619         109.00       474.72
   80.63        2979.50           1623         107.00       466.00
   80.66        2979.75           1626          95.00       413.69
   80.69        2980.00           1629          92.00       400.62
   80.71        2980.25           1633         109.00       474.72
   80.74        2980.50           1636         108.00       470.36
   80.77        2980.75           1639         107.00       466.00
   80.80        2981.00           1643         110.00       479.08
   80.82        2981.25           1646         100.00       435.49
   80.85        2981.50           1649         100.00       435.49
   80.88        2981.75           1653         108.00       470.36
   80.91        2982.00           1656         104.00       452.93
   80.93        2982.25           1659         104.00       452.93
   80.97        2982.50           1663         111.00       483.44
   81.00        2982.75           1666         107.00       466.00
   81.02        2983.00           1669         100.00       435.49
   81.05        2983.25           1673         104.00       452.93
   81.08        2983.50           1676         106.00       461.65
   81.11        2983.75           1679         101.00       439.85
   81.13        2984.00           1683         105.00       457.29
HS scan finished at 01:21:26
end
