************************************************************
  HS Scan of (1) Internal mercury lamp
************************************************************
Integration time is 0.2294 seconds per sample
dh080717Delft 51.997-4.386 3.018777pr1000
************************************************************
Dead Time -------------------------  3E-08 
Number of Cycles Used -------------  4 
Starting Wavelength (Angstroms) ---  2950 
Final Wavelength (Angstoms) -------  2984 
Wavelength Increment (Angstroms) --  .25 
Filter Wheel #1 Position ---------- (1) Ground quartz diffuser (ND=2.32)
Filter Wheel #2 Position ---------- (1) Neutral Density 0.494



************************************************************
HS scan start time = 01:12:52
Dark Count =  .1 


Time (GMT)  Wavelength (Ang)  Step Number  Raw Counts  Counts/Second

   73.32        2950.00           1229         118.00       513.96
   73.42        2950.25           1232         115.00       500.88
   73.44        2950.50           1236         126.00       548.83
   73.47        2950.75           1239         110.00       479.08
   73.50        2951.00           1242         112.00       487.80
   73.53        2951.25           1246         110.00       479.08
   73.55        2951.50           1249         113.00       492.16
   73.58        2951.75           1252         117.00       509.60
   73.61        2952.00           1255         107.00       466.00
   73.64        2952.25           1259         104.00       452.93
   73.66        2952.50           1262         113.00       492.16
   73.69        2952.75           1265         121.00       527.04
   73.72        2953.00           1269         109.00       474.72
   73.75        2953.25           1272         120.00       522.68
   73.78        2953.50           1275         115.00       500.88
   73.81        2953.75           1279         107.00       466.00
   73.83        2954.00           1282         107.00       466.00
   73.86        2954.25           1285         120.00       522.68
   73.89        2954.50           1289         124.00       540.11
   73.92        2954.75           1292         114.00       496.52
   73.95        2955.00           1295         103.00       448.57
   73.98        2955.25           1299         111.00       483.44
   74.01        2955.50           1302         114.00       496.52
   74.03        2955.75           1305         108.00       470.36
   74.06        2956.00           1309         110.00       479.08
   74.10        2956.25           1312         109.00       474.72
   74.13        2956.50           1315         104.00       452.93
   74.15        2956.75           1319         106.00       461.65
   74.18        2957.00           1322         114.00       496.52
   74.21        2957.25           1325         104.00       452.93
   74.24        2957.50           1329         109.00       474.72
   74.27        2957.75           1332         106.00       461.65
   74.29        2958.00           1335         109.00       474.72
   74.32        2958.25           1339         109.00       474.72
   74.35        2958.50           1342         108.00       470.36
   74.38        2958.75           1345         119.00       518.32
   74.40        2959.00           1349         109.00       474.72
   74.43        2959.25           1352         112.00       487.80
   74.46        2959.50           1355         105.00       457.29
   74.49        2959.75           1359         113.00       492.16
   74.51        2960.00           1362         111.00       483.44
   74.54        2960.25           1365         113.00       492.16
   74.57        2960.50           1369         115.00       500.88
   74.60        2960.75           1372         120.00       522.68
   74.62        2961.00           1375         133.00       579.35
   74.65        2961.25           1379         140.00       609.86
   74.68        2961.50           1382         203.00       884.50
   74.71        2961.75           1385         735.00      3203.88
   74.74        2962.00           1389        2862.00     12480.26
   74.77        2962.25           1392        5220.00     22770.13
   74.80        2962.50           1395        7961.00     34739.33
   74.82        2962.75           1399       11670.00     50949.23
   74.85        2963.00           1402       14531.00     63463.78
   74.88        2963.25           1405       17657.00     77148.27
   74.91        2963.50           1409       22334.00     97643.50
   74.94        2963.75           1412       25417.00    111167.40
   74.97        2964.00           1415       28804.00    126037.60
   75.00        2964.25           1419       32850.00    143818.40
   75.03        2964.50           1422       36225.00    158665.00
   75.05        2964.75           1425       39026.00    170996.60
   75.08        2965.00           1429       43226.00    189504.60
   75.11        2965.25           1432       46244.00    202816.60
   75.14        2965.50           1435       48981.00    214898.40
   75.17        2965.75           1439       52390.00    229958.90
   75.20        2966.00           1442       55149.00    242157.80
   75.23        2966.25           1445       58411.00    256592.30
   75.25        2966.50           1449       61937.00    272209.10
   75.28        2966.75           1452       63484.00    279065.50
   75.31        2967.00           1455       64278.00    282585.60
   75.34        2967.25           1459       64332.00    282825.00
   75.36        2967.50           1462       64437.00    283290.60
   75.39        2967.75           1465       64345.00    282882.70
   75.42        2968.00           1469       63172.00    277682.50
   75.45        2968.25           1472       61877.00    271943.30
   75.48        2968.50           1475       59574.00    261741.70
   75.51        2968.75           1479       55897.00    245466.70
   75.54        2969.00           1482       53200.00    233539.40
   75.56        2969.25           1485       50252.00    220512.00
   75.59        2969.50           1489       45888.00    201245.80
   75.62        2969.75           1492       42614.00    186806.40
   75.65        2970.00           1495       39560.00    173348.60
   75.68        2970.25           1499       35991.00    157635.20
   75.70        2970.50           1502       32690.00    143114.90
   75.73        2970.75           1505       29426.00    128769.80
   75.76        2971.00           1509       25679.00    112317.20
   75.79        2971.25           1512       23039.00    100735.10
   75.82        2971.50           1515       20098.00     87841.91
   75.84        2971.75           1519       16270.00     71075.11
   75.87        2972.00           1522       12832.00     56030.90
   75.90        2972.25           1525        9758.00     42591.01
   75.93        2972.50           1529        5559.00     24249.98
   75.95        2972.75           1532        3165.00     13802.14
   75.98        2973.00           1536        1090.00      4751.77
   76.01        2973.25           1539         416.00      1813.09
   76.04        2973.50           1542         195.00       849.63
   76.06        2973.75           1546         143.00       622.94
   76.09        2974.00           1549         133.00       579.35
   76.12        2974.25           1552         131.00       570.63
   76.15        2974.50           1556         117.00       509.60
   76.18        2974.75           1559         108.00       470.36
   76.20        2975.00           1562         109.00       474.72
   76.23        2975.25           1566         108.00       470.36
   76.26        2975.50           1569          97.00       422.41
   76.29        2975.75           1572         105.00       457.29
   76.31        2976.00           1576          98.00       426.77
   76.34        2976.25           1579         105.00       457.29
   76.37        2976.50           1582          98.00       426.77
   76.40        2976.75           1586          99.00       431.13
   76.42        2977.00           1589         100.00       435.49
   76.45        2977.25           1592         109.00       474.72
   76.48        2977.50           1596          96.00       418.05
   76.51        2977.75           1599         103.00       448.57
   76.53        2978.00           1602         100.00       435.49
   76.56        2978.25           1606         105.00       457.29
   76.59        2978.50           1609         103.00       448.57
   76.62        2978.75           1612         100.00       435.49
   76.64        2979.00           1616          96.00       418.05
   76.67        2979.25           1619          90.00       391.90
   76.70        2979.50           1623          95.00       413.69
   76.73        2979.75           1626         101.00       439.85
   76.75        2980.00           1629          87.00       378.82
   76.78        2980.25           1633         100.00       435.49
   76.81        2980.50           1636         103.00       448.57
   76.84        2980.75           1639          98.00       426.77
   76.87        2981.00           1643          91.00       396.26
   76.90        2981.25           1646          89.00       387.54
   76.93        2981.50           1649         102.00       444.21
   76.95        2981.75           1653          97.00       422.41
   76.98        2982.00           1656         101.00       439.85
   77.01        2982.25           1659         101.00       439.85
   77.04        2982.50           1663          96.00       418.05
   77.06        2982.75           1666          95.00       413.69
   77.09        2983.00           1669          93.00       404.97
   77.12        2983.25           1673          91.00       396.26
   77.15        2983.50           1676          92.00       400.62
   77.17        2983.75           1679         101.00       439.85
   77.21        2984.00           1683          98.00       426.77
HS scan finished at 01:17:31
end
