************************************************************
  HS Scan of (1) Internal mercury lamp
************************************************************
Integration time is 0.2294 seconds per sample
dh200717Delft 51.997-4.386 3.126073pr1000
************************************************************
Dead Time -------------------------  3E-08 
Number of Cycles Used -------------  4 
Starting Wavelength (Angstroms) ---  2950 
Final Wavelength (Angstoms) -------  2984 
Wavelength Increment (Angstroms) --  .25 
Filter Wheel #1 Position ---------- (1) Ground quartz diffuser (ND=2.32)
Filter Wheel #2 Position ---------- (1) Neutral Density 0.494



************************************************************
HS scan start time = 01:21:29
Dark Count =  .2 


Time (GMT)  Wavelength (Ang)  Step Number  Raw Counts  Counts/Second

   81.93        2950.00           1229         109.00       474.29
   82.03        2950.25           1232         119.00       517.88
   82.06        2950.50           1236         113.00       491.72
   82.09        2950.75           1239         102.00       443.77
   82.12        2951.00           1242         110.00       478.65
   82.15        2951.25           1246         113.00       491.72
   82.17        2951.50           1249         121.00       526.60
   82.20        2951.75           1252         119.00       517.88
   82.23        2952.00           1255         101.00       439.41
   82.26        2952.25           1259         111.00       483.01
   82.28        2952.50           1262         108.00       469.93
   82.31        2952.75           1265         116.00       504.80
   82.34        2953.00           1269         108.00       469.93
   82.37        2953.25           1272         105.00       456.85
   82.40        2953.50           1275         106.00       461.21
   82.42        2953.75           1279         107.00       465.57
   82.45        2954.00           1282         103.00       448.13
   82.48        2954.25           1285         103.00       448.13
   82.51        2954.50           1289         114.00       496.08
   82.53        2954.75           1292         110.00       478.65
   82.56        2955.00           1295         109.00       474.29
   82.59        2955.25           1299         102.00       443.77
   82.62        2955.50           1302         112.00       487.37
   82.64        2955.75           1305         111.00       483.01
   82.67        2956.00           1309          94.00       408.90
   82.70        2956.25           1312         118.00       513.52
   82.73        2956.50           1315         103.00       448.13
   82.75        2956.75           1319         109.00       474.29
   82.78        2957.00           1322         101.00       439.41
   82.81        2957.25           1325         120.00       522.24
   82.84        2957.50           1329         100.00       435.05
   82.86        2957.75           1332         105.00       456.85
   82.89        2958.00           1335         109.00       474.29
   82.92        2958.25           1339         104.00       452.49
   82.95        2958.50           1342         119.00       517.88
   82.98        2958.75           1345         113.00       491.72
   83.00        2959.00           1349         110.00       478.65
   83.03        2959.25           1352          98.00       426.34
   83.06        2959.50           1355         108.00       469.93
   83.09        2959.75           1359         105.00       456.85
   83.11        2960.00           1362         104.00       452.49
   83.14        2960.25           1365         112.00       487.37
   83.17        2960.50           1369         115.00       500.44
   83.20        2960.75           1372         122.00       530.96
   83.22        2961.00           1375         117.00       509.16
   83.25        2961.25           1379         141.00       613.79
   83.28        2961.50           1382         205.00       892.79
   83.31        2961.75           1385         780.00      3399.65
   83.33        2962.00           1389        3091.00     13478.86
   83.36        2962.25           1392        5795.00     25279.85
   83.39        2962.50           1395        8665.00     37814.45
   83.42        2962.75           1399       12727.00     55571.21
   83.45        2963.00           1402       15293.00     66798.07
   83.47        2963.25           1405       18133.00     79232.58
   83.50        2963.50           1409       22738.00     99414.63
   83.53        2963.75           1412       25995.00    113703.70
   83.56        2964.00           1415       29282.00    128136.80
   83.58        2964.25           1419       33109.00    144956.80
   83.61        2964.50           1422       36134.00    158264.00
   83.64        2964.75           1425       39352.00    172432.00
   83.67        2965.00           1429       43538.00    190879.80
   83.69        2965.25           1432       47411.00    207966.50
   83.72        2965.50           1435       50030.00    219530.90
   83.75        2965.75           1439       53713.00    235807.00
   83.78        2966.00           1442       56751.00    249244.70
   83.81        2966.25           1445       60016.00    263698.60
   83.83        2966.50           1449       63426.00    278808.00
   83.86        2966.75           1452       65357.00    287370.10
   83.89        2967.00           1455       65794.00    289308.30
   83.92        2967.25           1459       65835.00    289490.20
   83.94        2967.50           1462       65988.00    290168.90
   83.97        2967.75           1465       65846.00    289539.00
   84.00        2968.00           1469       64005.00    281374.80
   84.03        2968.25           1472       62277.00    273715.30
   84.06        2968.50           1475       59592.00    261820.90
   84.08        2968.75           1479       56485.00    248067.70
   84.11        2969.00           1482       53558.00    235121.70
   84.14        2969.25           1485       50245.00    220480.60
   84.17        2969.50           1489       45964.00    201580.70
   84.20        2969.75           1492       43276.00    189724.60
   84.22        2970.00           1495       40259.00    176427.40
   84.25        2970.25           1499       36403.00    159447.90
   84.28        2970.50           1502       33155.00    145159.10
   84.31        2970.75           1505       29744.00    130166.40
   84.34        2971.00           1509       25799.00    112843.40
   84.36        2971.25           1512       23137.00    101164.50
   84.39        2971.50           1515       20060.00     87674.94
   84.43        2971.75           1519       16691.00     72917.84
   84.46        2972.00           1522       13572.00     59267.45
   84.49        2972.25           1525       10315.00     45025.03
   84.52        2972.50           1529        6056.00     26419.36
   84.55        2972.75           1532        3312.00     14443.05
   84.57        2973.00           1536        1012.00      4411.22
   84.60        2973.25           1539         358.00      1559.79
   84.63        2973.50           1542         173.00       753.29
   84.66        2973.75           1546         148.00       644.30
   84.68        2974.00           1549         132.00       574.55
   84.71        2974.25           1552         139.00       605.07
   84.74        2974.50           1556         115.00       500.44
   84.77        2974.75           1559         110.00       478.65
   84.79        2975.00           1562         103.00       448.13
   84.82        2975.25           1566          97.00       421.98
   84.85        2975.50           1569         106.00       461.21
   84.88        2975.75           1572         101.00       439.41
   84.91        2976.00           1576          99.00       430.69
   84.93        2976.25           1579          97.00       421.98
   84.96        2976.50           1582         112.00       487.37
   84.99        2976.75           1586          96.00       417.62
   85.02        2977.00           1589         100.00       435.05
   85.04        2977.25           1592         104.00       452.49
   85.07        2977.50           1596          92.00       400.18
   85.10        2977.75           1599          93.00       404.54
   85.13        2978.00           1602          95.00       413.26
   85.16        2978.25           1606          94.00       408.90
   85.18        2978.50           1609          97.00       421.98
   85.21        2978.75           1612          99.00       430.69
   85.24        2979.00           1616          98.00       426.34
   85.27        2979.25           1619          94.00       408.90
   85.30        2979.50           1623          93.00       404.54
   85.33        2979.75           1626          87.00       378.38
   85.36        2980.00           1629          94.00       408.90
   85.39        2980.25           1633          98.00       426.34
   85.42        2980.50           1636          93.00       404.54
   85.44        2980.75           1639          90.00       391.46
   85.47        2981.00           1643         108.00       469.93
   85.50        2981.25           1646          94.00       408.90
   85.53        2981.50           1649          99.00       430.69
   85.55        2981.75           1653          86.00       374.02
   85.58        2982.00           1656          93.00       404.54
   85.61        2982.25           1659          95.00       413.26
   85.64        2982.50           1663          94.00       408.90
   85.66        2982.75           1666          88.00       382.74
   85.69        2983.00           1669          85.00       369.66
   85.72        2983.25           1673          90.00       391.46
   85.75        2983.50           1676          83.00       360.95
   85.78        2983.75           1679          88.00       382.74
   85.80        2984.00           1683          96.00       417.62
HS scan finished at 01:26:06
end
