************************************************************
  HS Scan of (1) Internal mercury lamp
************************************************************
Integration time is 0.2294 seconds per sample
dh190717Delft 51.997-4.386 3.018777pr1000
************************************************************
Dead Time -------------------------  3E-08 
Number of Cycles Used -------------  4 
Starting Wavelength (Angstroms) ---  2950 
Final Wavelength (Angstoms) -------  2984 
Wavelength Increment (Angstroms) --  .25 
Filter Wheel #1 Position ---------- (1) Ground quartz diffuser (ND=2.32)
Filter Wheel #2 Position ---------- (1) Neutral Density 0.494



************************************************************
HS scan start time = 01:55:15
Dark Count =  .1 


Time (GMT)  Wavelength (Ang)  Step Number  Raw Counts  Counts/Second

  115.70        2950.00           1229         114.00       496.52
  115.80        2950.25           1232         115.00       500.88
  115.82        2950.50           1236         110.00       479.08
  115.85        2950.75           1239         114.00       496.52
  115.88        2951.00           1242         115.00       500.88
  115.91        2951.25           1246         119.00       518.32
  115.93        2951.50           1249         113.00       492.16
  115.96        2951.75           1252         116.00       505.24
  115.99        2952.00           1255         108.00       470.36
  116.02        2952.25           1259         108.00       470.36
  116.05        2952.50           1262         109.00       474.72
  116.07        2952.75           1265         113.00       492.16
  116.10        2953.00           1269         118.00       513.96
  116.13        2953.25           1272         107.00       466.00
  116.16        2953.50           1275         110.00       479.08
  116.18        2953.75           1279         109.00       474.72
  116.21        2954.00           1282         122.00       531.39
  116.24        2954.25           1285         119.00       518.32
  116.27        2954.50           1289         114.00       496.52
  116.29        2954.75           1292         122.00       531.39
  116.32        2955.00           1295         101.00       439.85
  116.35        2955.25           1299         107.00       466.00
  116.38        2955.50           1302         113.00       492.16
  116.40        2955.75           1305         106.00       461.65
  116.43        2956.00           1309         114.00       496.52
  116.46        2956.25           1312         118.00       513.96
  116.49        2956.50           1315         106.00       461.65
  116.52        2956.75           1319         110.00       479.08
  116.54        2957.00           1322         104.00       452.93
  116.57        2957.25           1325         106.00       461.65
  116.60        2957.50           1329         105.00       457.29
  116.63        2957.75           1332         112.00       487.80
  116.65        2958.00           1335         118.00       513.96
  116.68        2958.25           1339         113.00       492.16
  116.71        2958.50           1342         119.00       518.32
  116.74        2958.75           1345         111.00       483.44
  116.76        2959.00           1349         111.00       483.44
  116.79        2959.25           1352          97.00       422.41
  116.82        2959.50           1355         109.00       474.72
  116.85        2959.75           1359         106.00       461.65
  116.88        2960.00           1362         101.00       439.85
  116.90        2960.25           1365         116.00       505.24
  116.93        2960.50           1369         127.00       553.19
  116.96        2960.75           1372         112.00       487.80
  116.99        2961.00           1375         140.00       609.86
  117.01        2961.25           1379         150.00       653.46
  117.04        2961.50           1382         182.00       792.96
  117.07        2961.75           1385         724.00      3155.92
  117.10        2962.00           1389        3116.00     13588.36
  117.13        2962.25           1392        5573.00     24311.10
  117.16        2962.50           1395        7806.00     34062.26
  117.19        2962.75           1399       11478.00     50109.72
  117.21        2963.00           1402       14698.00     64194.57
  117.24        2963.25           1405       17984.00     78580.41
  117.27        2963.50           1409       22537.00     98533.64
  117.30        2963.75           1412       25412.00    111145.50
  117.33        2964.00           1415       28381.00    124179.70
  117.36        2964.25           1419       32203.00    140973.80
  117.39        2964.50           1422       35413.00    155091.80
  117.42        2964.75           1425       38275.00    167689.40
  117.45        2965.00           1429       42816.00    187696.90
  117.48        2965.25           1432       46191.00    202582.70
  117.50        2965.50           1435       48915.00    214607.00
  117.53        2965.75           1439       52865.00    232058.50
  117.56        2966.00           1442       56296.00    247231.90
  117.59        2966.25           1445       59264.00    260368.90
  117.61        2966.50           1449       62178.00    273277.00
  117.64        2966.75           1452       63389.00    278644.30
  117.67        2967.00           1455       63937.00    281073.70
  117.70        2967.25           1459       64136.00    281956.00
  117.73        2967.50           1462       63931.00    281047.10
  117.75        2967.75           1465       63741.00    280204.80
  117.78        2968.00           1469       62513.00    274761.60
  117.81        2968.25           1472       60827.00    267291.30
  117.84        2968.50           1475       58374.00    256428.50
  117.86        2968.75           1479       54204.00    237978.50
  117.89        2969.00           1482       51622.00    226564.80
  117.92        2969.25           1485       48843.00    214289.00
  117.95        2969.50           1489       45321.00    198744.20
  117.97        2969.75           1492       42611.00    186793.20
  118.00        2970.00           1495       40226.00    176282.50
  118.03        2970.25           1499       35836.00    156953.10
  118.06        2970.50           1502       32493.00    142248.70
  118.09        2970.75           1505       29113.00    127394.90
  118.11        2971.00           1509       25200.00    110215.20
  118.14        2971.25           1512       22493.00     98340.71
  118.17        2971.50           1515       19663.00     85935.74
  118.20        2971.75           1519       15508.00     67739.53
  118.22        2972.00           1522       12348.00     53914.08
  118.25        2972.25           1525       10108.00     44120.71
  118.28        2972.50           1529        6513.00     28415.23
  118.31        2972.75           1532        3860.00     16834.57
  118.34        2973.00           1536        1210.00      5275.03
  118.36        2973.25           1539         363.00      1582.03
  118.39        2973.50           1542         173.00       753.72
  118.42        2973.75           1546         145.00       631.66
  118.46        2974.00           1549         139.00       605.50
  118.49        2974.25           1552         121.00       527.04
  118.51        2974.50           1556         118.00       513.96
  118.54        2974.75           1559         111.00       483.44
  118.57        2975.00           1562         110.00       479.08
  118.60        2975.25           1566         111.00       483.44
  118.62        2975.50           1569         118.00       513.96
  118.65        2975.75           1572         105.00       457.29
  118.68        2976.00           1576         102.00       444.21
  118.71        2976.25           1579         102.00       444.21
  118.74        2976.50           1582          97.00       422.41
  118.76        2976.75           1586         105.00       457.29
  118.79        2977.00           1589         105.00       457.29
  118.82        2977.25           1592         101.00       439.85
  118.85        2977.50           1596          98.00       426.77
  118.87        2977.75           1599         106.00       461.65
  118.90        2978.00           1602         102.00       444.21
  118.93        2978.25           1606         106.00       461.65
  118.96        2978.50           1609         107.00       466.00
  118.98        2978.75           1612          96.00       418.05
  119.01        2979.00           1616         100.00       435.49
  119.04        2979.25           1619          93.00       404.97
  119.07        2979.50           1623          98.00       426.77
  119.10        2979.75           1626          94.00       409.33
  119.12        2980.00           1629          96.00       418.05
  119.15        2980.25           1633         108.00       470.36
  119.18        2980.50           1636          97.00       422.41
  119.21        2980.75           1639          84.00       365.74
  119.23        2981.00           1643          98.00       426.77
  119.26        2981.25           1646         102.00       444.21
  119.29        2981.50           1649          96.00       418.05
  119.32        2981.75           1653          95.00       413.69
  119.34        2982.00           1656          94.00       409.33
  119.37        2982.25           1659          88.00       383.18
  119.40        2982.50           1663         104.00       452.93
  119.43        2982.75           1666          99.00       431.13
  119.45        2983.00           1669          96.00       418.05
  119.48        2983.25           1673          95.00       413.69
  119.51        2983.50           1676          91.00       396.26
  119.54        2983.75           1679          92.00       400.62
  119.56        2984.00           1683          97.00       422.41
HS scan finished at 01:59:52
end
