************************************************************
  HS Scan of (1) Internal mercury lamp
************************************************************
Integration time is 0.2294 seconds per sample
dh210717Delft 51.997-4.386 2.804185pr1000
************************************************************
Dead Time -------------------------  3E-08 
Number of Cycles Used -------------  4 
Starting Wavelength (Angstroms) ---  2950 
Final Wavelength (Angstoms) -------  2984 
Wavelength Increment (Angstroms) --  .25 
Filter Wheel #1 Position ---------- (1) Ground quartz diffuser (ND=2.32)
Filter Wheel #2 Position ---------- (1) Neutral Density 0.494



************************************************************
HS scan start time = 00:25:16
Dark Count =  .1 


Time (GMT)  Wavelength (Ang)  Step Number  Raw Counts  Counts/Second

   25.71        2950.00           1229         129.00       561.91
   25.81        2950.25           1232         112.00       487.80
   25.84        2950.50           1236         119.00       518.32
   25.87        2950.75           1239         125.00       544.47
   25.89        2951.00           1242         105.00       457.29
   25.92        2951.25           1246         120.00       522.68
   25.95        2951.50           1249         120.00       522.68
   25.98        2951.75           1252         116.00       505.24
   26.00        2952.00           1255         117.00       509.60
   26.03        2952.25           1259         117.00       509.60
   26.06        2952.50           1262         116.00       505.24
   26.09        2952.75           1265         116.00       505.24
   26.12        2953.00           1269         115.00       500.88
   26.15        2953.25           1272         122.00       531.39
   26.18        2953.50           1275         112.00       487.80
   26.21        2953.75           1279         118.00       513.96
   26.24        2954.00           1282         108.00       470.36
   26.27        2954.25           1285         123.00       535.75
   26.29        2954.50           1289         121.00       527.04
   26.32        2954.75           1292         104.00       452.93
   26.35        2955.00           1295         123.00       535.75
   26.38        2955.25           1299         114.00       496.52
   26.40        2955.50           1302         117.00       509.60
   26.43        2955.75           1305         116.00       505.24
   26.46        2956.00           1309         117.00       509.60
   26.49        2956.25           1312         112.00       487.80
   26.52        2956.50           1315         109.00       474.72
   26.55        2956.75           1319         118.00       513.96
   26.58        2957.00           1322         117.00       509.60
   26.60        2957.25           1325         112.00       487.80
   26.63        2957.50           1329         117.00       509.60
   26.66        2957.75           1332         110.00       479.08
   26.69        2958.00           1335         110.00       479.08
   26.71        2958.25           1339         108.00       470.36
   26.74        2958.50           1342         121.00       527.04
   26.77        2958.75           1345         109.00       474.72
   26.80        2959.00           1349         119.00       518.32
   26.82        2959.25           1352         101.00       439.85
   26.85        2959.50           1355         115.00       500.88
   26.88        2959.75           1359         116.00       505.24
   26.91        2960.00           1362         113.00       492.16
   26.94        2960.25           1365         113.00       492.16
   26.96        2960.50           1369         124.00       540.11
   26.99        2960.75           1372         119.00       518.32
   27.02        2961.00           1375         137.00       596.78
   27.05        2961.25           1379         142.00       618.58
   27.07        2961.50           1382         183.00       797.32
   27.10        2961.75           1385         711.00      3099.24
   27.13        2962.00           1389        2365.00     10312.26
   27.16        2962.25           1392        4210.00     18361.90
   27.18        2962.50           1395        6692.00     29196.88
   27.21        2962.75           1399       10503.00     45847.24
   27.24        2963.00           1402       13668.00     59687.87
   27.27        2963.25           1405       16436.00     71801.85
   27.30        2963.50           1409       20055.00     87653.48
   27.33        2963.75           1412       23193.00    101410.50
   27.36        2964.00           1415       26390.00    115437.90
   27.39        2964.25           1419       29904.00    130869.80
   27.41        2964.50           1422       33085.00    144851.70
   27.44        2964.75           1425       36191.00    158515.30
   27.47        2965.00           1429       40077.00    175626.00
   27.50        2965.25           1432       42889.00    188018.80
   27.53        2965.50           1435       46088.00    202128.30
   27.55        2965.75           1439       49451.00    216974.00
   27.58        2966.00           1442       52175.00    229008.70
   27.61        2966.25           1445       54501.00    239291.90
   27.64        2966.50           1449       57573.00    252882.90
   27.66        2966.75           1452       59763.00    262578.60
   27.69        2967.00           1455       60323.00    265058.80
   27.72        2967.25           1459       60734.00    266879.30
   27.75        2967.50           1462       60397.00    265386.50
   27.78        2967.75           1465       60568.00    266144.00
   27.80        2968.00           1469       59401.00    260975.50
   27.83        2968.25           1472       58142.00    255401.50
   27.86        2968.50           1475       55409.00    243307.90
   27.89        2968.75           1479       51810.00    227395.60
   27.91        2969.00           1482       50305.00    220746.10
   27.94        2969.25           1485       47606.00    208827.70
   27.97        2969.50           1489       43792.00    192000.30
   28.00        2969.75           1492       41064.00    179974.80
   28.03        2970.00           1495       37923.00    166139.40
   28.05        2970.25           1499       33794.00    147969.70
   28.08        2970.50           1502       30902.00    135255.20
   28.11        2970.75           1505       28130.00    123077.40
   28.14        2971.00           1509       24618.00    107661.50
   28.16        2971.25           1512       21580.00     94337.66
   28.19        2971.50           1515       18878.00     82496.43
   28.22        2971.75           1519       15714.00     68641.21
   28.25        2972.00           1522       13109.00     57242.51
   28.27        2972.25           1525       10322.00     45056.07
   28.30        2972.50           1529        6504.00     28375.93
   28.33        2972.75           1532        3619.00     15782.97
   28.36        2973.00           1536        1070.00      4664.56
   28.39        2973.25           1539         425.00      1852.33
   28.41        2973.50           1542         204.00       888.86
   28.44        2973.75           1546         150.00       653.46
   28.47        2974.00           1549         138.00       601.14
   28.50        2974.25           1552         118.00       513.96
   28.52        2974.50           1556         124.00       540.11
   28.55        2974.75           1559         119.00       518.32
   28.58        2975.00           1562         117.00       509.60
   28.61        2975.25           1566         113.00       492.16
   28.63        2975.50           1569         109.00       474.72
   28.66        2975.75           1572         108.00       470.36
   28.69        2976.00           1576         108.00       470.36
   28.72        2976.25           1579         103.00       448.57
   28.74        2976.50           1582         106.00       461.65
   28.77        2976.75           1586         101.00       439.85
   28.80        2977.00           1589         106.00       461.65
   28.83        2977.25           1592         104.00       452.93
   28.85        2977.50           1596         109.00       474.72
   28.88        2977.75           1599          95.00       413.69
   28.91        2978.00           1602         102.00       444.21
   28.94        2978.25           1606         107.00       466.00
   28.97        2978.50           1609          99.00       431.13
   28.99        2978.75           1612         116.00       505.24
   29.02        2979.00           1616          91.00       396.26
   29.05        2979.25           1619          97.00       422.41
   29.08        2979.50           1623         106.00       461.65
   29.10        2979.75           1626         101.00       439.85
   29.13        2980.00           1629          96.00       418.05
   29.16        2980.25           1633         108.00       470.36
   29.19        2980.50           1636         103.00       448.57
   29.21        2980.75           1639         102.00       444.21
   29.25        2981.00           1643          99.00       431.13
   29.28        2981.25           1646         101.00       439.85
   29.30        2981.50           1649         107.00       466.00
   29.33        2981.75           1653         108.00       470.36
   29.36        2982.00           1656         106.00       461.65
   29.39        2982.25           1659         101.00       439.85
   29.41        2982.50           1663          96.00       418.05
   29.44        2982.75           1666         101.00       439.85
   29.47        2983.00           1669          96.00       418.05
   29.50        2983.25           1673         102.00       444.21
   29.53        2983.50           1676         105.00       457.29
   29.55        2983.75           1679          97.00       422.41
   29.58        2984.00           1683         101.00       439.85
HS scan finished at 00:29:53
end
************************************************************
  HS Scan of (1) Internal mercury lamp
************************************************************
Integration time is 0.2294 seconds per sample
dh210717Delft 51.997-4.386 2.857833pr1000
************************************************************
Dead Time -------------------------  3E-08 
Number of Cycles Used -------------  4 
Starting Wavelength (Angstroms) ---  2950 
Final Wavelength (Angstoms) -------  2984 
Wavelength Increment (Angstroms) --  .25 
Filter Wheel #1 Position ---------- (1) Ground quartz diffuser (ND=2.32)
Filter Wheel #2 Position ---------- (1) Neutral Density 0.494



************************************************************
HS scan start time = 01:21:16
Dark Count =  0 


Time (GMT)  Wavelength (Ang)  Step Number  Raw Counts  Counts/Second

   81.72        2950.00           1229         127.00       553.63
   81.82        2950.25           1232         118.00       514.39
   81.85        2950.50           1236         124.00       540.55
   81.88        2950.75           1239         128.00       557.99
   81.91        2951.00           1242         123.00       536.19
   81.93        2951.25           1246         122.00       531.83
   81.96        2951.50           1249         112.00       488.24
   81.99        2951.75           1252         127.00       553.63
   82.02        2952.00           1255         115.00       501.32
   82.04        2952.25           1259         115.00       501.32
   82.07        2952.50           1262         122.00       531.83
   82.10        2952.75           1265         120.00       523.11
   82.13        2953.00           1269         114.00       496.96
   82.16        2953.25           1272         118.00       514.39
   82.18        2953.50           1275         113.00       492.60
   82.21        2953.75           1279         121.00       527.47
   82.24        2954.00           1282         129.00       562.35
   82.27        2954.25           1285         114.00       496.96
   82.29        2954.50           1289         114.00       496.96
   82.32        2954.75           1292         122.00       531.83
   82.35        2955.00           1295         130.00       566.71
   82.38        2955.25           1299         112.00       488.24
   82.40        2955.50           1302         113.00       492.60
   82.43        2955.75           1305         116.00       505.67
   82.46        2956.00           1309         120.00       523.11
   82.49        2956.25           1312         117.00       510.03
   82.51        2956.50           1315         120.00       523.11
   82.54        2956.75           1319         109.00       475.16
   82.57        2957.00           1322         112.00       488.24
   82.60        2957.25           1325         116.00       505.67
   82.62        2957.50           1329         112.00       488.24
   82.65        2957.75           1332         111.00       483.88
   82.68        2958.00           1335         119.00       518.75
   82.71        2958.25           1339         103.00       449.00
   82.73        2958.50           1342         122.00       531.83
   82.76        2958.75           1345         117.00       510.03
   82.79        2959.00           1349         113.00       492.60
   82.82        2959.25           1352         110.00       479.52
   82.85        2959.50           1355         113.00       492.60
   82.87        2959.75           1359         123.00       536.19
   82.90        2960.00           1362         120.00       523.11
   82.93        2960.25           1365         121.00       527.47
   82.96        2960.50           1369         125.00       544.91
   82.98        2960.75           1372         122.00       531.83
   83.01        2961.00           1375         136.00       592.86
   83.04        2961.25           1379         137.00       597.22
   83.07        2961.50           1382         275.00      1198.82
   83.09        2961.75           1385         970.00      4228.96
   83.12        2962.00           1389        3341.00     14570.45
   83.15        2962.25           1392        5442.00     23739.66
   83.18        2962.50           1395        7515.00     32791.61
   83.20        2962.75           1399       11182.00     48815.99
   83.23        2963.00           1402       14501.00     63332.95
   83.26        2963.25           1405       17249.00     75362.00
   83.29        2963.50           1409       21514.00     94048.78
   83.32        2963.75           1412       24520.00    107231.90
   83.34        2964.00           1415       27351.00    119657.20
   83.37        2964.25           1419       31203.00    136578.50
   83.40        2964.50           1422       34158.00    149571.10
   83.43        2964.75           1425       37200.00    162956.90
   83.45        2965.00           1429       40357.00    176860.10
   83.48        2965.25           1432       42923.00    188169.10
   83.51        2965.50           1435       45475.00    199424.10
   83.54        2965.75           1439       49079.00    215331.60
   83.57        2966.00           1442       51723.00    227011.60
   83.59        2966.25           1445       54639.00    239902.60
   83.62        2966.50           1449       57758.00    253702.20
   83.65        2966.75           1452       59002.00    259209.30
   83.68        2967.00           1455       59490.00    261370.10
   83.70        2967.25           1459       59748.00    262512.60
   83.73        2967.50           1462       59171.00    259957.60
   83.76        2967.75           1465       59157.00    259895.60
   83.79        2968.00           1469       58490.00    256942.50
   83.82        2968.25           1472       56917.00    249980.20
   83.85        2968.50           1475       54733.00    240318.40
   83.87        2968.75           1479       51179.00    224607.80
   83.90        2969.00           1482       48095.00    210986.90
   83.93        2969.25           1485       45180.00    198122.70
   83.96        2969.50           1489       41502.00    181905.40
   83.99        2969.75           1492       38776.00    169896.00
   84.01        2970.00           1495       36345.00    159193.50
   84.04        2970.25           1499       32197.00    140947.80
   84.07        2970.50           1502       29281.00    128133.30
   84.10        2970.75           1505       27046.00    118318.10
   84.12        2971.00           1509       23672.00    103511.90
   84.15        2971.25           1512       20680.00     90393.02
   84.18        2971.50           1515       17791.00     77735.57
   84.21        2971.75           1519       13838.00     60432.05
   84.24        2972.00           1522       10988.00     47967.85
   84.26        2972.25           1525        8389.00     36609.50
   84.29        2972.50           1529        5116.00     22316.59
   84.32        2972.75           1532        2659.00     11595.14
   84.34        2973.00           1536         762.00      3322.04
   84.37        2973.25           1539         287.00      1251.14
   84.40        2973.50           1542         167.00       728.00
   84.43        2973.75           1546         150.00       653.89
   84.46        2974.00           1549         138.00       601.58
   84.48        2974.25           1552         124.00       540.55
   84.51        2974.50           1556         124.00       540.55
   84.54        2974.75           1559         128.00       557.99
   84.57        2975.00           1562         115.00       501.32
   84.60        2975.25           1566         104.00       453.36
   84.62        2975.50           1569         103.00       449.00
   84.65        2975.75           1572         105.00       457.72
   84.68        2976.00           1576         109.00       475.16
   84.71        2976.25           1579         107.00       466.44
   84.73        2976.50           1582         102.00       444.64
   84.76        2976.75           1586          95.00       414.13
   84.79        2977.00           1589          95.00       414.13
   84.82        2977.25           1592         104.00       453.36
   84.84        2977.50           1596         109.00       475.16
   84.87        2977.75           1599          92.00       401.05
   84.90        2978.00           1602         106.00       462.08
   84.93        2978.25           1606         101.00       440.28
   84.95        2978.50           1609         101.00       440.28
   84.98        2978.75           1612          98.00       427.21
   85.01        2979.00           1616         103.00       449.00
   85.04        2979.25           1619         102.00       444.64
   85.06        2979.50           1623         100.00       435.93
   85.09        2979.75           1626          98.00       427.21
   85.12        2980.00           1629         101.00       440.28
   85.15        2980.25           1633         107.00       466.44
   85.17        2980.50           1636         101.00       440.28
   85.20        2980.75           1639         102.00       444.64
   85.23        2981.00           1643          92.00       401.05
   85.26        2981.25           1646          97.00       422.85
   85.28        2981.50           1649          92.00       401.05
   85.31        2981.75           1653         106.00       462.08
   85.35        2982.00           1656          97.00       422.85
   85.38        2982.25           1659          96.00       418.49
   85.41        2982.50           1663          96.00       418.49
   85.43        2982.75           1666          94.00       409.77
   85.46        2983.00           1669          94.00       409.77
   85.49        2983.25           1673          97.00       422.85
   85.52        2983.50           1676         104.00       453.36
   85.55        2983.75           1679          97.00       422.85
   85.57        2984.00           1683          98.00       427.21
HS scan finished at 01:25:53
end
