************************************************************
  HS Scan of (1) Internal mercury lamp
************************************************************
Integration time is 0.2294 seconds per sample
dh050818Arosa 46.78-9.675 3.179721pr1000
************************************************************
Dead Time -------------------------  2.7E-08 
Number of Cycles Used -------------  4 
Starting Wavelength (Angstroms) ---  2950 
Final Wavelength (Angstoms) -------  2984 
Wavelength Increment (Angstroms) --  .25 
Filter Wheel #1 Position ---------- (1) Ground quartz diffuser (ND=2.32)
Filter Wheel #2 Position ---------- (1) Neutral Density 0.494



************************************************************
HS scan start time = 21:12:05
Dark Count =  .3 


Time (GMT)  Wavelength (Ang)  Step Number  Raw Counts  Counts/Second

 1272.54        2950.00           1232         210.00       914.15
 1272.64        2950.25           1236         219.00       953.38
 1272.66        2950.50           1239         212.00       922.87
 1272.70        2950.75           1242         217.00       944.66
 1272.72        2951.00           1246         205.00       892.35
 1272.76        2951.25           1249         200.00       870.55
 1272.78        2951.50           1252         214.00       931.58
 1272.81        2951.75           1256         207.00       901.07
 1272.84        2952.00           1259         195.00       848.76
 1272.87        2952.25           1262         198.00       861.83
 1272.90        2952.50           1265         216.00       940.30
 1272.93        2952.75           1269         211.00       918.51
 1272.96        2953.00           1272         206.00       896.71
 1272.99        2953.25           1275         217.00       944.66
 1273.02        2953.50           1279         190.00       826.96
 1273.05        2953.75           1282         203.00       883.63
 1273.08        2954.00           1285         199.00       866.19
 1273.11        2954.25           1289         195.00       848.76
 1273.14        2954.50           1292         200.00       870.55
 1273.17        2954.75           1295         211.00       918.51
 1273.20        2955.00           1299         192.00       835.68
 1273.23        2955.25           1302         195.00       848.76
 1273.26        2955.50           1305         201.00       874.91
 1273.29        2955.75           1309         204.00       887.99
 1273.32        2956.00           1312         203.00       883.63
 1273.35        2956.25           1315         214.00       931.58
 1273.38        2956.50           1318         197.00       857.47
 1273.41        2956.75           1322         219.00       953.38
 1273.44        2957.00           1325         205.00       892.35
 1273.47        2957.25           1328         201.00       874.91
 1273.50        2957.50           1332         210.00       914.15
 1273.53        2957.75           1335         203.00       883.63
 1273.56        2958.00           1338         190.00       826.96
 1273.59        2958.25           1342         212.00       922.87
 1273.62        2958.50           1345         209.00       909.79
 1273.65        2958.75           1348         198.00       861.83
 1273.68        2959.00           1352         204.00       887.99
 1273.71        2959.25           1355         199.00       866.19
 1273.74        2959.50           1358         199.00       866.19
 1273.77        2959.75           1362         192.00       835.68
 1273.80        2960.00           1365         201.00       874.91
 1273.83        2960.25           1368         222.00       966.46
 1273.86        2960.50           1372         227.00       988.26
 1273.89        2960.75           1375         232.00      1010.05
 1273.92        2961.00           1378         234.00      1018.77
 1273.95        2961.25           1382         366.00      1594.23
 1273.98        2961.50           1385        1065.00      4641.82
 1274.01        2961.75           1388        2625.00     11445.12
 1274.04        2962.00           1391        5223.00     22780.79
 1274.07        2962.25           1395        9895.00     43183.28
 1274.10        2962.50           1398       12871.00     56191.12
 1274.13        2962.75           1401       17353.00     75798.81
 1274.16        2963.00           1405       22597.00     98766.52
 1274.19        2963.25           1408       26353.00    115234.60
 1274.22        2963.50           1411       30302.00    132564.80
 1274.25        2963.75           1415       35327.00    154640.40
 1274.28        2964.00           1418       39128.00    171356.40
 1274.31        2964.25           1421       42810.00    187563.40
 1274.34        2964.50           1425       46634.00    204410.60
 1274.37        2964.75           1428       49971.00    219124.80
 1274.40        2965.00           1431       54011.00    236954.50
 1274.43        2965.25           1435       58939.00    258726.60
 1274.46        2965.50           1438       62623.00    275019.40
 1274.49        2965.75           1441       65750.00    288860.10
 1274.52        2966.00           1445       70425.00    309572.00
 1274.55        2966.25           1448       74010.00    325470.50
 1274.58        2966.50           1451       76323.00    335735.40
 1274.61        2966.75           1455       77197.00    339615.60
 1274.64        2967.00           1458       77364.00    340357.10
 1274.67        2967.25           1461       77599.00    341400.60
 1274.70        2967.50           1465       77511.00    341009.90
 1274.73        2967.75           1468       77037.00    338905.30
 1274.76        2968.00           1471       75119.00    330391.50
 1274.79        2968.25           1475       71683.00    315149.30
 1274.82        2968.50           1478       67594.00    297026.90
 1274.85        2968.75           1481       63755.00    280028.60
 1274.88        2969.00           1485       59650.00    261869.90
 1274.91        2969.25           1488       55820.00    244943.70
 1274.94        2969.50           1491       51968.00    227936.00
 1274.97        2969.75           1495       47590.00    208624.80
 1275.00        2970.00           1498       44416.00    194637.00
 1275.03        2970.25           1501       40851.00    178938.70
 1275.06        2970.50           1505       36284.00    158847.60
 1275.09        2970.75           1508       32113.00    140517.70
 1275.12        2971.00           1511       28310.00    123820.90
 1275.15        2971.25           1515       23233.00    101554.00
 1275.18        2971.50           1518       19808.00     86547.69
 1275.21        2971.75           1521       16324.00     71295.35
 1275.24        2972.00           1525       11856.00     51753.61
 1275.27        2972.25           1528        8435.00     36805.08
 1275.29        2972.50           1531        4494.00     19599.30
 1275.32        2972.75           1535        1608.00      7009.61
 1275.35        2973.00           1538         697.00      3037.30
 1275.38        2973.25           1541         322.00      1402.41
 1275.41        2973.50           1544         255.00      1110.32
 1275.44        2973.75           1548         226.00       983.90
 1275.47        2974.00           1551         211.00       918.51
 1275.50        2974.25           1554         204.00       887.99
 1275.53        2974.50           1558         196.00       853.11
 1275.56        2974.75           1561         198.00       861.83
 1275.59        2975.00           1564         177.00       770.29
 1275.62        2975.25           1568         174.00       757.21
 1275.65        2975.50           1571         180.00       783.36
 1275.68        2975.75           1574         174.00       757.21
 1275.71        2976.00           1578         168.00       731.05
 1275.74        2976.25           1581         182.00       792.08
 1275.77        2976.50           1584         190.00       826.96
 1275.80        2976.75           1588         188.00       818.24
 1275.83        2977.00           1591         176.00       765.93
 1275.86        2977.25           1595         175.00       761.57
 1275.89        2977.50           1598         180.00       783.36
 1275.92        2977.75           1601         176.00       765.93
 1275.95        2978.00           1605         175.00       761.57
 1275.98        2978.25           1608         180.00       783.36
 1276.01        2978.50           1611         180.00       783.36
 1276.04        2978.75           1615         173.00       752.85
 1276.07        2979.00           1618         166.00       722.33
 1276.10        2979.25           1621         173.00       752.85
 1276.13        2979.50           1625         173.00       752.85
 1276.16        2979.75           1628         161.00       700.54
 1276.19        2980.00           1631         170.00       739.77
 1276.22        2980.25           1635         172.00       748.49
 1276.25        2980.50           1638         169.00       735.41
 1276.28        2980.75           1641         171.00       744.13
 1276.31        2981.00           1645         166.00       722.33
 1276.34        2981.25           1648         163.00       709.26
 1276.37        2981.50           1651         165.00       717.97
 1276.40        2981.75           1655         174.00       757.21
 1276.43        2982.00           1658         175.00       761.57
 1276.46        2982.25           1661         172.00       748.49
 1276.49        2982.50           1665         178.00       774.65
 1276.52        2982.75           1668         161.00       700.54
 1276.54        2983.00           1671         165.00       717.97
 1276.58        2983.25           1675         166.00       722.33
 1276.60        2983.50           1678         163.00       709.26
 1276.63        2983.75           1681         161.00       700.54
 1276.66        2984.00           1685         169.00       735.41
HS scan finished at 21:16:58
end
