************************************************************
  HS Scan of (1) Internal mercury lamp
************************************************************
Integration time is 0.2294 seconds per sample
dh020818Arosa 46.78-9.675 3.018777pr1000
************************************************************
Dead Time -------------------------  2.7E-08 
Number of Cycles Used -------------  4 
Starting Wavelength (Angstroms) ---  2950 
Final Wavelength (Angstoms) -------  2984 
Wavelength Increment (Angstroms) --  .25 
Filter Wheel #1 Position ---------- (1) Ground quartz diffuser (ND=2.32)
Filter Wheel #2 Position ---------- (1) Neutral Density 0.494



************************************************************
HS scan start time = 21:12:16
Dark Count =  .2 


Time (GMT)  Wavelength (Ang)  Step Number  Raw Counts  Counts/Second

 1272.72        2950.00           1229         115.00       500.44
 1272.82        2950.25           1232         108.00       469.93
 1272.85        2950.50           1236         113.00       491.72
 1272.88        2950.75           1239         117.00       509.16
 1272.91        2951.00           1242         108.00       469.93
 1272.94        2951.25           1246         108.00       469.93
 1272.97        2951.50           1249         106.00       461.21
 1273.00        2951.75           1252         109.00       474.29
 1273.03        2952.00           1256         108.00       469.93
 1273.06        2952.25           1259         110.00       478.65
 1273.09        2952.50           1262         107.00       465.57
 1273.12        2952.75           1266         111.00       483.01
 1273.15        2953.00           1269         109.00       474.29
 1273.18        2953.25           1272         107.00       465.57
 1273.21        2953.50           1276         107.00       465.57
 1273.24        2953.75           1279         102.00       443.77
 1273.27        2954.00           1282         109.00       474.29
 1273.30        2954.25           1286         109.00       474.29
 1273.33        2954.50           1289         104.00       452.49
 1273.36        2954.75           1292         107.00       465.57
 1273.39        2955.00           1296         101.00       439.41
 1273.42        2955.25           1299         109.00       474.29
 1273.45        2955.50           1302         111.00       483.01
 1273.48        2955.75           1306         108.00       469.93
 1273.51        2956.00           1309         114.00       496.08
 1273.54        2956.25           1312         114.00       496.08
 1273.57        2956.50           1316         111.00       483.01
 1273.60        2956.75           1319         105.00       456.85
 1273.63        2957.00           1322         110.00       478.65
 1273.66        2957.25           1326         101.00       439.41
 1273.69        2957.50           1329         109.00       474.29
 1273.72        2957.75           1332         101.00       439.41
 1273.75        2958.00           1336         102.00       443.77
 1273.77        2958.25           1339         105.00       456.85
 1273.80        2958.50           1342          98.00       426.33
 1273.83        2958.75           1345         101.00       439.41
 1273.86        2959.00           1349         106.00       461.21
 1273.89        2959.25           1352         101.00       439.41
 1273.92        2959.50           1355         101.00       439.41
 1273.95        2959.75           1359         104.00       452.49
 1273.98        2960.00           1362         107.00       465.57
 1274.01        2960.25           1365         111.00       483.01
 1274.04        2960.50           1369         119.00       517.88
 1274.07        2960.75           1372         109.00       474.29
 1274.10        2961.00           1375         121.00       526.60
 1274.13        2961.25           1379         132.00       574.55
 1274.16        2961.50           1382         203.00       884.07
 1274.19        2961.75           1385         657.00      2863.34
 1274.22        2962.00           1389        2498.00     10891.61
 1274.25        2962.25           1392        4742.00     20681.99
 1274.28        2962.50           1395        7361.00     32115.02
 1274.31        2962.75           1399       10622.00     46360.53
 1274.34        2963.00           1402       13038.00     56921.77
 1274.37        2963.25           1405       15465.00     67537.18
 1274.40        2963.50           1409       18997.00     82996.60
 1274.43        2963.75           1412       21908.00     95747.65
 1274.46        2964.00           1415       24611.00    107595.50
 1274.49        2964.25           1419       28041.00    122640.80
 1274.52        2964.50           1422       30273.00    132437.90
 1274.55        2964.75           1425       33188.00    145240.60
 1274.58        2965.00           1429       36897.00    161543.50
 1274.61        2965.25           1432       39439.00    172725.20
 1274.64        2965.50           1435       42073.00    184318.70
 1274.67        2965.75           1439       44775.00    196219.00
 1274.70        2966.00           1442       47327.00    207465.80
 1274.73        2966.25           1445       50567.00    221754.50
 1274.76        2966.50           1449       53253.00    233608.40
 1274.79        2966.75           1452       54908.00    240916.00
 1274.82        2967.00           1455       55353.00    242881.40
 1274.85        2967.25           1459       55388.00    243036.00
 1274.88        2967.50           1462       55221.00    242298.40
 1274.90        2967.75           1465       55420.00    243177.30
 1274.93        2968.00           1469       53739.00    235754.00
 1274.96        2968.25           1472       52185.00    228894.10
 1274.99        2968.50           1475       50543.00    221648.60
 1275.02        2968.75           1479       47449.00    208003.60
 1275.06        2969.00           1482       45258.00    198347.10
 1275.09        2969.25           1485       42732.00    187220.40
 1275.11        2969.50           1489       39060.00    171057.60
 1275.14        2969.75           1492       36585.00    160171.60
 1275.17        2970.00           1495       34068.00    149107.40
 1275.20        2970.25           1499       30548.00    133645.30
 1275.23        2970.50           1502       28067.00    122754.90
 1275.26        2970.75           1505       25204.00    110195.70
 1275.29        2971.00           1509       21758.00     95090.39
 1275.32        2971.25           1512       19310.00     84367.21
 1275.35        2971.50           1515       17119.00     74775.06
 1275.38        2971.75           1519       14361.00     62707.65
 1275.41        2972.00           1522       11675.00     50962.85
 1275.44        2972.25           1525        8731.00     38098.45
 1275.47        2972.50           1529        5426.00     23667.26
 1275.50        2972.75           1532        2968.00     12941.75
 1275.53        2973.00           1535        1346.00      5867.54
 1275.56        2973.25           1539         359.00      1564.15
 1275.59        2973.50           1542         179.00       779.44
 1275.62        2973.75           1546         139.00       605.07
 1275.65        2974.00           1549         123.00       535.32
 1275.68        2974.25           1552         123.00       535.32
 1275.71        2974.50           1556         119.00       517.88
 1275.74        2974.75           1559         113.00       491.72
 1275.77        2975.00           1562         101.00       439.41
 1275.80        2975.25           1566          99.00       430.69
 1275.83        2975.50           1569         100.00       435.05
 1275.86        2975.75           1572          88.00       382.74
 1275.89        2976.00           1576         103.00       448.13
 1275.92        2976.25           1579          95.00       413.26
 1275.95        2976.50           1582         101.00       439.41
 1275.97        2976.75           1586          94.00       408.90
 1276.00        2977.00           1589          88.00       382.74
 1276.03        2977.25           1592          92.00       400.18
 1276.06        2977.50           1596          96.00       417.62
 1276.09        2977.75           1599          95.00       413.26
 1276.12        2978.00           1602         104.00       452.49
 1276.15        2978.25           1606         103.00       448.13
 1276.18        2978.50           1609          89.00       387.10
 1276.21        2978.75           1612         102.00       443.77
 1276.24        2979.00           1616          89.00       387.10
 1276.27        2979.25           1619          89.00       387.10
 1276.30        2979.50           1622         101.00       439.41
 1276.33        2979.75           1626          93.00       404.54
 1276.36        2980.00           1629          92.00       400.18
 1276.39        2980.25           1632          93.00       404.54
 1276.42        2980.50           1636          97.00       421.98
 1276.45        2980.75           1639          91.00       395.82
 1276.48        2981.00           1642          92.00       400.18
 1276.51        2981.25           1646          94.00       408.90
 1276.54        2981.50           1649          89.00       387.10
 1276.57        2981.75           1653         100.00       435.05
 1276.60        2982.00           1656          93.00       404.54
 1276.63        2982.25           1659         101.00       439.41
 1276.66        2982.50           1663          99.00       430.69
 1276.69        2982.75           1666          81.00       352.23
 1276.72        2983.00           1669          97.00       421.98
 1276.75        2983.25           1673          85.00       369.66
 1276.78        2983.50           1676          90.00       391.46
 1276.81        2983.75           1679          89.00       387.10
 1276.84        2984.00           1683          95.00       413.26
HS scan finished at 21:17:09
end
