************************************************************
  HS Scan of (1) Internal mercury lamp
************************************************************
Integration time is 0.2294 seconds per sample
dh030818Arosa 46.78-9.675 2.804185pr1000
************************************************************
Dead Time -------------------------  2.7E-08 
Number of Cycles Used -------------  4 
Starting Wavelength (Angstroms) ---  2950 
Final Wavelength (Angstoms) -------  2984 
Wavelength Increment (Angstroms) --  .25 
Filter Wheel #1 Position ---------- (1) Ground quartz diffuser (ND=2.32)
Filter Wheel #2 Position ---------- (1) Neutral Density 0.494



************************************************************
HS scan start time = 04:05:48
Dark Count =  .1 


Time (GMT)  Wavelength (Ang)  Step Number  Raw Counts  Counts/Second

  246.25        2950.00           1229         127.00       553.19
  246.35        2950.25           1232         109.00       474.72
  246.38        2950.50           1236         116.00       505.24
  246.41        2950.75           1239         109.00       474.72
  246.44        2951.00           1242         117.00       509.60
  246.47        2951.25           1246         107.00       466.00
  246.50        2951.50           1249         107.00       466.00
  246.53        2951.75           1252         124.00       540.11
  246.56        2952.00           1256         118.00       513.96
  246.59        2952.25           1259         122.00       531.39
  246.62        2952.50           1262         111.00       483.44
  246.65        2952.75           1266         107.00       466.00
  246.68        2953.00           1269         110.00       479.08
  246.71        2953.25           1272         116.00       505.24
  246.74        2953.50           1276         118.00       513.96
  246.77        2953.75           1279         124.00       540.11
  246.80        2954.00           1282         108.00       470.36
  246.83        2954.25           1286         111.00       483.44
  246.86        2954.50           1289         112.00       487.80
  246.89        2954.75           1292         115.00       500.88
  246.92        2955.00           1296         114.00       496.52
  246.95        2955.25           1299         119.00       518.32
  246.98        2955.50           1302         108.00       470.36
  247.01        2955.75           1306         106.00       461.64
  247.04        2956.00           1309         111.00       483.44
  247.07        2956.25           1312         115.00       500.88
  247.10        2956.50           1316         108.00       470.36
  247.13        2956.75           1319         109.00       474.72
  247.16        2957.00           1322         120.00       522.68
  247.19        2957.25           1326         102.00       444.21
  247.22        2957.50           1329         111.00       483.44
  247.25        2957.75           1332         113.00       492.16
  247.28        2958.00           1336         110.00       479.08
  247.31        2958.25           1339         103.00       448.57
  247.35        2958.50           1342         109.00       474.72
  247.37        2958.75           1345         116.00       505.24
  247.41        2959.00           1349         114.00       496.52
  247.43        2959.25           1352         109.00       474.72
  247.47        2959.50           1355         102.00       444.21
  247.50        2959.75           1359         104.00       452.93
  247.53        2960.00           1362         116.00       505.24
  247.56        2960.25           1365         117.00       509.60
  247.59        2960.50           1369         117.00       509.60
  247.62        2960.75           1372         115.00       500.88
  247.65        2961.00           1375         128.00       557.55
  247.68        2961.25           1379         143.00       622.94
  247.71        2961.50           1382         245.00      1067.60
  247.74        2961.75           1385         824.00      3591.89
  247.77        2962.00           1389        2620.00     11424.19
  247.80        2962.25           1392        4569.00     19927.46
  247.83        2962.50           1395        6782.00     29587.27
  247.86        2962.75           1399       10196.00     44499.39
  247.89        2963.00           1402       12224.00     53363.24
  247.92        2963.25           1405       14913.00     65122.69
  247.95        2963.50           1409       18638.00     81425.11
  247.98        2963.75           1412       20921.00     91423.74
  248.01        2964.00           1415       23838.00    104206.90
  248.04        2964.25           1419       27294.00    119363.60
  248.07        2964.50           1422       29887.00    130743.60
  248.10        2964.75           1425       32497.00    142205.40
  248.13        2965.00           1429       35734.00    156430.40
  248.16        2965.25           1432       37959.00    166214.60
  248.19        2965.50           1435       40459.00    177214.30
  248.22        2965.75           1439       43401.00    190167.00
  248.25        2966.00           1442       45457.00    199224.40
  248.28        2966.25           1445       47956.00    210239.30
  248.31        2966.50           1449       50875.00    223113.80
  248.34        2966.75           1452       51684.00    226683.50
  248.37        2967.00           1455       52289.00    229353.60
  248.40        2967.25           1459       52465.00    230130.40
  248.43        2967.50           1462       52350.00    229622.80
  248.46        2967.75           1465       52168.00    228819.50
  248.50        2968.00           1469       51077.00    224005.00
  248.52        2968.25           1472       49427.00    216726.20
  248.56        2968.50           1475       48102.00    210883.00
  248.58        2968.75           1479       45121.00    197743.90
  248.62        2969.00           1482       42874.00    187846.10
  248.65        2969.25           1485       40381.00    176871.00
  248.68        2969.50           1489       37093.00    162405.90
  248.71        2969.75           1492       34074.00    149134.20
  248.74        2970.00           1495       31483.00    137751.60
  248.77        2970.25           1499       28486.00    124594.10
  248.80        2970.50           1502       26002.00    113695.90
  248.83        2970.75           1505       23282.00    101769.70
  248.86        2971.00           1509       19849.00     86728.13
  248.89        2971.25           1512       17989.00     78583.75
  248.92        2971.50           1515       15995.00     69856.57
  248.95        2971.75           1519       12735.00     55597.35
  248.98        2972.00           1522       10300.00     44953.84
  249.01        2972.25           1525        7727.00     33713.76
  249.04        2972.50           1529        4353.00     18984.88
  249.07        2972.75           1532        2363.00     10303.22
  249.10        2973.00           1535        1068.00      4655.77
  249.13        2973.25           1539         312.00      1359.68
  249.16        2973.50           1542         185.00       806.03
  249.19        2973.75           1546         147.00       640.38
  249.22        2974.00           1549         136.00       592.42
  249.25        2974.25           1552         125.00       544.47
  249.28        2974.50           1556         118.00       513.96
  249.31        2974.75           1559         118.00       513.96
  249.35        2975.00           1562         110.00       479.08
  249.38        2975.25           1566         108.00       470.36
  249.41        2975.50           1569         108.00       470.36
  249.44        2975.75           1572         104.00       452.93
  249.47        2976.00           1576          94.00       409.33
  249.50        2976.25           1579         102.00       444.21
  249.53        2976.50           1582         102.00       444.21
  249.56        2976.75           1586         106.00       461.64
  249.59        2977.00           1589          91.00       396.26
  249.62        2977.25           1592         106.00       461.64
  249.65        2977.50           1596         107.00       466.00
  249.68        2977.75           1599          99.00       431.13
  249.71        2978.00           1602          96.00       418.05
  249.74        2978.25           1606          99.00       431.13
  249.77        2978.50           1609         102.00       444.21
  249.80        2978.75           1612          99.00       431.13
  249.83        2979.00           1616          90.00       391.90
  249.86        2979.25           1619         101.00       439.85
  249.89        2979.50           1622         108.00       470.36
  249.92        2979.75           1626         102.00       444.21
  249.95        2980.00           1629          99.00       431.13
  249.98        2980.25           1632          90.00       391.90
  250.01        2980.50           1636         100.00       435.49
  250.04        2980.75           1639         103.00       448.57
  250.07        2981.00           1642          92.00       400.61
  250.10        2981.25           1646          97.00       422.41
  250.14        2981.50           1649         102.00       444.21
  250.17        2981.75           1653          92.00       400.61
  250.20        2982.00           1656          91.00       396.26
  250.23        2982.25           1659          92.00       400.61
  250.26        2982.50           1663          99.00       431.13
  250.29        2982.75           1666          95.00       413.69
  250.32        2983.00           1669          89.00       387.54
  250.35        2983.25           1673          94.00       409.33
  250.38        2983.50           1676          96.00       418.05
  250.41        2983.75           1679          97.00       422.41
  250.44        2984.00           1683          91.00       396.26
HS scan finished at 04:10:45
end
************************************************************
  HS Scan of (1) Internal mercury lamp
************************************************************
Integration time is 0.2294 seconds per sample
dh030818Arosa 46.78-9.675 3.126073pr1000
************************************************************
Dead Time -------------------------  2.7E-08 
Number of Cycles Used -------------  4 
Starting Wavelength (Angstroms) ---  2950 
Final Wavelength (Angstoms) -------  2984 
Wavelength Increment (Angstroms) --  .25 
Filter Wheel #1 Position ---------- (1) Ground quartz diffuser (ND=2.32)
Filter Wheel #2 Position ---------- (1) Neutral Density 0.494



************************************************************
HS scan start time = 21:12:15
Dark Count =  .2 


Time (GMT)  Wavelength (Ang)  Step Number  Raw Counts  Counts/Second

 1272.71        2950.00           1232         108.00       469.93
 1272.81        2950.25           1236         110.00       478.65
 1272.84        2950.50           1239         107.00       465.57
 1272.87        2950.75           1242         104.00       452.49
 1272.90        2951.00           1246         119.00       517.88
 1272.93        2951.25           1249         104.00       452.49
 1272.96        2951.50           1252         100.00       435.05
 1272.99        2951.75           1256         107.00       465.57
 1273.02        2952.00           1259          93.00       404.54
 1273.05        2952.25           1262         103.00       448.13
 1273.08        2952.50           1265          99.00       430.69
 1273.11        2952.75           1269         111.00       483.01
 1273.14        2953.00           1272         106.00       461.21
 1273.17        2953.25           1275         108.00       469.93
 1273.20        2953.50           1279          93.00       404.54
 1273.23        2953.75           1282         114.00       496.08
 1273.26        2954.00           1285         104.00       452.49
 1273.29        2954.25           1289         102.00       443.77
 1273.32        2954.50           1292          98.00       426.33
 1273.35        2954.75           1295         105.00       456.85
 1273.38        2955.00           1299         105.00       456.85
 1273.41        2955.25           1302          99.00       430.69
 1273.44        2955.50           1305         105.00       456.85
 1273.47        2955.75           1309         104.00       452.49
 1273.50        2956.00           1312         108.00       469.93
 1273.53        2956.25           1315         101.00       439.41
 1273.56        2956.50           1318         101.00       439.41
 1273.59        2956.75           1322         101.00       439.41
 1273.62        2957.00           1325          98.00       426.33
 1273.65        2957.25           1328          91.00       395.82
 1273.68        2957.50           1332         109.00       474.29
 1273.71        2957.75           1335         103.00       448.13
 1273.74        2958.00           1338         106.00       461.21
 1273.77        2958.25           1342         107.00       465.57
 1273.80        2958.50           1345         100.00       435.05
 1273.83        2958.75           1348         101.00       439.41
 1273.86        2959.00           1352          97.00       421.98
 1273.89        2959.25           1355         100.00       435.05
 1273.92        2959.50           1358         103.00       448.13
 1273.95        2959.75           1362         101.00       439.41
 1273.98        2960.00           1365         106.00       461.21
 1274.02        2960.25           1368          99.00       430.69
 1274.05        2960.50           1372          99.00       430.69
 1274.08        2960.75           1375         110.00       478.65
 1274.11        2961.00           1378         128.00       557.11
 1274.14        2961.25           1382         202.00       879.71
 1274.17        2961.50           1385         857.00      3735.34
 1274.20        2961.75           1388        2475.00     10791.29
 1274.23        2962.00           1391        4565.00     19909.57
 1274.26        2962.25           1395        7914.00     34530.00
 1274.29        2962.50           1398       10513.00     45884.19
 1274.32        2962.75           1401       13539.00     59112.58
 1274.35        2963.00           1405       17581.00     76797.28
 1274.38        2963.25           1408       19773.00     86394.85
 1274.41        2963.50           1411       22322.00     97561.81
 1274.44        2963.75           1415       25836.00    112967.40
 1274.47        2964.00           1418       28546.00    124857.00
 1274.50        2964.25           1421       31310.00    136991.40
 1274.53        2964.50           1425       34902.00    152772.70
 1274.56        2964.75           1428       37392.00    163720.40
 1274.59        2965.00           1431       39987.00    175136.60
 1274.62        2965.25           1435       43536.00    190761.20
 1274.65        2965.50           1438       46729.00    204829.80
 1274.68        2965.75           1441       49210.00    215768.70
 1274.71        2966.00           1445       51881.00    227552.50
 1274.74        2966.25           1448       54298.00    238222.20
 1274.77        2966.50           1451       56143.00    246371.00
 1274.80        2966.75           1455       57012.00    250210.40
 1274.83        2967.00           1458       56877.00    249613.90
 1274.86        2967.25           1461       57150.00    250820.20
 1274.89        2967.50           1465       56981.00    250073.40
 1274.92        2967.75           1468       56161.00    246450.50
 1274.95        2968.00           1471       54460.00    238937.60
 1274.98        2968.25           1475       51592.00    226277.10
 1275.01        2968.50           1478       49080.00    215195.30
 1275.04        2968.75           1481       46559.00    204080.50
 1275.07        2969.00           1485       43604.00    191060.70
 1275.10        2969.25           1488       40818.00    178793.90
 1275.13        2969.50           1491       38486.00    168532.40
 1275.16        2969.75           1495       34761.00    152153.00
 1275.19        2970.00           1498       31812.00    139196.10
 1275.23        2970.25           1501       29091.00    127249.00
 1275.26        2970.50           1505       25748.00    112581.50
 1275.29        2970.75           1508       23003.00    100546.40
 1275.32        2971.00           1511       20477.00     89478.34
 1275.35        2971.25           1515       16763.00     73216.96
 1275.38        2971.50           1518       14235.00     62156.54
 1275.41        2971.75           1521       11902.00     51955.14
 1275.44        2972.00           1525        8695.00     37941.20
 1275.47        2972.25           1528        6670.00     29097.83
 1275.50        2972.50           1531        3766.00     16423.15
 1275.53        2972.75           1535        1141.00      4973.64
 1275.55        2973.00           1538         404.00      1760.33
 1275.58        2973.25           1541         181.00       788.16
 1275.61        2973.50           1544         149.00       648.66
 1275.64        2973.75           1548         129.00       561.47
 1275.68        2974.00           1551         118.00       513.52
 1275.70        2974.25           1554         103.00       448.13
 1275.73        2974.50           1558         119.00       517.88
 1275.77        2974.75           1561          96.00       417.62
 1275.80        2975.00           1564         105.00       456.85
 1275.83        2975.25           1568         104.00       452.49
 1275.86        2975.50           1571          87.00       378.38
 1275.89        2975.75           1574          80.00       347.87
 1275.92        2976.00           1578          94.00       408.90
 1275.95        2976.25           1581          96.00       417.62
 1275.98        2976.50           1584          87.00       378.38
 1276.01        2976.75           1588          91.00       395.82
 1276.04        2977.00           1591          95.00       413.26
 1276.07        2977.25           1595          85.00       369.66
 1276.10        2977.50           1598          87.00       378.38
 1276.13        2977.75           1601          88.00       382.74
 1276.16        2978.00           1605          83.00       360.95
 1276.19        2978.25           1608          90.00       391.46
 1276.22        2978.50           1611          97.00       421.98
 1276.25        2978.75           1615         103.00       448.13
 1276.27        2979.00           1618          94.00       408.90
 1276.30        2979.25           1621          95.00       413.26
 1276.33        2979.50           1625          98.00       426.33
 1276.36        2979.75           1628          93.00       404.54
 1276.39        2980.00           1631          89.00       387.10
 1276.42        2980.25           1635          91.00       395.82
 1276.45        2980.50           1638          93.00       404.54
 1276.48        2980.75           1641          92.00       400.18
 1276.51        2981.00           1645          90.00       391.46
 1276.54        2981.25           1648          91.00       395.82
 1276.57        2981.50           1651          89.00       387.10
 1276.60        2981.75           1655          98.00       426.33
 1276.63        2982.00           1658          86.00       374.02
 1276.66        2982.25           1661          96.00       417.62
 1276.69        2982.50           1665          82.00       356.59
 1276.72        2982.75           1668          91.00       395.82
 1276.75        2983.00           1671          98.00       426.33
 1276.78        2983.25           1675          77.00       334.79
 1276.81        2983.50           1678          85.00       369.66
 1276.84        2983.75           1681          81.00       352.23
 1276.87        2984.00           1685          81.00       352.23
HS scan finished at 21:17:11
end
