************************************************************
  HS Scan of (1) Internal mercury lamp
************************************************************
Integration time is 0.2294 seconds per sample
dh070818Arosa 46.78-9.675 2.750537pr1000
************************************************************
Dead Time -------------------------  2.7E-08 
Number of Cycles Used -------------  4 
Starting Wavelength (Angstroms) ---  2950 
Final Wavelength (Angstoms) -------  2984 
Wavelength Increment (Angstroms) --  .25 
Filter Wheel #1 Position ---------- (1) Ground quartz diffuser (ND=2.32)
Filter Wheel #2 Position ---------- (1) Neutral Density 0.494



************************************************************
HS scan start time = 04:12:23
Dark Count =  .2 


Time (GMT)  Wavelength (Ang)  Step Number  Raw Counts  Counts/Second

  252.84        2950.00           1232         211.00       918.94
  252.94        2950.25           1236         205.00       892.79
  252.97        2950.50           1239         204.00       888.43
  253.00        2950.75           1242         218.00       949.46
  253.03        2951.00           1246         219.00       953.82
  253.06        2951.25           1249         223.00       971.25
  253.09        2951.50           1252         218.00       949.46
  253.12        2951.75           1256         215.00       936.38
  253.15        2952.00           1259         200.00       870.99
  253.18        2952.25           1262         216.00       940.74
  253.21        2952.50           1265         205.00       892.79
  253.24        2952.75           1269         201.00       875.35
  253.27        2953.00           1272         207.00       901.50
  253.30        2953.25           1275         208.00       905.86
  253.33        2953.50           1279         209.00       910.22
  253.36        2953.75           1282         215.00       936.38
  253.39        2954.00           1285         202.00       879.71
  253.42        2954.25           1289         219.00       953.82
  253.45        2954.50           1292         198.00       862.27
  253.48        2954.75           1295         212.00       923.30
  253.51        2955.00           1299         225.00       979.97
  253.54        2955.25           1302         199.00       866.63
  253.57        2955.50           1305         207.00       901.50
  253.60        2955.75           1309         212.00       923.30
  253.63        2956.00           1312         201.00       875.35
  253.66        2956.25           1315         206.00       897.14
  253.69        2956.50           1318         193.00       840.47
  253.72        2956.75           1322         208.00       905.86
  253.75        2957.00           1325         206.00       897.14
  253.78        2957.25           1328         215.00       936.38
  253.81        2957.50           1332         209.00       910.22
  253.84        2957.75           1335         199.00       866.63
  253.87        2958.00           1338         199.00       866.63
  253.90        2958.25           1342         203.00       884.07
  253.93        2958.50           1345         200.00       870.99
  253.96        2958.75           1348         201.00       875.35
  253.99        2959.00           1352         208.00       905.86
  254.02        2959.25           1355         199.00       866.63
  254.05        2959.50           1358         200.00       870.99
  254.08        2959.75           1362         205.00       892.79
  254.11        2960.00           1365         211.00       918.94
  254.14        2960.25           1368         201.00       875.35
  254.17        2960.50           1372         224.00       975.61
  254.20        2960.75           1375         223.00       971.25
  254.23        2961.00           1378         234.00      1019.21
  254.26        2961.25           1382         339.00      1476.96
  254.29        2961.50           1385        1123.00      4895.16
  254.32        2961.75           1388        2652.00     11563.33
  254.35        2962.00           1391        4914.00     21432.63
  254.38        2962.25           1395        9189.00     40099.19
  254.41        2962.50           1398       12313.00     53751.89
  254.44        2962.75           1401       15883.00     69366.06
  254.47        2963.00           1405       20473.00     89460.82
  254.51        2963.25           1408       24018.00    104995.60
  254.53        2963.50           1411       27447.00    120034.40
  254.57        2963.75           1415       31355.00    137189.00
  254.59        2964.00           1418       34047.00    149015.10
  254.62        2964.25           1421       37186.00    162814.40
  254.66        2964.50           1425       41573.00    182117.40
  254.69        2964.75           1428       44959.00    197029.70
  254.72        2965.00           1431       47793.00    209520.20
  254.75        2965.25           1435       51661.00    226581.60
  254.78        2965.50           1438       54839.00    240611.30
  254.81        2965.75           1441       57857.00    253944.50
  254.84        2966.00           1445       62345.00    273789.80
  254.87        2966.25           1448       65281.00    286784.00
  254.90        2966.50           1451       67106.00    294865.70
  254.93        2966.75           1455       68052.00    299056.30
  254.96        2967.00           1458       68263.00    299991.10
  254.99        2967.25           1461       68315.00    300221.50
  255.02        2967.50           1465       67996.00    298808.20
  255.05        2967.75           1468       66964.00    294236.70
  255.08        2968.00           1471       65229.00    286553.80
  255.11        2968.25           1475       61507.00    270082.70
  255.14        2968.50           1478       59031.00    259133.70
  255.17        2968.75           1481       56019.00    245823.20
  255.20        2969.00           1485       51572.00    226188.90
  255.23        2969.25           1488       49034.00    214992.40
  255.26        2969.50           1491       46148.00    202269.10
  255.29        2969.75           1495       41949.00    183772.70
  255.32        2970.00           1498       39040.00    170969.60
  255.35        2970.25           1501       35274.00    154407.90
  255.38        2970.50           1505       30679.00    134220.50
  255.41        2970.75           1508       27349.00    119604.50
  255.44        2971.00           1511       24415.00    106736.10
  255.47        2971.25           1515       20206.00     88291.31
  255.50        2971.50           1518       17195.00     75107.71
  255.53        2971.75           1521       14036.00     61286.16
  255.56        2972.00           1525        9909.00     43244.89
  255.59        2972.25           1528        7358.00     32101.92
  255.62        2972.50           1531        4540.00     19800.47
  255.65        2972.75           1535        1935.00      8436.10
  255.68        2973.00           1538         661.00      2880.78
  255.71        2973.25           1541         301.00      1311.29
  255.74        2973.50           1544         254.00      1106.40
  255.77        2973.75           1548         221.00       962.54
  255.80        2974.00           1551         222.00       966.90
  255.83        2974.25           1554         212.00       923.30
  255.86        2974.50           1558         203.00       884.07
  255.89        2974.75           1561         190.00       827.39
  255.92        2975.00           1564         187.00       814.32
  255.95        2975.25           1568         185.00       805.60
  255.98        2975.50           1571         171.00       744.57
  256.01        2975.75           1574         183.00       796.88
  256.04        2976.00           1578         174.00       757.64
  256.07        2976.25           1581         171.00       744.57
  256.10        2976.50           1584         174.00       757.64
  256.13        2976.75           1588         179.00       779.44
  256.16        2977.00           1591         171.00       744.57
  256.19        2977.25           1595         173.00       753.28
  256.22        2977.50           1598         176.00       766.36
  256.25        2977.75           1601         174.00       757.64
  256.28        2978.00           1605         179.00       779.44
  256.31        2978.25           1608         182.00       792.52
  256.34        2978.50           1611         172.00       748.93
  256.37        2978.75           1615         176.00       766.36
  256.40        2979.00           1618         174.00       757.64
  256.43        2979.25           1621         171.00       744.57
  256.46        2979.50           1625         168.00       731.49
  256.49        2979.75           1628         170.00       740.21
  256.52        2980.00           1631         158.00       687.89
  256.55        2980.25           1635         162.00       705.33
  256.58        2980.50           1638         166.00       722.77
  256.61        2980.75           1641         174.00       757.64
  256.64        2981.00           1645         172.00       748.93
  256.67        2981.25           1648         173.00       753.28
  256.70        2981.50           1651         175.00       762.00
  256.73        2981.75           1655         177.00       770.72
  256.76        2982.00           1658         185.00       805.60
  256.79        2982.25           1661         165.00       718.41
  256.82        2982.50           1665         168.00       731.49
  256.85        2982.75           1668         166.00       722.77
  256.88        2983.00           1671         157.00       683.53
  256.91        2983.25           1675         171.00       744.57
  256.94        2983.50           1678         178.00       775.08
  256.97        2983.75           1681         173.00       753.28
  257.00        2984.00           1685         174.00       757.64
HS scan finished at 04:17:19
end
************************************************************
  HS Scan of (1) Internal mercury lamp
************************************************************
Integration time is 0.2294 seconds per sample
dh070818Arosa 46.78-9.675 3.018777pr1000
************************************************************
Dead Time -------------------------  2.8E-08 
Number of Cycles Used -------------  4 
Starting Wavelength (Angstroms) ---  2950 
Final Wavelength (Angstoms) -------  2984 
Wavelength Increment (Angstroms) --  .25 
Filter Wheel #1 Position ---------- (1) Ground quartz diffuser (ND=2.32)
Filter Wheel #2 Position ---------- (1) Neutral Density 0.494



************************************************************
HS scan start time = 21:05:29
Dark Count =  .1 


Time (GMT)  Wavelength (Ang)  Step Number  Raw Counts  Counts/Second

 1265.95        2950.00           1232         193.00       840.91
 1266.05        2950.25           1236         187.00       814.75
 1266.08        2950.50           1239         202.00       880.14
 1266.11        2950.75           1242         191.00       832.19
 1266.14        2951.00           1246         196.00       853.99
 1266.17        2951.25           1249         213.00       928.10
 1266.20        2951.50           1252         190.00       827.83
 1266.23        2951.75           1256         195.00       849.63
 1266.26        2952.00           1259         195.00       849.63
 1266.29        2952.25           1262         198.00       862.71
 1266.32        2952.50           1265         196.00       853.99
 1266.35        2952.75           1269         186.00       810.39
 1266.39        2953.00           1272         184.00       801.67
 1266.41        2953.25           1275         188.00       819.11
 1266.45        2953.50           1279         192.00       836.55
 1266.48        2953.75           1282         195.00       849.63
 1266.50        2954.00           1285         191.00       832.19
 1266.54        2954.25           1289         187.00       814.75
 1266.57        2954.50           1292         187.00       814.75
 1266.59        2954.75           1295         197.00       858.35
 1266.63        2955.00           1299         197.00       858.35
 1266.66        2955.25           1302         189.00       823.47
 1266.69        2955.50           1305         199.00       867.07
 1266.72        2955.75           1309         199.00       867.07
 1266.75        2956.00           1312         192.00       836.55
 1266.78        2956.25           1315         186.00       810.39
 1266.81        2956.50           1318         203.00       884.50
 1266.84        2956.75           1322         186.00       810.39
 1266.87        2957.00           1325         189.00       823.47
 1266.90        2957.25           1328         196.00       853.99
 1266.93        2957.50           1332         179.00       779.88
 1266.96        2957.75           1335         182.00       792.96
 1266.99        2958.00           1338         181.00       788.60
 1267.02        2958.25           1342         186.00       810.39
 1267.05        2958.50           1345         193.00       840.91
 1267.08        2958.75           1348         181.00       788.60
 1267.11        2959.00           1352         178.00       775.52
 1267.14        2959.25           1355         190.00       827.83
 1267.17        2959.50           1358         189.00       823.47
 1267.20        2959.75           1362         189.00       823.47
 1267.23        2960.00           1365         196.00       853.99
 1267.26        2960.25           1368         207.00       901.94
 1267.29        2960.50           1372         207.00       901.94
 1267.32        2960.75           1375         213.00       928.10
 1267.35        2961.00           1378         213.00       928.10
 1267.38        2961.25           1382         393.00      1712.81
 1267.41        2961.50           1385        1326.00      5780.80
 1267.44        2961.75           1388        3162.00     13788.67
 1267.47        2962.00           1391        5966.00     26025.50
 1267.50        2962.25           1395       10633.00     46411.19
 1267.53        2962.50           1398       13923.00     60796.09
 1267.56        2962.75           1401       16914.00     73883.73
 1267.59        2963.00           1405       21502.00     93978.01
 1267.62        2963.25           1408       25233.00    110335.60
 1267.65        2963.50           1411       28937.00    126589.60
 1267.68        2963.75           1415       33788.00    147899.40
 1267.71        2964.00           1418       37008.00    162058.50
 1267.74        2964.25           1421       40056.00    175471.60
 1267.77        2964.50           1425       45302.00    198581.10
 1267.81        2964.75           1428       48898.00    214439.30
 1267.84        2965.00           1431       52866.00    231954.50
 1267.87        2965.25           1435       57072.00    250539.10
 1267.90        2965.50           1438       59700.00    262161.00
 1267.93        2965.75           1441       62968.00    276623.90
 1267.96        2966.00           1445       68009.00    298956.30
 1267.99        2966.25           1448       70803.00    311346.30
 1268.02        2966.50           1451       72919.00    320735.40
 1268.05        2966.75           1455       74068.00    325835.90
 1268.08        2967.00           1458       73886.00    325027.80
 1268.11        2967.25           1461       73787.00    324588.30
 1268.14        2967.50           1465       73444.00    323065.70
 1268.17        2967.75           1468       72137.00    317265.00
 1268.20        2968.00           1471       69899.00    307336.50
 1268.23        2968.25           1475       66854.00    293837.00
 1268.26        2968.50           1478       63948.00    280963.20
 1268.29        2968.75           1481       60514.00    265762.40
 1268.32        2969.00           1485       56142.00    246428.20
 1268.35        2969.25           1488       52642.00    230965.30
 1268.38        2969.50           1491       49076.00    215224.70
 1268.41        2969.75           1495       44516.00    195116.70
 1268.44        2970.00           1498       41333.00    181094.30
 1268.48        2970.25           1501       37631.00    164799.20
 1268.51        2970.50           1505       32949.00    144211.90
 1268.54        2970.75           1508       29411.00    128670.70
 1268.57        2971.00           1511       26322.00    115112.80
 1268.60        2971.25           1515       22145.00     96795.99
 1268.63        2971.50           1518       19192.00     83857.97
 1268.66        2971.75           1521       15905.00     69467.60
 1268.69        2972.00           1525       10957.00     47827.30
 1268.72        2972.25           1528        7542.00     32906.95
 1268.75        2972.50           1531        4237.00     18479.04
 1268.78        2972.75           1535        1506.00      6565.72
 1268.81        2973.00           1538         559.00      2436.52
 1268.84        2973.25           1541         279.00      1215.82
 1268.87        2973.50           1544         246.00      1071.96
 1268.90        2973.75           1548         201.00       875.78
 1268.93        2974.00           1551         209.00       910.66
 1268.96        2974.25           1554         204.00       888.86
 1268.99        2974.50           1558         186.00       810.39
 1269.02        2974.75           1561         183.00       797.32
 1269.05        2975.00           1564         175.00       762.44
 1269.08        2975.25           1568         174.00       758.08
 1269.11        2975.50           1571         162.00       705.77
 1269.14        2975.75           1574         171.00       745.00
 1269.17        2976.00           1578         164.00       714.49
 1269.20        2976.25           1581         172.00       749.36
 1269.23        2976.50           1584         159.00       692.69
 1269.27        2976.75           1588         167.00       727.56
 1269.30        2977.00           1591         168.00       731.92
 1269.33        2977.25           1595         164.00       714.49
 1269.36        2977.50           1598         169.00       736.28
 1269.39        2977.75           1601         164.00       714.49
 1269.42        2978.00           1605         163.00       710.13
 1269.45        2978.25           1608         170.00       740.64
 1269.48        2978.50           1611         170.00       740.64
 1269.51        2978.75           1615         169.00       736.28
 1269.54        2979.00           1618         169.00       736.28
 1269.57        2979.25           1621         160.00       697.05
 1269.60        2979.50           1625         158.00       688.33
 1269.63        2979.75           1628         162.00       705.77
 1269.66        2980.00           1631         163.00       710.13
 1269.69        2980.25           1635         161.00       701.41
 1269.72        2980.50           1638         153.00       666.53
 1269.75        2980.75           1641         156.00       679.61
 1269.78        2981.00           1645         151.00       657.82
 1269.81        2981.25           1648         158.00       688.33
 1269.84        2981.50           1651         146.00       636.02
 1269.87        2981.75           1655         153.00       666.53
 1269.90        2982.00           1658         158.00       688.33
 1269.94        2982.25           1661         155.00       675.25
 1269.96        2982.50           1665         164.00       714.49
 1269.99        2982.75           1668         160.00       697.05
 1270.02        2983.00           1671         157.00       683.97
 1270.05        2983.25           1675         145.00       631.66
 1270.08        2983.50           1678         156.00       679.61
 1270.12        2983.75           1681         158.00       688.33
 1270.15        2984.00           1685         158.00       688.33
HS scan finished at 21:10:27
end
