************************************************************
  HS Scan of (1) Internal mercury lamp
************************************************************
Integration time is 0.2294 seconds per sample
dh060818Arosa 46.78-9.675 2.965129pr1000
************************************************************
Dead Time -------------------------  2.7E-08 
Number of Cycles Used -------------  4 
Starting Wavelength (Angstroms) ---  2950 
Final Wavelength (Angstoms) -------  2984 
Wavelength Increment (Angstroms) --  .25 
Filter Wheel #1 Position ---------- (1) Ground quartz diffuser (ND=2.32)
Filter Wheel #2 Position ---------- (1) Neutral Density 0.494



************************************************************
HS scan start time = 04:11:20
Dark Count =  .1 


Time (GMT)  Wavelength (Ang)  Step Number  Raw Counts  Counts/Second

  251.78        2950.00           1232         218.00       949.89
  251.88        2950.25           1236         225.00       980.41
  251.91        2950.50           1239         215.00       936.82
  251.94        2950.75           1242         208.00       906.30
  251.98        2951.00           1246         213.00       928.10
  252.01        2951.25           1249         213.00       928.10
  252.03        2951.50           1252         220.00       958.61
  252.06        2951.75           1256         216.00       941.17
  252.09        2952.00           1259         216.00       941.17
  252.12        2952.25           1262         214.00       932.46
  252.15        2952.50           1265         209.00       910.66
  252.18        2952.75           1269         202.00       880.14
  252.21        2953.00           1272         210.00       915.02
  252.24        2953.25           1275         209.00       910.66
  252.27        2953.50           1279         208.00       906.30
  252.30        2953.75           1282         225.00       980.41
  252.33        2954.00           1285         206.00       897.58
  252.36        2954.25           1289         215.00       936.82
  252.39        2954.50           1292         203.00       884.50
  252.42        2954.75           1295         214.00       932.46
  252.45        2955.00           1299         219.00       954.25
  252.48        2955.25           1302         207.00       901.94
  252.51        2955.50           1305         214.00       932.46
  252.54        2955.75           1309         202.00       880.14
  252.57        2956.00           1312         209.00       910.66
  252.60        2956.25           1315         201.00       875.78
  252.63        2956.50           1318         208.00       906.30
  252.66        2956.75           1322         213.00       928.10
  252.69        2957.00           1325         213.00       928.10
  252.72        2957.25           1328         203.00       884.50
  252.75        2957.50           1332         202.00       880.14
  252.78        2957.75           1335         201.00       875.78
  252.81        2958.00           1338         210.00       915.02
  252.84        2958.25           1342         211.00       919.38
  252.87        2958.50           1345         205.00       893.22
  252.90        2958.75           1348         191.00       832.19
  252.93        2959.00           1352         210.00       915.02
  252.96        2959.25           1355         221.00       962.97
  252.99        2959.50           1358         200.00       871.42
  253.02        2959.75           1362         195.00       849.63
  253.05        2960.00           1365         212.00       923.74
  253.08        2960.25           1368         207.00       901.94
  253.11        2960.50           1372         212.00       923.74
  253.14        2960.75           1375         218.00       949.89
  253.17        2961.00           1378         251.00      1093.76
  253.20        2961.25           1382         364.00      1586.38
  253.23        2961.50           1385        1111.00      4843.27
  253.26        2961.75           1388        2904.00     12663.00
  253.29        2962.00           1391        5139.00     22415.04
  253.32        2962.25           1395        8730.00     38094.53
  253.35        2962.50           1398       11874.00     51833.17
  253.38        2962.75           1401       15712.00     68618.29
  253.41        2963.00           1405       21044.00     91962.59
  253.44        2963.25           1408       24470.00    106977.70
  253.47        2963.50           1411       27887.00    121965.50
  253.50        2963.75           1415       32498.00    142209.80
  253.53        2964.00           1418       36196.00    158461.60
  253.56        2964.25           1421       40393.00    176923.80
  253.59        2964.50           1425       45085.00    197585.30
  253.62        2964.75           1428       48238.00    211482.70
  253.65        2965.00           1431       51303.00    225002.30
  253.68        2965.25           1435       56051.00    245965.00
  253.71        2965.50           1438       59625.00    261760.20
  253.74        2965.75           1441       62939.00    276418.50
  253.78        2966.00           1445       68103.00    299282.70
  253.81        2966.25           1448       71319.00    313536.20
  253.83        2966.50           1451       73201.00    321882.50
  253.86        2966.75           1455       74623.00    328191.30
  253.89        2967.00           1458       74637.00    328253.50
  253.92        2967.25           1461       74069.00    325733.20
  253.95        2967.50           1465       73900.00    324983.40
  253.99        2967.75           1468       73509.00    323248.80
  254.01        2968.00           1471       71849.00    315886.30
  254.04        2968.25           1475       68352.00    300385.90
  254.07        2968.50           1478       64318.00    282521.40
  254.10        2968.75           1481       61259.00    268986.10
  254.13        2969.00           1485       57189.00    250992.90
  254.16        2969.25           1488       53575.00    235030.30
  254.20        2969.50           1491       49929.00    218940.40
  254.22        2969.75           1495       45781.00    200652.10
  254.26        2970.00           1498       41887.00    183500.20
  254.29        2970.25           1501       38697.00    169461.00
  254.32        2970.50           1505       34458.00    150821.70
  254.35        2970.75           1508       31049.00    135845.70
  254.37        2971.00           1511       28154.00    123137.10
  254.41        2971.25           1515       23021.00    100625.70
  254.44        2971.50           1518       19573.00     85519.39
  254.47        2971.75           1521       15920.00     69528.40
  254.50        2972.00           1525       11272.00     49201.76
  254.53        2972.25           1528        8281.00     36133.32
  254.55        2972.50           1531        5076.00     22140.09
  254.58        2972.75           1535        1806.00      7873.95
  254.62        2973.00           1538         740.00      3225.65
  254.65        2973.25           1541         334.00      1455.59
  254.68        2973.50           1544         258.00      1124.27
  254.71        2973.75           1548         247.00      1076.32
  254.74        2974.00           1551         232.00      1010.93
  254.77        2974.25           1554         215.00       936.82
  254.80        2974.50           1558         196.00       853.99
  254.83        2974.75           1561         204.00       888.86
  254.86        2975.00           1564         178.00       775.52
  254.89        2975.25           1568         181.00       788.60
  254.92        2975.50           1571         192.00       836.55
  254.95        2975.75           1574         189.00       823.47
  254.98        2976.00           1578         181.00       788.60
  255.01        2976.25           1581         183.00       797.31
  255.04        2976.50           1584         174.00       758.08
  255.07        2976.75           1588         183.00       797.31
  255.10        2977.00           1591         186.00       810.39
  255.13        2977.25           1595         191.00       832.19
  255.16        2977.50           1598         186.00       810.39
  255.19        2977.75           1601         195.00       849.63
  255.22        2978.00           1605         176.00       766.80
  255.25        2978.25           1608         177.00       771.16
  255.28        2978.50           1611         186.00       810.39
  255.31        2978.75           1615         184.00       801.67
  255.34        2979.00           1618         173.00       753.72
  255.37        2979.25           1621         172.00       749.36
  255.40        2979.50           1625         173.00       753.72
  255.43        2979.75           1628         181.00       788.60
  255.46        2980.00           1631         168.00       731.92
  255.49        2980.25           1635         176.00       766.80
  255.52        2980.50           1638         175.00       762.44
  255.55        2980.75           1641         182.00       792.96
  255.58        2981.00           1645         159.00       692.69
  255.61        2981.25           1648         172.00       749.36
  255.64        2981.50           1651         170.00       740.64
  255.67        2981.75           1655         165.00       718.85
  255.70        2982.00           1658         173.00       753.72
  255.73        2982.25           1661         162.00       705.77
  255.76        2982.50           1665         171.00       745.00
  255.79        2982.75           1668         175.00       762.44
  255.82        2983.00           1671         174.00       758.08
  255.85        2983.25           1675         175.00       762.44
  255.88        2983.50           1678         172.00       749.36
  255.91        2983.75           1681         174.00       758.08
  255.94        2984.00           1685         161.00       701.41
HS scan finished at 04:16:15
end
************************************************************
  HS Scan of (1) Internal mercury lamp
************************************************************
Integration time is 0.2294 seconds per sample
dh060818Arosa 46.78-9.675 2.804185pr1000
************************************************************
Dead Time -------------------------  2.7E-08 
Number of Cycles Used -------------  4 
Starting Wavelength (Angstroms) ---  2950 
Final Wavelength (Angstoms) -------  2984 
Wavelength Increment (Angstroms) --  .25 
Filter Wheel #1 Position ---------- (1) Ground quartz diffuser (ND=2.32)
Filter Wheel #2 Position ---------- (1) Neutral Density 0.494



************************************************************
HS scan start time = 21:05:25
Dark Count =  .1 


Time (GMT)  Wavelength (Ang)  Step Number  Raw Counts  Counts/Second

 1265.87        2950.00           1232         231.00      1006.57
 1265.97        2950.25           1236         224.00       976.05
 1266.00        2950.50           1239         222.00       967.33
 1266.03        2950.75           1242         224.00       976.05
 1266.06        2951.00           1246         215.00       936.82
 1266.09        2951.25           1249         223.00       971.69
 1266.12        2951.50           1252         221.00       962.97
 1266.15        2951.75           1256         213.00       928.10
 1266.18        2952.00           1259         219.00       954.25
 1266.21        2952.25           1262         229.00       997.85
 1266.24        2952.50           1265         219.00       954.25
 1266.27        2952.75           1269         205.00       893.22
 1266.30        2953.00           1272         204.00       888.86
 1266.33        2953.25           1275         208.00       906.30
 1266.36        2953.50           1279         209.00       910.66
 1266.39        2953.75           1282         214.00       932.46
 1266.42        2954.00           1285         214.00       932.46
 1266.45        2954.25           1289         230.00      1002.21
 1266.48        2954.50           1292         211.00       919.38
 1266.51        2954.75           1295         217.00       945.53
 1266.54        2955.00           1299         202.00       880.14
 1266.57        2955.25           1302         207.00       901.94
 1266.60        2955.50           1305         214.00       932.46
 1266.63        2955.75           1309         212.00       923.74
 1266.66        2956.00           1312         221.00       962.97
 1266.69        2956.25           1315         223.00       971.69
 1266.72        2956.50           1318         209.00       910.66
 1266.75        2956.75           1322         208.00       906.30
 1266.78        2957.00           1325         205.00       893.22
 1266.81        2957.25           1328         211.00       919.38
 1266.84        2957.50           1332         203.00       884.50
 1266.87        2957.75           1335         221.00       962.97
 1266.90        2958.00           1338         219.00       954.25
 1266.93        2958.25           1342         193.00       840.91
 1266.96        2958.50           1345         207.00       901.94
 1266.99        2958.75           1348         213.00       928.10
 1267.03        2959.00           1352         207.00       901.94
 1267.05        2959.25           1355         208.00       906.30
 1267.08        2959.50           1358         201.00       875.78
 1267.11        2959.75           1362         199.00       867.06
 1267.14        2960.00           1365         208.00       906.30
 1267.17        2960.25           1368         217.00       945.53
 1267.20        2960.50           1372         214.00       932.46
 1267.23        2960.75           1375         226.00       984.77
 1267.26        2961.00           1378         235.00      1024.00
 1267.29        2961.25           1382         372.00      1621.26
 1267.32        2961.50           1385        1147.00      5000.24
 1267.35        2961.75           1388        2907.00     12676.09
 1267.38        2962.00           1391        5421.00     23645.87
 1267.41        2962.25           1395        8893.00     38806.56
 1267.44        2962.50           1398       11709.00     51111.90
 1267.47        2962.75           1401       15458.00     67506.99
 1267.51        2963.00           1405       20561.00     89846.72
 1267.53        2963.25           1408       23950.00    104697.90
 1267.57        2963.50           1411       26902.00    117643.80
 1267.60        2963.75           1415       30960.00    135454.90
 1267.63        2964.00           1418       34382.00    150487.70
 1267.65        2964.25           1421       38097.00    166821.60
 1267.68        2964.50           1425       42523.00    186300.50
 1267.72        2964.75           1428       46095.00    202035.90
 1267.74        2965.00           1431       49369.00    216470.30
 1267.78        2965.25           1435       53846.00    236226.90
 1267.80        2965.50           1438       56866.00    249565.70
 1267.83        2965.75           1441       60042.00    263604.00
 1267.86        2966.00           1445       64521.00    283420.00
 1267.89        2966.25           1448       67164.00    295123.00
 1267.92        2966.50           1451       68547.00    301249.90
 1267.95        2966.75           1455       69217.00    304218.80
 1267.99        2967.00           1458       69503.00    305486.20
 1268.01        2967.25           1461       69617.00    305991.50
 1268.05        2967.50           1465       68979.00    303164.10
 1268.08        2967.75           1468       68082.00    299189.60
 1268.11        2968.00           1471       65809.00    289122.20
 1268.14        2968.25           1475       62883.00    276170.60
 1268.17        2968.50           1478       59592.00    261614.30
 1268.20        2968.75           1481       56383.00    247431.70
 1268.23        2969.00           1485       52989.00    232443.30
 1268.26        2969.25           1488       50040.00    219430.00
 1268.29        2969.50           1491       46669.00    204565.70
 1268.32        2969.75           1495       42668.00    186939.00
 1268.35        2970.00           1498       39362.00    172386.80
 1268.38        2970.25           1501       35780.00    156632.70
 1268.41        2970.50           1505       30922.00    135288.00
 1268.44        2970.75           1508       27833.00    121728.60
 1268.47        2971.00           1511       24676.00    107880.90
 1268.50        2971.25           1515       20640.00     90192.78
 1268.53        2971.50           1518       17211.00     75178.18
 1268.56        2971.75           1521       13762.00     60088.26
 1268.59        2972.00           1525       10760.00     46964.05
 1268.62        2972.25           1528        7989.00     34857.99
 1268.65        2972.50           1531        4685.00     20433.68
 1268.68        2972.75           1535        1708.00      7446.57
 1268.71        2973.00           1538         558.00      2432.16
 1268.74        2973.25           1541         286.00      1246.34
 1268.77        2973.50           1544         258.00      1124.27
 1268.80        2973.75           1548         225.00       980.41
 1268.83        2974.00           1551         212.00       923.74
 1268.86        2974.25           1554         208.00       906.30
 1268.89        2974.50           1558         195.00       849.63
 1268.92        2974.75           1561         192.00       836.55
 1268.95        2975.00           1564         196.00       853.99
 1268.98        2975.25           1568         187.00       814.75
 1269.01        2975.50           1571         184.00       801.67
 1269.04        2975.75           1574         185.00       806.03
 1269.07        2976.00           1578         189.00       823.47
 1269.10        2976.25           1581         176.00       766.80
 1269.13        2976.50           1584         173.00       753.72
 1269.16        2976.75           1588         169.00       736.28
 1269.19        2977.00           1591         180.00       784.24
 1269.22        2977.25           1595         180.00       784.24
 1269.25        2977.50           1598         183.00       797.31
 1269.28        2977.75           1601         180.00       784.24
 1269.31        2978.00           1605         178.00       775.52
 1269.34        2978.25           1608         183.00       797.31
 1269.37        2978.50           1611         182.00       792.96
 1269.40        2978.75           1615         174.00       758.08
 1269.43        2979.00           1618         185.00       806.03
 1269.46        2979.25           1621         173.00       753.72
 1269.49        2979.50           1625         186.00       810.39
 1269.52        2979.75           1628         177.00       771.16
 1269.55        2980.00           1631         169.00       736.28
 1269.58        2980.25           1635         165.00       718.85
 1269.61        2980.50           1638         170.00       740.64
 1269.64        2980.75           1641         155.00       675.25
 1269.67        2981.00           1645         168.00       731.92
 1269.70        2981.25           1648         166.00       723.21
 1269.73        2981.50           1651         176.00       766.80
 1269.76        2981.75           1655         169.00       736.28
 1269.79        2982.00           1658         172.00       749.36
 1269.82        2982.25           1661         171.00       745.00
 1269.85        2982.50           1665         173.00       753.72
 1269.88        2982.75           1668         168.00       731.92
 1269.91        2983.00           1671         186.00       810.39
 1269.94        2983.25           1675         168.00       731.92
 1269.97        2983.50           1678         175.00       762.44
 1270.00        2983.75           1681         158.00       688.33
 1270.03        2984.00           1685         170.00       740.64
HS scan finished at 21:10:20
end
