************************************************************
  HS Scan of (1) Internal mercury lamp
************************************************************
Integration time is 0.2294 seconds per sample
dh010818Arosa 46.78-9.675 2.857833pr1000
************************************************************
Dead Time -------------------------  2.7E-08 
Number of Cycles Used -------------  4 
Starting Wavelength (Angstroms) ---  2950 
Final Wavelength (Angstoms) -------  2984 
Wavelength Increment (Angstroms) --  .25 
Filter Wheel #1 Position ---------- (1) Ground quartz diffuser (ND=2.32)
Filter Wheel #2 Position ---------- (1) Neutral Density 0.494



************************************************************
HS scan start time = 20:31:46
Dark Count =  .2 


Time (GMT)  Wavelength (Ang)  Step Number  Raw Counts  Counts/Second

 1232.22        2950.00           1229         122.00       530.96
 1232.32        2950.25           1232         122.00       530.96
 1232.35        2950.50           1236         111.00       483.01
 1232.38        2950.75           1239         114.00       496.08
 1232.41        2951.00           1242         111.00       483.01
 1232.44        2951.25           1246         123.00       535.32
 1232.47        2951.50           1249         116.00       504.80
 1232.50        2951.75           1252         115.00       500.44
 1232.53        2952.00           1256         108.00       469.93
 1232.56        2952.25           1259         113.00       491.72
 1232.59        2952.50           1262         116.00       504.80
 1232.62        2952.75           1266         119.00       517.88
 1232.65        2953.00           1269         111.00       483.01
 1232.68        2953.25           1272         108.00       469.93
 1232.71        2953.50           1276         118.00       513.52
 1232.74        2953.75           1279         115.00       500.44
 1232.77        2954.00           1282         108.00       469.93
 1232.80        2954.25           1286         122.00       530.96
 1232.82        2954.50           1289         107.00       465.57
 1232.86        2954.75           1292         109.00       474.29
 1232.88        2955.00           1296         107.00       465.57
 1232.91        2955.25           1299         118.00       513.52
 1232.94        2955.50           1302         119.00       517.88
 1232.97        2955.75           1306          98.00       426.33
 1233.00        2956.00           1309         113.00       491.72
 1233.03        2956.25           1312         115.00       500.44
 1233.06        2956.50           1316         113.00       491.72
 1233.10        2956.75           1319         115.00       500.44
 1233.12        2957.00           1322         115.00       500.44
 1233.16        2957.25           1326         109.00       474.29
 1233.18        2957.50           1329         115.00       500.44
 1233.21        2957.75           1332         120.00       522.24
 1233.24        2958.00           1336         111.00       483.01
 1233.27        2958.25           1339         117.00       509.16
 1233.30        2958.50           1342         114.00       496.08
 1233.34        2958.75           1345         104.00       452.49
 1233.37        2959.00           1349         108.00       469.93
 1233.40        2959.25           1352         112.00       487.36
 1233.43        2959.50           1355         116.00       504.80
 1233.46        2959.75           1359         106.00       461.21
 1233.49        2960.00           1362         103.00       448.13
 1233.52        2960.25           1365         109.00       474.29
 1233.55        2960.50           1369         120.00       522.24
 1233.58        2960.75           1372         124.00       539.68
 1233.61        2961.00           1375         131.00       570.19
 1233.64        2961.25           1379         138.00       600.71
 1233.67        2961.50           1382         224.00       975.61
 1233.70        2961.75           1385         888.00      3870.50
 1233.73        2962.00           1389        2770.00     12078.05
 1233.76        2962.25           1392        4468.00     19486.27
 1233.79        2962.50           1395        6595.00     28770.38
 1233.82        2962.75           1399       10065.00     43926.53
 1233.85        2963.00           1402       12574.00     54892.98
 1233.88        2963.25           1405       15192.00     66342.80
 1233.91        2963.50           1409       18943.00     82760.15
 1233.94        2963.75           1412       21546.00     94161.50
 1233.97        2964.00           1415       24116.00    105425.20
 1234.00        2964.25           1419       27151.00    118735.80
 1234.03        2964.50           1422       29710.00    129966.20
 1234.06        2964.75           1425       32505.00    142240.10
 1234.09        2965.00           1429       35534.00    155550.80
 1234.12        2965.25           1432       37341.00    163496.10
 1234.15        2965.50           1435       39630.00    173565.60
 1234.18        2965.75           1439       42823.00    187621.10
 1234.21        2966.00           1442       45490.00    199369.40
 1234.24        2966.25           1445       47923.00    210093.40
 1234.27        2966.50           1449       50579.00    221807.40
 1234.30        2966.75           1452       51488.00    225818.20
 1234.33        2967.00           1455       51955.00    227879.00
 1234.36        2967.25           1459       52211.00    229008.90
 1234.39        2967.50           1462       52102.00    228527.80
 1234.42        2967.75           1465       52031.00    228214.50
 1234.45        2968.00           1469       51012.00    223717.80
 1234.48        2968.25           1472       49798.00    218362.10
 1234.51        2968.50           1475       47907.00    210022.80
 1234.54        2968.75           1479       44967.00    197064.90
 1234.57        2969.00           1482       42137.00    184600.50
 1234.60        2969.25           1485       39746.00    174076.10
 1234.63        2969.50           1489       36338.00    159085.50
 1234.66        2969.75           1492       33988.00    148755.80
 1234.69        2970.00           1495       31626.00    138379.20
 1234.72        2970.25           1499       28224.00    123443.90
 1234.75        2970.50           1502       25520.00    111581.50
 1234.78        2970.75           1505       23422.00    102382.90
 1234.81        2971.00           1509       20526.00     89692.98
 1234.84        2971.25           1512       18138.00     79235.60
 1234.87        2971.50           1515       15705.00     68587.24
 1234.90        2971.75           1519       12099.00     52816.33
 1234.93        2972.00           1522        9605.00     41916.63
 1234.96        2972.25           1525        7273.00     31730.75
 1234.99        2972.50           1529        4345.00     18949.54
 1235.02        2972.75           1532        2331.00     10163.21
 1235.05        2973.00           1535        1040.00      4533.25
 1235.08        2973.25           1539         265.00      1154.35
 1235.11        2973.50           1542         155.00       674.82
 1235.14        2973.75           1546         134.00       583.27
 1235.17        2974.00           1549         137.00       596.35
 1235.20        2974.25           1552         120.00       522.24
 1235.23        2974.50           1556         126.00       548.40
 1235.26        2974.75           1559         120.00       522.24
 1235.29        2975.00           1562         103.00       448.13
 1235.32        2975.25           1566         104.00       452.49
 1235.35        2975.50           1569         105.00       456.85
 1235.38        2975.75           1572         102.00       443.77
 1235.41        2976.00           1576         104.00       452.49
 1235.44        2976.25           1579         104.00       452.49
 1235.47        2976.50           1582         104.00       452.49
 1235.50        2976.75           1586          97.00       421.98
 1235.53        2977.00           1589         101.00       439.41
 1235.56        2977.25           1592         101.00       439.41
 1235.59        2977.50           1596         100.00       435.05
 1235.62        2977.75           1599         101.00       439.41
 1235.65        2978.00           1602         101.00       439.41
 1235.68        2978.25           1606         105.00       456.85
 1235.71        2978.50           1609         102.00       443.77
 1235.74        2978.75           1612          93.00       404.54
 1235.77        2979.00           1616          91.00       395.82
 1235.80        2979.25           1619         100.00       435.05
 1235.83        2979.50           1622          94.00       408.90
 1235.86        2979.75           1626         104.00       452.49
 1235.89        2980.00           1629         106.00       461.21
 1235.92        2980.25           1632         108.00       469.93
 1235.95        2980.50           1636          99.00       430.69
 1235.98        2980.75           1639          98.00       426.33
 1236.01        2981.00           1642          96.00       417.62
 1236.04        2981.25           1646          98.00       426.33
 1236.07        2981.50           1649          89.00       387.10
 1236.10        2981.75           1653          93.00       404.54
 1236.13        2982.00           1656          95.00       413.26
 1236.16        2982.25           1659         100.00       435.05
 1236.19        2982.50           1663          90.00       391.46
 1236.22        2982.75           1666          90.00       391.46
 1236.25        2983.00           1669         103.00       448.13
 1236.28        2983.25           1673          90.00       391.46
 1236.31        2983.50           1676          89.00       387.10
 1236.34        2983.75           1679          96.00       417.62
 1236.37        2984.00           1683          96.00       417.62
HS scan finished at 20:36:41
end
