************************************************************
  HS Scan of (1) Internal mercury lamp
************************************************************
Integration time is 0.2294 seconds per sample
dh130818Delft 52.017-4.35 3.287017pr1000
************************************************************
Dead Time -------------------------  2.8E-08 
Number of Cycles Used -------------  4 
Starting Wavelength (Angstroms) ---  2950 
Final Wavelength (Angstoms) -------  2984 
Wavelength Increment (Angstroms) --  .25 
Filter Wheel #1 Position ---------- (1) Ground quartz diffuser (ND=2.32)
Filter Wheel #2 Position ---------- (1) Neutral Density 0.494



************************************************************
HS scan start time = 04:57:14
Dark Count =  .7 


Time (GMT)  Wavelength (Ang)  Step Number  Raw Counts  Counts/Second

  297.69        2950.00           1232         192.00       833.93
  297.79        2950.25           1236         171.00       742.39
  297.82        2950.50           1239         193.00       838.29
  297.85        2950.75           1242         197.00       855.73
  297.88        2951.00           1246         171.00       742.39
  297.91        2951.25           1249         179.00       777.26
  297.94        2951.50           1252         175.00       759.82
  297.97        2951.75           1256         169.00       733.67
  298.00        2952.00           1259         180.00       781.62
  298.03        2952.25           1262         177.00       768.54
  298.06        2952.50           1265         181.00       785.98
  298.09        2952.75           1269         182.00       790.34
  298.12        2953.00           1272         171.00       742.39
  298.15        2953.25           1275         187.00       812.14
  298.18        2953.50           1279         178.00       772.90
  298.21        2953.75           1282         174.00       755.46
  298.24        2954.00           1285         178.00       772.90
  298.27        2954.25           1289         181.00       785.98
  298.30        2954.50           1292         169.00       733.67
  298.33        2954.75           1295         174.00       755.46
  298.36        2955.00           1299         178.00       772.90
  298.39        2955.25           1302         184.00       799.06
  298.42        2955.50           1305         171.00       742.39
  298.45        2955.75           1309         172.00       746.75
  298.48        2956.00           1312         176.00       764.18
  298.51        2956.25           1315         168.00       729.31
  298.54        2956.50           1318         170.00       738.03
  298.57        2956.75           1322         177.00       768.54
  298.60        2957.00           1325         181.00       785.98
  298.63        2957.25           1328         171.00       742.39
  298.66        2957.50           1332         172.00       746.75
  298.69        2957.75           1335         186.00       807.78
  298.72        2958.00           1338         184.00       799.06
  298.75        2958.25           1342         181.00       785.98
  298.78        2958.50           1345         171.00       742.39
  298.81        2958.75           1348         177.00       768.54
  298.85        2959.00           1352         167.00       724.95
  298.87        2959.25           1355         170.00       738.03
  298.90        2959.50           1358         171.00       742.39
  298.94        2959.75           1362         169.00       733.67
  298.97        2960.00           1365         168.00       729.31
  298.99        2960.25           1368         189.00       820.86
  299.03        2960.50           1372         193.00       838.29
  299.05        2960.75           1375         218.00       947.28
  299.08        2961.00           1378         222.00       964.72
  299.12        2961.25           1382         360.00      1566.33
  299.14        2961.50           1385        1239.00      5398.81
  299.17        2961.75           1388        3112.00     13567.93
  299.20        2962.00           1391        6021.00     26262.99
  299.23        2962.25           1395       11452.00     49988.41
  299.26        2962.50           1398       16050.00     70099.53
  299.29        2962.75           1401       20198.00     88261.89
  299.32        2963.00           1405       25461.00    111333.00
  299.35        2963.25           1408       30531.00    133586.40
  299.39        2963.50           1411       35763.00    156579.90
  299.42        2963.75           1415       41284.00    180875.80
  299.45        2964.00           1418       46111.00    202144.90
  299.48        2964.25           1421       51176.00    224489.90
  299.51        2964.50           1425       57088.00    250607.20
  299.54        2964.75           1428       61969.00    272198.80
  299.57        2965.00           1431       66462.00    292097.20
  299.60        2965.25           1435       71911.00    316259.40
  299.63        2965.50           1438       76257.00    335554.30
  299.66        2965.75           1441       79837.00    351464.00
  299.69        2966.00           1445       85419.00    376299.30
  299.72        2966.25           1448       88794.00    391332.10
  299.75        2966.50           1451       92621.00    408393.60
  299.78        2966.75           1455       93535.00    412470.80
  299.81        2967.00           1458       94111.00    415040.80
  299.84        2967.25           1461       93773.00    413532.60
  299.87        2967.50           1465       93449.00    412087.10
  299.90        2967.75           1468       92676.00    408639.00
  299.93        2968.00           1471       90441.00    398672.70
  299.96        2968.25           1475       86298.00    380213.30
  299.99        2968.50           1478       83246.00    366627.10
  300.02        2968.75           1481       78512.00    345574.00
  300.05        2969.00           1485       73115.00    321602.70
  300.08        2969.25           1488       69125.00    303901.50
  300.11        2969.50           1491       64832.00    284875.70
  300.14        2969.75           1495       57947.00    254405.20
  300.17        2970.00           1498       53045.00    232742.40
  300.20        2970.25           1501       49132.00    215469.10
  300.23        2970.50           1505       43129.00    189002.40
  300.26        2970.75           1508       38447.00    168387.10
  300.29        2971.00           1511       33985.00    148762.70
  300.32        2971.25           1515       29141.00    127482.60
  300.35        2971.50           1518       25109.00    109789.00
  300.38        2971.75           1521       20857.00     91149.08
  300.41        2972.00           1525       15077.00     65841.85
  300.44        2972.25           1528       10125.00     44188.47
  300.47        2972.50           1531        5727.00     24979.54
  300.50        2972.75           1535        2031.00      8852.67
  300.53        2973.00           1538         751.00      3271.01
  300.56        2973.25           1541         343.00      1492.22
  300.59        2973.50           1544         253.00      1099.86
  300.62        2973.75           1548         236.00      1025.75
  300.65        2974.00           1551         211.00       916.76
  300.68        2974.25           1554         206.00       894.97
  300.70        2974.50           1558         187.00       812.14
  300.74        2974.75           1561         174.00       755.46
  300.76        2975.00           1564         162.00       703.15
  300.79        2975.25           1568         173.00       751.11
  300.82        2975.50           1571         166.00       720.59
  300.85        2975.75           1574         159.00       690.07
  300.88        2976.00           1578         157.00       681.36
  300.91        2976.25           1581         151.00       655.20
  300.94        2976.50           1584         163.00       707.51
  300.97        2976.75           1588         164.00       711.87
  301.00        2977.00           1591         154.00       668.28
  301.03        2977.25           1595         165.00       716.23
  301.06        2977.50           1598         164.00       711.87
  301.09        2977.75           1601         152.00       659.56
  301.12        2978.00           1605         173.00       751.11
  301.15        2978.25           1608         161.00       698.79
  301.18        2978.50           1611         153.00       663.92
  301.21        2978.75           1615         150.00       650.84
  301.24        2979.00           1618         163.00       707.51
  301.27        2979.25           1621         145.00       629.04
  301.30        2979.50           1625         166.00       720.59
  301.33        2979.75           1628         160.00       694.43
  301.36        2980.00           1631         149.00       646.48
  301.39        2980.25           1635         143.00       620.32
  301.42        2980.50           1638         150.00       650.84
  301.45        2980.75           1641         150.00       650.84
  301.48        2981.00           1645         155.00       672.64
  301.51        2981.25           1648         148.00       642.12
  301.54        2981.50           1651         150.00       650.84
  301.57        2981.75           1655         144.00       624.68
  301.60        2982.00           1658         159.00       690.07
  301.63        2982.25           1661         146.00       633.40
  301.66        2982.50           1665         153.00       663.92
  301.69        2982.75           1668         153.00       663.92
  301.72        2983.00           1671         143.00       620.32
  301.75        2983.25           1675         143.00       620.32
  301.78        2983.50           1678         158.00       685.71
  301.81        2983.75           1681         150.00       650.84
  301.84        2984.00           1685         154.00       668.28
HS scan finished at 05:02:09
end
************************************************************
  HS Scan of (1) Internal mercury lamp
************************************************************
Integration time is 0.2294 seconds per sample
dh130818Delft 52.017-4.35 3.287017pr1000
************************************************************
Dead Time -------------------------  2.8E-08 
Number of Cycles Used -------------  4 
Starting Wavelength (Angstroms) ---  2950 
Final Wavelength (Angstoms) -------  2984 
Wavelength Increment (Angstroms) --  .25 
Filter Wheel #1 Position ---------- (1) Ground quartz diffuser (ND=2.32)
Filter Wheel #2 Position ---------- (1) Neutral Density 0.494



************************************************************
HS scan start time = 06:44:32
Dark Count =  .6 


Time (GMT)  Wavelength (Ang)  Step Number  Raw Counts  Counts/Second

  404.98        2950.00           1232         188.00       816.93
  405.09        2950.25           1236         184.00       799.49
  405.11        2950.50           1239         173.00       751.54
  405.15        2950.75           1242         192.00       834.37
  405.17        2951.00           1246         193.00       838.73
  405.20        2951.25           1249         184.00       799.49
  405.24        2951.50           1252         181.00       786.42
  405.26        2951.75           1256         179.00       777.70
  405.29        2952.00           1259         191.00       830.01
  405.32        2952.25           1262         175.00       760.26
  405.35        2952.50           1265         185.00       803.85
  405.38        2952.75           1269         177.00       768.98
  405.41        2953.00           1272         175.00       760.26
  405.44        2953.25           1275         178.00       773.34
  405.47        2953.50           1279         191.00       830.01
  405.50        2953.75           1282         173.00       751.54
  405.53        2954.00           1285         171.00       742.82
  405.56        2954.25           1289         169.00       734.10
  405.59        2954.50           1292         176.00       764.62
  405.62        2954.75           1295         182.00       790.78
  405.65        2955.00           1299         170.00       738.46
  405.68        2955.25           1302         183.00       795.14
  405.71        2955.50           1305         169.00       734.10
  405.74        2955.75           1309         181.00       786.42
  405.77        2956.00           1312         188.00       816.93
  405.80        2956.25           1315         168.00       729.74
  405.83        2956.50           1318         184.00       799.49
  405.86        2956.75           1322         183.00       795.14
  405.89        2957.00           1325         174.00       755.90
  405.92        2957.25           1328         171.00       742.82
  405.95        2957.50           1332         161.00       699.23
  405.98        2957.75           1335         173.00       751.54
  406.01        2958.00           1338         161.00       699.23
  406.04        2958.25           1342         186.00       808.21
  406.07        2958.50           1345         173.00       751.54
  406.10        2958.75           1348         179.00       777.70
  406.13        2959.00           1352         177.00       768.98
  406.16        2959.25           1355         174.00       755.90
  406.19        2959.50           1358         178.00       773.34
  406.22        2959.75           1362         173.00       751.54
  406.25        2960.00           1365         180.00       782.06
  406.28        2960.25           1368         179.00       777.70
  406.31        2960.50           1372         192.00       834.37
  406.34        2960.75           1375         220.00       956.43
  406.37        2961.00           1378         233.00      1013.11
  406.40        2961.25           1382         353.00      1536.25
  406.43        2961.50           1385        1358.00      5918.16
  406.46        2961.75           1388        3388.00     14772.46
  406.49        2962.00           1391        5812.00     25351.03
  406.52        2962.25           1395       10771.00     47012.16
  406.55        2962.50           1398       15787.00     68949.03
  406.58        2962.75           1401       20101.00     87837.39
  406.61        2963.00           1405       26179.00    114483.20
  406.64        2963.25           1408       31469.00    137706.90
  406.67        2963.50           1411       36005.00    157644.60
  406.70        2963.75           1415       42201.00    184914.90
  406.73        2964.00           1418       46558.00    204116.20
  406.76        2964.25           1421       51185.00    224530.10
  406.79        2964.50           1425       56515.00    248074.70
  406.82        2964.75           1428       60912.00    267521.30
  406.85        2965.00           1431       64635.00    284003.60
  406.88        2965.25           1435       69995.00    307760.10
  406.91        2965.50           1438       74855.00    329328.00
  406.94        2965.75           1441       79209.00    348672.60
  406.96        2966.00           1445       84204.00    370891.00
  406.99        2966.25           1448       88374.00    389461.10
  407.02        2966.50           1451       91414.00    403011.30
  407.05        2966.75           1455       92893.00    409607.40
  407.08        2967.00           1458       93126.00    410646.70
  407.11        2967.25           1461       93180.00    410887.60
  407.14        2967.50           1465       92810.00    409237.10
  407.17        2967.75           1468       92548.00    408068.50
  407.20        2968.00           1471       90244.00    397795.00
  407.23        2968.25           1475       86376.00    380561.10
  407.26        2968.50           1478       82046.00    361288.50
  407.29        2968.75           1481       77231.00    339881.80
  407.32        2969.00           1485       71338.00    313717.50
  407.35        2969.25           1488       67423.00    296356.60
  407.38        2969.50           1491       63306.00    278118.20
  407.41        2969.75           1495       57395.00    251964.90
  407.44        2970.00           1498       52984.00    232473.50
  407.47        2970.25           1501       48920.00    214534.20
  407.50        2970.50           1505       43618.00    191157.30
  407.53        2970.75           1508       39407.00    172612.60
  407.56        2971.00           1511       34608.00    151501.80
  407.59        2971.25           1515       28276.00    123685.70
  407.62        2971.50           1518       23630.00    103303.60
  407.65        2971.75           1521       19600.00     85642.79
  407.68        2972.00           1525       14172.00     61883.08
  407.71        2972.25           1528        9912.00     43258.13
  407.74        2972.50           1531        5851.00     25521.28
  407.77        2972.75           1535        1858.00      8098.61
  407.80        2973.00           1538         679.00      2957.53
  407.83        2973.25           1541         314.00      1366.22
  407.86        2973.50           1544         255.00      1109.01
  407.89        2973.75           1548         219.00       952.07
  407.92        2974.00           1551         220.00       956.43
  407.95        2974.25           1554         203.00       882.32
  407.98        2974.50           1558         186.00       808.21
  408.01        2974.75           1561         175.00       760.26
  408.04        2975.00           1564         166.00       721.03
  408.07        2975.25           1568         164.00       712.31
  408.10        2975.50           1571         163.00       707.95
  408.13        2975.75           1574         165.00       716.67
  408.16        2976.00           1578         151.00       655.64
  408.19        2976.25           1581         169.00       734.10
  408.22        2976.50           1584         151.00       655.64
  408.25        2976.75           1588         154.00       668.71
  408.28        2977.00           1591         156.00       677.43
  408.31        2977.25           1595         157.00       681.79
  408.34        2977.50           1598         152.00       659.99
  408.37        2977.75           1601         171.00       742.82
  408.40        2978.00           1605         170.00       738.46
  408.43        2978.25           1608         139.00       603.32
  408.46        2978.50           1611         158.00       686.15
  408.49        2978.75           1615         147.00       638.20
  408.52        2979.00           1618         152.00       659.99
  408.55        2979.25           1621         167.00       725.39
  408.58        2979.50           1625         147.00       638.20
  408.61        2979.75           1628         155.00       673.07
  408.64        2980.00           1631         138.00       598.96
  408.67        2980.25           1635         165.00       716.67
  408.69        2980.50           1638         163.00       707.95
  408.73        2980.75           1641         153.00       664.35
  408.75        2981.00           1645         149.00       646.92
  408.78        2981.25           1648         154.00       668.71
  408.81        2981.50           1651         148.00       642.56
  408.84        2981.75           1655         138.00       598.96
  408.87        2982.00           1658         144.00       625.12
  408.90        2982.25           1661         149.00       646.92
  408.93        2982.50           1665         127.00       551.01
  408.96        2982.75           1668         156.00       677.43
  408.99        2983.00           1671         154.00       668.71
  409.02        2983.25           1675         153.00       664.35
  409.05        2983.50           1678         145.00       629.48
  409.08        2983.75           1681         155.00       673.07
  409.11        2984.00           1685         146.00       633.84
HS scan finished at 06:49:25
end
