************************************************************
  HS Scan of (1) Internal mercury lamp
************************************************************
Integration time is 0.2294 seconds per sample
dh110818Delft 52.017-4.35 3.287017pr1000
************************************************************
Dead Time -------------------------  2.8E-08 
Number of Cycles Used -------------  4 
Starting Wavelength (Angstroms) ---  2950 
Final Wavelength (Angstoms) -------  2984 
Wavelength Increment (Angstroms) --  .25 
Filter Wheel #1 Position ---------- (1) Ground quartz diffuser (ND=2.32)
Filter Wheel #2 Position ---------- (1) Neutral Density 0.494



************************************************************
HS scan start time = 00:31:34
Dark Count =  .7 


Time (GMT)  Wavelength (Ang)  Step Number  Raw Counts  Counts/Second

   32.03        2950.00           1232         194.00       842.65
   32.13        2950.25           1236         183.00       794.70
   32.16        2950.50           1239         184.00       799.06
   32.19        2950.75           1242         184.00       799.06
   32.22        2951.00           1246         185.00       803.42
   32.24        2951.25           1249         192.00       833.93
   32.27        2951.50           1252         180.00       781.62
   32.30        2951.75           1256         179.00       777.26
   32.33        2952.00           1259         199.00       864.45
   32.36        2952.25           1262         189.00       820.86
   32.39        2952.50           1265         194.00       842.65
   32.42        2952.75           1269         175.00       759.82
   32.45        2953.00           1272         187.00       812.14
   32.48        2953.25           1275         174.00       755.46
   32.51        2953.50           1279         171.00       742.39
   32.54        2953.75           1282         192.00       833.93
   32.57        2954.00           1285         191.00       829.57
   32.60        2954.25           1289         184.00       799.06
   32.63        2954.50           1292         181.00       785.98
   32.66        2954.75           1295         179.00       777.26
   32.69        2955.00           1299         181.00       785.98
   32.72        2955.25           1302         175.00       759.82
   32.75        2955.50           1305         185.00       803.42
   32.78        2955.75           1309         180.00       781.62
   32.81        2956.00           1312         165.00       716.23
   32.84        2956.25           1315         184.00       799.06
   32.87        2956.50           1318         184.00       799.06
   32.90        2956.75           1322         184.00       799.06
   32.93        2957.00           1325         188.00       816.50
   32.96        2957.25           1328         186.00       807.78
   32.99        2957.50           1332         194.00       842.65
   33.02        2957.75           1335         179.00       777.26
   33.05        2958.00           1338         190.00       825.22
   33.08        2958.25           1342         178.00       772.90
   33.11        2958.50           1345         180.00       781.62
   33.14        2958.75           1348         178.00       772.90
   33.17        2959.00           1352         181.00       785.98
   33.20        2959.25           1355         183.00       794.70
   33.23        2959.50           1358         181.00       785.98
   33.26        2959.75           1362         187.00       812.14
   33.29        2960.00           1365         176.00       764.18
   33.32        2960.25           1368         187.00       812.14
   33.35        2960.50           1372         199.00       864.45
   33.38        2960.75           1375         203.00       881.89
   33.40        2961.00           1378         224.00       973.44
   33.43        2961.25           1382         298.00      1296.04
   33.46        2961.50           1385        1117.00      4866.84
   33.49        2961.75           1388        2998.00     13070.61
   33.52        2962.00           1391        5660.00     24687.07
   33.55        2962.25           1395       10466.00     45678.70
   33.58        2962.50           1398       15310.00     66861.32
   33.61        2962.75           1401       19570.00     85510.96
   33.64        2963.00           1405       26054.00    113934.40
   33.67        2963.25           1408       31128.00    136208.60
   33.70        2963.50           1411       35222.00    154201.00
   33.73        2963.75           1415       41842.00    183333.20
   33.76        2964.00           1418       46129.00    202224.20
   33.79        2964.25           1421       50944.00    223465.80
   33.82        2964.50           1425       56843.00    249524.10
   33.85        2964.75           1428       60569.00    266003.10
   33.88        2965.00           1431       64368.00    282820.60
   33.91        2965.25           1435       70005.00    307804.00
   33.94        2965.50           1438       74546.00    327955.50
   33.97        2965.75           1441       79544.00    350161.40
   34.00        2966.00           1445       84244.00    371068.60
   34.03        2966.25           1448       88519.00    390106.70
   34.06        2966.50           1451       91662.00    404116.70
   34.09        2966.75           1455       93657.00    413015.10
   34.12        2967.00           1458       93971.00    414416.10
   34.15        2967.25           1461       93867.00    413952.10
   34.18        2967.50           1465       93470.00    412180.90
   34.21        2967.75           1468       93314.00    411484.90
   34.24        2968.00           1471       91538.00    403563.70
   34.27        2968.25           1475       87884.00    387277.50
   34.30        2968.50           1478       83713.00    368705.30
   34.33        2968.75           1481       78471.00    345391.80
   34.36        2969.00           1485       72268.00    317843.60
   34.39        2969.25           1488       68878.00    302806.30
   34.42        2969.50           1491       64148.00    281846.30
   34.45        2969.75           1495       58182.00    255444.40
   34.48        2970.00           1498       53891.00    236479.20
   34.51        2970.25           1501       49932.00    218999.20
   34.54        2970.50           1505       44966.00    197097.40
   34.57        2970.75           1508       40306.00    176569.60
   34.60        2971.00           1511       35513.00    155480.60
   34.63        2971.25           1515       28836.00    126143.50
   34.66        2971.50           1518       24409.00    106719.00
   34.69        2971.75           1521       20348.00     88919.02
   34.71        2972.00           1525       15199.00     66375.65
   34.74        2972.25           1528       10658.00     46517.83
   34.77        2972.50           1531        6585.00     28725.36
   34.80        2972.75           1535        2057.00      8966.07
   34.83        2973.00           1538         765.00      3332.05
   34.86        2973.25           1541         367.00      1596.85
   34.89        2973.50           1544         269.00      1169.61
   34.92        2973.75           1548         248.00      1078.06
   34.95        2974.00           1551         205.00       890.61
   34.98        2974.25           1554         223.00       969.08
   35.01        2974.50           1558         216.00       938.56
   35.04        2974.75           1561         194.00       842.65
   35.07        2975.00           1564         176.00       764.18
   35.10        2975.25           1568         176.00       764.18
   35.13        2975.50           1571         170.00       738.03
   35.16        2975.75           1574         179.00       777.26
   35.19        2976.00           1578         175.00       759.82
   35.22        2976.25           1581         164.00       711.87
   35.25        2976.50           1584         176.00       764.18
   35.28        2976.75           1588         165.00       716.23
   35.31        2977.00           1591         162.00       703.15
   35.34        2977.25           1595         173.00       751.11
   35.37        2977.50           1598         180.00       781.62
   35.40        2977.75           1601         173.00       751.11
   35.43        2978.00           1605         179.00       777.26
   35.46        2978.25           1608         166.00       720.59
   35.49        2978.50           1611         179.00       777.26
   35.52        2978.75           1615         162.00       703.15
   35.55        2979.00           1618         169.00       733.67
   35.58        2979.25           1621         173.00       751.11
   35.61        2979.50           1625         149.00       646.48
   35.64        2979.75           1628         167.00       724.95
   35.67        2980.00           1631         161.00       698.79
   35.70        2980.25           1635         161.00       698.79
   35.72        2980.50           1638         163.00       707.51
   35.76        2980.75           1641         172.00       746.75
   35.79        2981.00           1645         175.00       759.82
   35.81        2981.25           1648         158.00       685.71
   35.84        2981.50           1651         170.00       738.03
   35.88        2981.75           1655         168.00       729.31
   35.90        2982.00           1658         161.00       698.79
   35.93        2982.25           1661         162.00       703.15
   35.96        2982.50           1665         157.00       681.36
   35.99        2982.75           1668         150.00       650.84
   36.02        2983.00           1671         158.00       685.71
   36.05        2983.25           1675         161.00       698.79
   36.08        2983.50           1678         161.00       698.79
   36.11        2983.75           1681         155.00       672.64
   36.14        2984.00           1685         146.00       633.40
HS scan finished at 00:36:27
end
************************************************************
  HS Scan of (1) Internal mercury lamp
************************************************************
Integration time is 0.2294 seconds per sample
dh110818Delft 52.017-4.35 3.340665pr1000
************************************************************
Dead Time -------------------------  2.8E-08 
Number of Cycles Used -------------  4 
Starting Wavelength (Angstroms) ---  2950 
Final Wavelength (Angstoms) -------  2984 
Wavelength Increment (Angstroms) --  .25 
Filter Wheel #1 Position ---------- (1) Ground quartz diffuser (ND=2.32)
Filter Wheel #2 Position ---------- (1) Neutral Density 0.494



************************************************************
HS scan start time = 04:54:01
Dark Count =  .7 


Time (GMT)  Wavelength (Ang)  Step Number  Raw Counts  Counts/Second

  294.48        2950.00           1232         180.00       781.62
  294.58        2950.25           1236         180.00       781.62
  294.61        2950.50           1239         202.00       877.53
  294.64        2950.75           1242         188.00       816.50
  294.67        2951.00           1246         188.00       816.50
  294.70        2951.25           1249         174.00       755.46
  294.73        2951.50           1252         184.00       799.06
  294.76        2951.75           1256         197.00       855.73
  294.79        2952.00           1259         164.00       711.87
  294.82        2952.25           1262         171.00       742.39
  294.85        2952.50           1265         195.00       847.01
  294.88        2952.75           1269         193.00       838.29
  294.91        2953.00           1272         170.00       738.03
  294.94        2953.25           1275         190.00       825.22
  294.96        2953.50           1279         180.00       781.62
  295.00        2953.75           1282         186.00       807.78
  295.02        2954.00           1285         187.00       812.14
  295.05        2954.25           1289         179.00       777.26
  295.08        2954.50           1292         177.00       768.54
  295.11        2954.75           1295         177.00       768.54
  295.14        2955.00           1299         172.00       746.75
  295.17        2955.25           1302         173.00       751.11
  295.20        2955.50           1305         181.00       785.98
  295.23        2955.75           1309         192.00       833.93
  295.26        2956.00           1312         180.00       781.62
  295.29        2956.25           1315         175.00       759.82
  295.32        2956.50           1318         177.00       768.54
  295.35        2956.75           1322         186.00       807.78
  295.38        2957.00           1325         169.00       733.67
  295.41        2957.25           1328         191.00       829.57
  295.44        2957.50           1332         179.00       777.26
  295.47        2957.75           1335         182.00       790.34
  295.50        2958.00           1338         172.00       746.75
  295.53        2958.25           1342         163.00       707.51
  295.56        2958.50           1345         180.00       781.62
  295.59        2958.75           1348         173.00       751.11
  295.62        2959.00           1352         187.00       812.14
  295.65        2959.25           1355         175.00       759.82
  295.68        2959.50           1358         189.00       820.86
  295.71        2959.75           1362         185.00       803.42
  295.74        2960.00           1365         174.00       755.46
  295.77        2960.25           1368         186.00       807.78
  295.80        2960.50           1372         184.00       799.06
  295.83        2960.75           1375         206.00       894.97
  295.86        2961.00           1378         207.00       899.33
  295.89        2961.25           1382         289.00      1256.80
  295.92        2961.50           1385         948.00      4129.95
  295.95        2961.75           1388        2662.00     11604.90
  295.98        2962.00           1391        6064.00     26450.71
  296.01        2962.25           1395       11680.00     50985.12
  296.04        2962.50           1398       16285.00     71128.00
  296.07        2962.75           1401       20632.00     90163.25
  296.10        2963.00           1405       27250.00    119182.20
  296.13        2963.25           1408       32150.00    140698.40
  296.16        2963.50           1411       36459.00    159641.00
  296.19        2963.75           1415       41932.00    183729.60
  296.22        2964.00           1418       45900.00    201214.60
  296.25        2964.25           1421       50173.00    220062.80
  296.28        2964.50           1425       56124.00    246346.00
  296.31        2964.75           1428       61155.00    268596.20
  296.34        2965.00           1431       65018.00    285699.70
  296.37        2965.25           1435       70725.00    310997.60
  296.40        2965.50           1438       75363.00    331583.50
  296.43        2965.75           1441       79547.00    350174.70
  296.46        2966.00           1445       85171.00    375195.20
  296.49        2966.25           1448       89452.00    394264.40
  296.52        2966.50           1451       92573.00    408179.50
  296.55        2966.75           1455       93859.00    413916.40
  296.58        2967.00           1458       94482.00    416696.20
  296.61        2967.25           1461       94004.00    414563.30
  296.64        2967.50           1465       94312.00    415937.60
  296.67        2967.75           1468       93118.00    410610.50
  296.70        2968.00           1471       90714.00    399889.80
  296.73        2968.25           1475       86535.00    381268.70
  296.76        2968.50           1478       82344.00    362613.80
  296.79        2968.75           1481       77770.00    342276.40
  296.82        2969.00           1485       72629.00    319445.70
  296.85        2969.25           1488       69037.00    303511.30
  296.88        2969.50           1491       64840.00    284911.20
  296.91        2969.75           1495       59757.00    262410.50
  296.94        2970.00           1498       54920.00    241025.30
  296.97        2970.25           1501       49903.00    218871.30
  297.00        2970.50           1505       43722.00    191615.10
  297.03        2970.75           1508       39665.00    173747.80
  297.06        2971.00           1511       35052.00    153453.50
  297.09        2971.25           1515       29336.00    128338.70
  297.12        2971.50           1518       24924.00    108977.60
  297.15        2971.75           1521       20372.00     89024.16
  297.18        2972.00           1525       15357.00     67066.98
  297.21        2972.25           1528       11330.00     49455.10
  297.24        2972.50           1531        7574.00     33044.07
  297.27        2972.75           1535        2705.00     11792.47
  297.30        2973.00           1538         864.00      3763.69
  297.33        2973.25           1541         347.00      1509.65
  297.36        2973.50           1544         261.00      1134.74
  297.39        2973.75           1548         245.00      1064.98
  297.42        2974.00           1551         211.00       916.76
  297.45        2974.25           1554         220.00       956.00
  297.48        2974.50           1558         192.00       833.93
  297.51        2974.75           1561         177.00       768.54
  297.54        2975.00           1564         169.00       733.67
  297.57        2975.25           1568         182.00       790.34
  297.60        2975.50           1571         176.00       764.18
  297.63        2975.75           1574         165.00       716.23
  297.66        2976.00           1578         161.00       698.79
  297.69        2976.25           1581         170.00       738.03
  297.72        2976.50           1584         160.00       694.43
  297.75        2976.75           1588         169.00       733.67
  297.78        2977.00           1591         179.00       777.26
  297.81        2977.25           1595         169.00       733.67
  297.84        2977.50           1598         161.00       698.79
  297.87        2977.75           1601         156.00       677.00
  297.90        2978.00           1605         174.00       755.46
  297.93        2978.25           1608         155.00       672.64
  297.96        2978.50           1611         158.00       685.71
  297.99        2978.75           1615         151.00       655.20
  298.02        2979.00           1618         167.00       724.95
  298.05        2979.25           1621         154.00       668.28
  298.08        2979.50           1625         151.00       655.20
  298.11        2979.75           1628         153.00       663.92
  298.14        2980.00           1631         163.00       707.51
  298.17        2980.25           1635         152.00       659.56
  298.20        2980.50           1638         152.00       659.56
  298.23        2980.75           1641         165.00       716.23
  298.26        2981.00           1645         162.00       703.15
  298.29        2981.25           1648         166.00       720.59
  298.32        2981.50           1651         161.00       698.79
  298.35        2981.75           1655         160.00       694.43
  298.38        2982.00           1658         142.00       615.97
  298.41        2982.25           1661         146.00       633.40
  298.44        2982.50           1665         157.00       681.36
  298.47        2982.75           1668         152.00       659.56
  298.50        2983.00           1671         151.00       655.20
  298.53        2983.25           1675         148.00       642.12
  298.56        2983.50           1678         151.00       655.20
  298.59        2983.75           1681         154.00       668.28
  298.62        2984.00           1685         159.00       690.07
HS scan finished at 04:58:56
end
************************************************************
  HS Scan of (1) Internal mercury lamp
************************************************************
Integration time is 0.2294 seconds per sample
dh110818Delft 52.017-4.35 3.340665pr1000
************************************************************
Dead Time -------------------------  2.8E-08 
Number of Cycles Used -------------  4 
Starting Wavelength (Angstroms) ---  2950 
Final Wavelength (Angstoms) -------  2984 
Wavelength Increment (Angstroms) --  .25 
Filter Wheel #1 Position ---------- (1) Ground quartz diffuser (ND=2.32)
Filter Wheel #2 Position ---------- (1) Neutral Density 0.494



************************************************************
HS scan start time = 06:41:18
Dark Count =  .9 


Time (GMT)  Wavelength (Ang)  Step Number  Raw Counts  Counts/Second

  401.75        2950.00           1232         176.00       763.31
  401.85        2950.25           1236         183.00       793.83
  401.88        2950.50           1239         186.00       806.91
  401.91        2950.75           1242         193.00       837.42
  401.94        2951.00           1246         184.00       798.19
  401.97        2951.25           1249         192.00       833.06
  402.00        2951.50           1252         176.00       763.31
  402.03        2951.75           1256         205.00       889.73
  402.06        2952.00           1259         182.00       789.47
  402.09        2952.25           1262         197.00       854.86
  402.12        2952.50           1265         177.00       767.67
  402.15        2952.75           1269         191.00       828.70
  402.18        2953.00           1272         185.00       802.55
  402.21        2953.25           1275         180.00       780.75
  402.24        2953.50           1279         174.00       754.59
  402.27        2953.75           1282         180.00       780.75
  402.30        2954.00           1285         182.00       789.47
  402.33        2954.25           1289         179.00       776.39
  402.36        2954.50           1292         183.00       793.83
  402.39        2954.75           1295         176.00       763.31
  402.42        2955.00           1299         191.00       828.70
  402.45        2955.25           1302         174.00       754.59
  402.48        2955.50           1305         188.00       815.62
  402.51        2955.75           1309         193.00       837.42
  402.54        2956.00           1312         191.00       828.70
  402.57        2956.25           1315         183.00       793.83
  402.60        2956.50           1318         176.00       763.31
  402.63        2956.75           1322         186.00       806.91
  402.66        2957.00           1325         179.00       776.39
  402.68        2957.25           1328         176.00       763.31
  402.72        2957.50           1332         184.00       798.19
  402.75        2957.75           1335         180.00       780.75
  402.78        2958.00           1338         180.00       780.75
  402.81        2958.25           1342         176.00       763.31
  402.84        2958.50           1345         164.00       711.00
  402.86        2958.75           1348         178.00       772.03
  402.89        2959.00           1352         183.00       793.83
  402.92        2959.25           1355         169.00       732.80
  402.95        2959.50           1358         172.00       745.87
  402.99        2959.75           1362         185.00       802.55
  403.01        2960.00           1365         186.00       806.91
  403.04        2960.25           1368         184.00       798.19
  403.07        2960.50           1372         191.00       828.70
  403.10        2960.75           1375         207.00       898.45
  403.13        2961.00           1378         221.00       959.49
  403.16        2961.25           1382         290.00      1260.29
  403.19        2961.50           1385         895.00      3897.98
  403.22        2961.75           1388        2732.00     11909.38
  403.25        2962.00           1391        6081.00     26524.05
  403.28        2962.25           1395       11868.00     51806.14
  403.31        2962.50           1398       16250.00     70973.95
  403.34        2962.75           1401       19906.00     86981.86
  403.37        2963.00           1405       25335.00    110779.40
  403.40        2963.25           1408       30175.00    132022.00
  403.43        2963.50           1411       34831.00    152480.90
  403.46        2963.75           1415       41554.00    182064.00
  403.49        2964.00           1418       45485.00    199384.20
  403.52        2964.25           1421       49352.00    216439.00
  403.55        2964.50           1425       55498.00    243578.50
  403.58        2964.75           1428       60018.00    263564.30
  403.61        2965.00           1431       64699.00    284285.80
  403.64        2965.25           1435       70512.00    310051.90
  403.67        2965.50           1438       74713.00    328696.10
  403.70        2965.75           1441       78418.00    345155.30
  403.73        2966.00           1445       84791.00    373502.60
  403.76        2966.25           1448       89169.00    393002.40
  403.79        2966.50           1451       92160.00    406336.70
  403.82        2966.75           1455       93925.00    414210.00
  403.85        2967.00           1458       93910.00    414143.10
  403.88        2967.25           1461       94559.00    417039.00
  403.91        2967.50           1465       93684.00    413134.70
  403.94        2967.75           1468       92623.00    408401.70
  403.97        2968.00           1471       90520.00    399024.10
  404.00        2968.25           1475       86083.00    379255.00
  404.03        2968.50           1478       82791.00    364601.70
  404.06        2968.75           1481       78464.00    345359.80
  404.09        2969.00           1485       73110.00    321579.60
  404.12        2969.25           1488       68338.00    300411.30
  404.15        2969.50           1491       63425.00    278643.80
  404.18        2969.75           1495       58530.00    256982.40
  404.21        2970.00           1498       54097.00    237388.30
  404.24        2970.25           1501       49679.00    217881.90
  404.27        2970.50           1505       43777.00    191856.60
  404.30        2970.75           1508       39015.00    170885.90
  404.33        2971.00           1511       34752.00    152133.60
  404.36        2971.25           1515       29661.00    129764.90
  404.39        2971.50           1518       25541.00    111683.10
  404.42        2971.75           1521       22091.00     96555.81
  404.45        2972.00           1525       15381.00     67171.11
  404.48        2972.25           1528       10882.00     47495.99
  404.51        2972.50           1531        6646.00     28990.83
  404.54        2972.75           1535        2151.00      9375.17
  404.57        2973.00           1538         791.00      3444.53
  404.60        2973.25           1541         347.00      1508.78
  404.63        2973.50           1544         259.00      1125.14
  404.66        2973.75           1548         233.00      1011.80
  404.69        2974.00           1551         219.00       950.77
  404.72        2974.25           1554         215.00       933.33
  404.75        2974.50           1558         179.00       776.39
  404.78        2974.75           1561         182.00       789.47
  404.81        2975.00           1564         174.00       754.59
  404.84        2975.25           1568         175.00       758.95
  404.87        2975.50           1571         164.00       711.00
  404.90        2975.75           1574         160.00       693.56
  404.93        2976.00           1578         165.00       715.36
  404.96        2976.25           1581         159.00       689.20
  404.99        2976.50           1584         174.00       754.59
  405.02        2976.75           1588         158.00       684.84
  405.05        2977.00           1591         151.00       654.33
  405.08        2977.25           1595         173.00       750.23
  405.10        2977.50           1598         167.00       724.08
  405.14        2977.75           1601         168.00       728.44
  405.17        2978.00           1605         178.00       772.03
  405.19        2978.25           1608         158.00       684.84
  405.23        2978.50           1611         159.00       689.20
  405.25        2978.75           1615         172.00       745.87
  405.28        2979.00           1618         155.00       671.77
  405.31        2979.25           1621         152.00       658.69
  405.34        2979.50           1625         149.00       645.61
  405.37        2979.75           1628         157.00       680.48
  405.40        2980.00           1631         155.00       671.77
  405.43        2980.25           1635         149.00       645.61
  405.46        2980.50           1638         156.00       676.12
  405.49        2980.75           1641         149.00       645.61
  405.52        2981.00           1645         155.00       671.77
  405.55        2981.25           1648         161.00       697.92
  405.58        2981.50           1651         156.00       676.12
  405.61        2981.75           1655         156.00       676.12
  405.64        2982.00           1658         156.00       676.12
  405.67        2982.25           1661         147.00       636.89
  405.70        2982.50           1665         144.00       623.81
  405.73        2982.75           1668         155.00       671.77
  405.76        2983.00           1671         153.00       663.05
  405.79        2983.25           1675         149.00       645.61
  405.82        2983.50           1678         162.00       702.28
  405.85        2983.75           1681         166.00       719.72
  405.88        2984.00           1685         138.00       597.66
HS scan finished at 06:46:11
end
************************************************************
  HS Scan of (1) Internal mercury lamp
************************************************************
Integration time is 0.2294 seconds per sample
dh110818Delft 52.017-4.35 3.340665pr1000
************************************************************
Dead Time -------------------------  2.8E-08 
Number of Cycles Used -------------  4 
Starting Wavelength (Angstroms) ---  2950 
Final Wavelength (Angstoms) -------  2984 
Wavelength Increment (Angstroms) --  .25 
Filter Wheel #1 Position ---------- (1) Ground quartz diffuser (ND=2.32)
Filter Wheel #2 Position ---------- (1) Neutral Density 0.494



************************************************************
HS scan start time = 08:28:34
Dark Count =  .8 


Time (GMT)  Wavelength (Ang)  Step Number  Raw Counts  Counts/Second

  509.02        2950.00           1232         200.00       868.37
  509.12        2950.25           1236         176.00       763.75
  509.15        2950.50           1239         174.00       755.03
  509.18        2950.75           1242         195.00       846.58
  509.21        2951.00           1246         195.00       846.58
  509.24        2951.25           1249         186.00       807.34
  509.27        2951.50           1252         182.00       789.90
  509.30        2951.75           1256         194.00       842.22
  509.32        2952.00           1259         177.00       768.11
  509.36        2952.25           1262         171.00       741.95
  509.39        2952.50           1265         183.00       794.26
  509.41        2952.75           1269         184.00       798.62
  509.45        2953.00           1272         173.00       750.67
  509.47        2953.25           1275         178.00       772.47
  509.50        2953.50           1279         188.00       816.06
  509.54        2953.75           1282         188.00       816.06
  509.56        2954.00           1285         171.00       741.95
  509.59        2954.25           1289         179.00       776.83
  509.62        2954.50           1292         180.00       781.19
  509.65        2954.75           1295         177.00       768.11
  509.68        2955.00           1299         178.00       772.47
  509.71        2955.25           1302         184.00       798.62
  509.74        2955.50           1305         174.00       755.03
  509.77        2955.75           1309         189.00       820.42
  509.80        2956.00           1312         184.00       798.62
  509.83        2956.25           1315         174.00       755.03
  509.86        2956.50           1318         178.00       772.47
  509.89        2956.75           1322         176.00       763.75
  509.92        2957.00           1325         177.00       768.11
  509.95        2957.25           1328         179.00       776.83
  509.98        2957.50           1332         177.00       768.11
  510.01        2957.75           1335         181.00       785.54
  510.04        2958.00           1338         173.00       750.67
  510.07        2958.25           1342         192.00       833.50
  510.10        2958.50           1345         174.00       755.03
  510.13        2958.75           1348         178.00       772.47
  510.16        2959.00           1352         165.00       715.79
  510.19        2959.25           1355         183.00       794.26
  510.22        2959.50           1358         180.00       781.19
  510.25        2959.75           1362         165.00       715.79
  510.28        2960.00           1365         180.00       781.19
  510.31        2960.25           1368         179.00       776.83
  510.34        2960.50           1372         196.00       850.94
  510.37        2960.75           1375         203.00       881.45
  510.40        2961.00           1378         215.00       933.76
  510.43        2961.25           1382         287.00      1247.65
  510.46        2961.50           1385        1121.00      4883.84
  510.49        2961.75           1388        3072.00     13392.99
  510.52        2962.00           1391        5602.00     24433.45
  510.55        2962.25           1395       10541.00     46006.05
  510.58        2962.50           1398       14975.00     65395.14
  510.61        2962.75           1401       19453.00     84998.04
  510.64        2963.00           1405       26199.00    114570.10
  510.67        2963.25           1408       30815.00    134833.30
  510.70        2963.50           1411       34355.00    150388.70
  510.73        2963.75           1415       40811.00    178792.60
  510.76        2964.00           1418       45423.00    199111.40
  510.79        2964.25           1421       49922.00    218954.60
  510.82        2964.50           1425       56018.00    245877.00
  510.85        2964.75           1428       59968.00    263343.50
  510.88        2965.00           1431       64437.00    283125.80
  510.91        2965.25           1435       70820.00    311418.60
  510.94        2965.50           1438       75080.00    330326.30
  510.97        2965.75           1441       79349.00    349294.10
  511.00        2966.00           1445       85861.00    378266.90
  511.03        2966.25           1448       90181.00    397513.30
  511.06        2966.50           1451       92942.00    409825.00
  511.09        2966.75           1455       93903.00    414112.30
  511.12        2967.00           1458       94055.00    414790.50
  511.15        2967.25           1461       94209.00    415477.60
  511.18        2967.50           1465       94272.00    415758.70
  511.21        2967.75           1468       93380.00    411778.90
  511.24        2968.00           1471       91516.00    403465.20
  511.27        2968.25           1475       86475.00    381001.10
  511.30        2968.50           1478       82341.00    362600.00
  511.33        2968.75           1481       78007.00    343329.20
  511.36        2969.00           1485       72595.00    319294.30
  511.39        2969.25           1488       68241.00    299981.70
  511.42        2969.50           1491       63894.00    280721.00
  511.45        2969.75           1495       58096.00    255063.60
  511.48        2970.00           1498       53521.00    234844.30
  511.51        2970.25           1501       49755.00    218217.70
  511.54        2970.50           1505       44138.00    193447.80
  511.57        2970.75           1508       40086.00    175600.60
  511.60        2971.00           1511       35246.00    154306.10
  511.63        2971.25           1515       29390.00    128575.40
  511.66        2971.50           1518       25456.00    111310.60
  511.69        2971.75           1521       20855.00     91139.87
  511.72        2972.00           1525       15341.00     66996.53
  511.75        2972.25           1528       11185.00     48820.84
  511.78        2972.50           1531        7157.00     31222.58
  511.81        2972.75           1535        2301.00     10029.84
  511.84        2973.00           1538         886.00      3859.18
  511.87        2973.25           1541         435.00      1892.86
  511.90        2973.50           1544         262.00      1138.66
  511.93        2973.75           1548         241.00      1047.11
  511.96        2974.00           1551         216.00       938.12
  511.99        2974.25           1554         200.00       868.37
  512.02        2974.50           1558         189.00       820.42
  512.05        2974.75           1561         187.00       811.70
  512.08        2975.00           1564         166.00       720.15
  512.11        2975.25           1568         174.00       755.03
  512.14        2975.50           1571         172.00       746.31
  512.17        2975.75           1574         165.00       715.79
  512.20        2976.00           1578         171.00       741.95
  512.23        2976.25           1581         148.00       641.69
  512.26        2976.50           1584         158.00       685.28
  512.29        2976.75           1588         158.00       685.28
  512.32        2977.00           1591         168.00       728.87
  512.35        2977.25           1595         166.00       720.15
  512.38        2977.50           1598         156.00       676.56
  512.41        2977.75           1601         152.00       659.12
  512.44        2978.00           1605         162.00       702.72
  512.47        2978.25           1608         176.00       763.75
  512.50        2978.50           1611         160.00       694.00
  512.52        2978.75           1615         163.00       707.08
  512.55        2979.00           1618         164.00       711.44
  512.58        2979.25           1621         151.00       654.76
  512.61        2979.50           1625         159.00       689.64
  512.64        2979.75           1628         154.00       667.84
  512.67        2980.00           1631         164.00       711.44
  512.70        2980.25           1635         158.00       685.28
  512.73        2980.50           1638         171.00       741.95
  512.76        2980.75           1641         159.00       689.64
  512.79        2981.00           1645         163.00       707.08
  512.82        2981.25           1648         160.00       694.00
  512.85        2981.50           1651         162.00       702.72
  512.88        2981.75           1655         143.00       619.89
  512.91        2982.00           1658         161.00       698.36
  512.94        2982.25           1661         162.00       702.72
  512.97        2982.50           1665         156.00       676.56
  513.00        2982.75           1668         150.00       650.40
  513.03        2983.00           1671         146.00       632.97
  513.06        2983.25           1675         163.00       707.08
  513.09        2983.50           1678         166.00       720.15
  513.12        2983.75           1681         149.00       646.04
  513.15        2984.00           1685         150.00       650.40
HS scan finished at 08:33:27
end
************************************************************
  HS Scan of (1) Internal mercury lamp
************************************************************
Integration time is 0.2294 seconds per sample
dh110818Delft 52.017-4.35 3.340665pr1000
************************************************************
Dead Time -------------------------  2.8E-08 
Number of Cycles Used -------------  4 
Starting Wavelength (Angstroms) ---  2950 
Final Wavelength (Angstoms) -------  2984 
Wavelength Increment (Angstroms) --  .25 
Filter Wheel #1 Position ---------- (1) Ground quartz diffuser (ND=2.32)
Filter Wheel #2 Position ---------- (1) Neutral Density 0.494



************************************************************
HS scan start time = 10:15:49
Dark Count =  .7 


Time (GMT)  Wavelength (Ang)  Step Number  Raw Counts  Counts/Second

  616.28        2950.00           1232         180.00       781.62
  616.38        2950.25           1236         177.00       768.54
  616.41        2950.50           1239         168.00       729.31
  616.44        2950.75           1242         181.00       785.98
  616.47        2951.00           1246         182.00       790.34
  616.50        2951.25           1249         182.00       790.34
  616.53        2951.50           1252         172.00       746.75
  616.56        2951.75           1256         176.00       764.18
  616.59        2952.00           1259         178.00       772.90
  616.62        2952.25           1262         180.00       781.62
  616.65        2952.50           1265         181.00       785.98
  616.68        2952.75           1269         181.00       785.98
  616.71        2953.00           1272         192.00       833.93
  616.74        2953.25           1275         168.00       729.31
  616.77        2953.50           1279         181.00       785.98
  616.80        2953.75           1282         186.00       807.78
  616.83        2954.00           1285         179.00       777.26
  616.86        2954.25           1289         171.00       742.39
  616.89        2954.50           1292         173.00       751.11
  616.92        2954.75           1295         174.00       755.46
  616.95        2955.00           1299         179.00       777.26
  616.98        2955.25           1302         184.00       799.06
  617.01        2955.50           1305         171.00       742.39
  617.03        2955.75           1309         168.00       729.31
  617.07        2956.00           1312         177.00       768.54
  617.09        2956.25           1315         167.00       724.95
  617.12        2956.50           1318         177.00       768.54
  617.16        2956.75           1322         165.00       716.23
  617.18        2957.00           1325         179.00       777.26
  617.21        2957.25           1328         177.00       768.54
  617.24        2957.50           1332         176.00       764.18
  617.27        2957.75           1335         177.00       768.54
  617.30        2958.00           1338         168.00       729.31
  617.33        2958.25           1342         185.00       803.42
  617.36        2958.50           1345         173.00       751.11
  617.39        2958.75           1348         193.00       838.29
  617.42        2959.00           1352         183.00       794.70
  617.45        2959.25           1355         174.00       755.46
  617.48        2959.50           1358         177.00       768.54
  617.51        2959.75           1362         160.00       694.43
  617.54        2960.00           1365         179.00       777.26
  617.57        2960.25           1368         188.00       816.50
  617.60        2960.50           1372         197.00       855.73
  617.63        2960.75           1375         206.00       894.97
  617.66        2961.00           1378         216.00       938.56
  617.69        2961.25           1382         272.00      1182.69
  617.72        2961.50           1385         865.00      3768.05
  617.75        2961.75           1388        2660.00     11596.18
  617.78        2962.00           1391        6015.00     26236.79
  617.81        2962.25           1395       11253.00     49118.51
  617.84        2962.50           1398       15030.00     65636.21
  617.87        2962.75           1401       19000.00     83014.45
  617.90        2963.00           1405       25452.00    111293.50
  617.93        2963.25           1408       30780.00    134680.00
  617.96        2963.50           1411       35482.00    155344.20
  617.99        2963.75           1415       41071.00    179937.90
  618.02        2964.00           1418       45018.00    197326.60
  618.05        2964.25           1421       49657.00    217785.70
  618.08        2964.50           1425       56160.00    246505.10
  618.11        2964.75           1428       60474.00    265582.70
  618.14        2965.00           1431       65464.00    287675.40
  618.17        2965.25           1435       71783.00    315691.50
  618.20        2965.50           1438       76051.00    334639.20
  618.23        2965.75           1441       80475.00    354300.90
  618.26        2966.00           1445       86262.00    380053.00
  618.29        2966.25           1448       90248.00    397812.40
  618.32        2966.50           1451       92835.00    409348.10
  618.35        2966.75           1455       94095.00    414969.40
  618.38        2967.00           1458       94532.00    416919.40
  618.41        2967.25           1461       94248.00    415652.00
  618.44        2967.50           1465       94225.00    415549.50
  618.47        2967.75           1468       93112.00    410583.80
  618.50        2968.00           1471       91443.00    403140.10
  618.53        2968.25           1475       86815.00    382515.80
  618.56        2968.50           1478       82800.00    364642.60
  618.59        2968.75           1481       78558.00    345778.40
  618.62        2969.00           1485       72568.00    319175.00
  618.65        2969.25           1488       68569.00    301436.30
  618.68        2969.50           1491       65036.00    285779.40
  618.71        2969.75           1495       59760.00    262423.80
  618.74        2970.00           1498       55445.00    243345.10
  618.77        2970.25           1501       50488.00    221453.10
  618.80        2970.50           1505       44463.00    194880.50
  618.83        2970.75           1508       39456.00    172827.80
  618.86        2971.00           1511       34568.00    151325.50
  618.89        2971.25           1515       29467.00    128913.90
  618.91        2971.50           1518       25457.00    111315.50
  618.95        2971.75           1521       20667.00     90316.62
  618.98        2972.00           1525       14881.00     64984.31
  619.00        2972.25           1528       11316.00     49393.90
  619.04        2972.50           1531        7703.00     33607.46
  619.06        2972.75           1535        2833.00     12350.83
  619.09        2973.00           1538         990.00      4313.08
  619.13        2973.25           1541         375.00      1631.72
  619.15        2973.50           1544         257.00      1117.30
  619.18        2973.75           1548         226.00       982.15
  619.21        2974.00           1551         224.00       973.44
  619.24        2974.25           1554         203.00       881.89
  619.27        2974.50           1558         192.00       833.93
  619.30        2974.75           1561         174.00       755.46
  619.33        2975.00           1564         179.00       777.26
  619.36        2975.25           1568         174.00       755.46
  619.39        2975.50           1571         172.00       746.75
  619.42        2975.75           1574         162.00       703.15
  619.45        2976.00           1578         163.00       707.51
  619.48        2976.25           1581         161.00       698.79
  619.51        2976.50           1584         156.00       677.00
  619.54        2976.75           1588         159.00       690.07
  619.57        2977.00           1591         164.00       711.87
  619.60        2977.25           1595         157.00       681.36
  619.63        2977.50           1598         160.00       694.43
  619.66        2977.75           1601         160.00       694.43
  619.69        2978.00           1605         155.00       672.64
  619.72        2978.25           1608         162.00       703.15
  619.75        2978.50           1611         170.00       738.03
  619.78        2978.75           1615         162.00       703.15
  619.81        2979.00           1618         171.00       742.39
  619.84        2979.25           1621         159.00       690.07
  619.87        2979.50           1625         153.00       663.92
  619.90        2979.75           1628         155.00       672.64
  619.93        2980.00           1631         160.00       694.43
  619.96        2980.25           1635         145.00       629.04
  619.99        2980.50           1638         149.00       646.48
  620.02        2980.75           1641         155.00       672.64
  620.05        2981.00           1645         155.00       672.64
  620.08        2981.25           1648         160.00       694.43
  620.11        2981.50           1651         169.00       733.67
  620.14        2981.75           1655         159.00       690.07
  620.17        2982.00           1658         164.00       711.87
  620.20        2982.25           1661         158.00       685.71
  620.23        2982.50           1665         158.00       685.71
  620.26        2982.75           1668         160.00       694.43
  620.29        2983.00           1671         158.00       685.71
  620.32        2983.25           1675         153.00       663.92
  620.35        2983.50           1678         156.00       677.00
  620.38        2983.75           1681         146.00       633.40
  620.41        2984.00           1685         155.00       672.64
HS scan finished at 10:20:43
end
************************************************************
  HS Scan of (1) Internal mercury lamp
************************************************************
Integration time is 0.2294 seconds per sample
dh110818Delft 52.017-4.35 3.340665pr1000
************************************************************
Dead Time -------------------------  2.8E-08 
Number of Cycles Used -------------  4 
Starting Wavelength (Angstroms) ---  2950 
Final Wavelength (Angstoms) -------  2984 
Wavelength Increment (Angstroms) --  .25 
Filter Wheel #1 Position ---------- (1) Ground quartz diffuser (ND=2.32)
Filter Wheel #2 Position ---------- (1) Neutral Density 0.494



************************************************************
HS scan start time = 12:03:06
Dark Count =  .9 


Time (GMT)  Wavelength (Ang)  Step Number  Raw Counts  Counts/Second

  723.56        2950.00           1232         191.00       828.70
  723.66        2950.25           1236         179.00       776.39
  723.69        2950.50           1239         186.00       806.91
  723.72        2950.75           1242         183.00       793.83
  723.75        2951.00           1246         183.00       793.83
  723.78        2951.25           1249         182.00       789.47
  723.81        2951.50           1252         173.00       750.23
  723.84        2951.75           1256         179.00       776.39
  723.87        2952.00           1259         175.00       758.95
  723.90        2952.25           1262         184.00       798.19
  723.93        2952.50           1265         169.00       732.80
  723.96        2952.75           1269         187.00       811.27
  723.99        2953.00           1272         172.00       745.87
  724.02        2953.25           1275         181.00       785.11
  724.05        2953.50           1279         175.00       758.95
  724.08        2953.75           1282         187.00       811.27
  724.11        2954.00           1285         181.00       785.11
  724.13        2954.25           1289         177.00       767.67
  724.17        2954.50           1292         183.00       793.83
  724.19        2954.75           1295         181.00       785.11
  724.22        2955.00           1299         182.00       789.47
  724.26        2955.25           1302         179.00       776.39
  724.28        2955.50           1305         164.00       711.00
  724.31        2955.75           1309         187.00       811.27
  724.34        2956.00           1312         187.00       811.27
  724.37        2956.25           1315         171.00       741.52
  724.40        2956.50           1318         170.00       737.16
  724.43        2956.75           1322         172.00       745.87
  724.46        2957.00           1325         192.00       833.06
  724.49        2957.25           1328         180.00       780.75
  724.52        2957.50           1332         181.00       785.11
  724.55        2957.75           1335         171.00       741.52
  724.58        2958.00           1338         187.00       811.27
  724.61        2958.25           1342         167.00       724.08
  724.64        2958.50           1345         171.00       741.52
  724.67        2958.75           1348         170.00       737.16
  724.70        2959.00           1352         181.00       785.11
  724.73        2959.25           1355         167.00       724.08
  724.76        2959.50           1358         183.00       793.83
  724.79        2959.75           1362         177.00       767.67
  724.82        2960.00           1365         169.00       732.80
  724.85        2960.25           1368         182.00       789.47
  724.88        2960.50           1372         188.00       815.62
  724.91        2960.75           1375         207.00       898.45
  724.94        2961.00           1378         217.00       942.05
  724.97        2961.25           1382         306.00      1330.04
  725.00        2961.50           1385         945.00      4115.99
  725.03        2961.75           1388        2680.00     11682.55
  725.06        2962.00           1391        5624.00     24529.05
  725.09        2962.25           1395       11097.00     48435.74
  725.12        2962.50           1398       15585.00     68063.77
  725.15        2962.75           1401       19794.00     86491.25
  725.18        2963.00           1405       25054.00    109546.90
  725.21        2963.25           1408       30044.00    131446.70
  725.24        2963.50           1411       34997.00    153210.80
  725.27        2963.75           1415       41414.00    181447.40
  725.30        2964.00           1418       46064.00    201936.80
  725.33        2964.25           1421       50981.00    223628.30
  725.36        2964.50           1425       56935.00    249930.00
  725.39        2964.75           1428       61810.00    271494.20
  725.42        2965.00           1431       66071.00    290363.80
  725.45        2965.25           1435       71642.00    315065.00
  725.48        2965.50           1438       76060.00    334678.30
  725.51        2965.75           1441       79794.00    351272.00
  725.54        2966.00           1445       84583.00    372576.70
  725.57        2966.25           1448       89339.00    393759.90
  725.60        2966.50           1451       93026.00    410199.30
  725.63        2966.75           1455       94174.00    415321.00
  725.66        2967.00           1458       94739.00    417842.30
  725.69        2967.25           1461       95100.00    419453.30
  725.72        2967.50           1465       94686.00    417605.70
  725.75        2967.75           1468       94052.00    414776.60
  725.78        2968.00           1471       91728.00    404410.10
  725.81        2968.25           1475       87740.00    386635.20
  725.84        2968.50           1478       84304.00    371334.80
  725.87        2968.75           1481       80083.00    352557.00
  725.90        2969.00           1485       74924.00    329633.10
  725.93        2969.25           1488       70325.00    309222.50
  725.96        2969.50           1491       65223.00    286606.90
  725.99        2969.75           1495       59076.00    259397.30
  726.02        2970.00           1498       54361.00    238554.60
  726.05        2970.25           1501       50108.00    219775.10
  726.08        2970.50           1505       44265.00    194007.00
  726.11        2970.75           1508       39419.00    172664.10
  726.14        2971.00           1511       34693.00    151874.20
  726.17        2971.25           1515       29976.00    131148.10
  726.20        2971.50           1518       25911.00    113306.20
  726.23        2971.75           1521       21745.00     95039.41
  726.26        2972.00           1525       15707.00     68597.63
  726.29        2972.25           1528       10660.00     46525.70
  726.32        2972.50           1531        6380.00     27829.44
  726.35        2972.75           1535        2224.00      9693.56
  726.38        2973.00           1538         822.00      3579.70
  726.41        2973.25           1541         386.00      1678.81
  726.44        2973.50           1544         260.00      1129.50
  726.47        2973.75           1548         228.00       990.00
  726.50        2974.00           1551         228.00       990.00
  726.53        2974.25           1554         199.00       863.58
  726.56        2974.50           1558         191.00       828.70
  726.59        2974.75           1561         176.00       763.31
  726.62        2975.00           1564         182.00       789.47
  726.65        2975.25           1568         165.00       715.36
  726.68        2975.50           1571         156.00       676.12
  726.71        2975.75           1574         163.00       706.64
  726.74        2976.00           1578         180.00       780.75
  726.77        2976.25           1581         156.00       676.12
  726.80        2976.50           1584         155.00       671.77
  726.83        2976.75           1588         158.00       684.84
  726.86        2977.00           1591         165.00       715.36
  726.89        2977.25           1595         161.00       697.92
  726.92        2977.50           1598         162.00       702.28
  726.95        2977.75           1601         175.00       758.95
  726.98        2978.00           1605         162.00       702.28
  727.01        2978.25           1608         164.00       711.00
  727.04        2978.50           1611         156.00       676.12
  727.07        2978.75           1615         165.00       715.36
  727.10        2979.00           1618         159.00       689.20
  727.13        2979.25           1621         143.00       619.45
  727.15        2979.50           1625         144.00       623.81
  727.18        2979.75           1628         149.00       645.61
  727.21        2980.00           1631         155.00       671.77
  727.24        2980.25           1635         152.00       658.69
  727.27        2980.50           1638         161.00       697.92
  727.30        2980.75           1641         151.00       654.33
  727.33        2981.00           1645         155.00       671.77
  727.36        2981.25           1648         156.00       676.12
  727.39        2981.50           1651         153.00       663.05
  727.42        2981.75           1655         151.00       654.33
  727.45        2982.00           1658         161.00       697.92
  727.48        2982.25           1661         162.00       702.28
  727.51        2982.50           1665         151.00       654.33
  727.54        2982.75           1668         152.00       658.69
  727.57        2983.00           1671         153.00       663.05
  727.60        2983.25           1675         144.00       623.81
  727.63        2983.50           1678         144.00       623.81
  727.66        2983.75           1681         157.00       680.48
  727.69        2984.00           1685         153.00       663.05
HS scan finished at 12:08:00
end
************************************************************
  HS Scan of (1) Internal mercury lamp
************************************************************
Integration time is 0.2294 seconds per sample
dh110818Delft 52.017-4.35 3.394313pr1000
************************************************************
Dead Time -------------------------  2.8E-08 
Number of Cycles Used -------------  4 
Starting Wavelength (Angstroms) ---  2950 
Final Wavelength (Angstoms) -------  2984 
Wavelength Increment (Angstroms) --  .25 
Filter Wheel #1 Position ---------- (1) Ground quartz diffuser (ND=2.32)
Filter Wheel #2 Position ---------- (1) Neutral Density 0.494



************************************************************
HS scan start time = 13:50:22
Dark Count =  .7 


Time (GMT)  Wavelength (Ang)  Step Number  Raw Counts  Counts/Second

  830.82        2950.00           1232         174.00       755.46
  830.92        2950.25           1236         174.00       755.46
  830.95        2950.50           1239         185.00       803.42
  830.98        2950.75           1242         182.00       790.34
  831.01        2951.00           1246         173.00       751.11
  831.04        2951.25           1249         176.00       764.18
  831.07        2951.50           1252         171.00       742.39
  831.10        2951.75           1256         178.00       772.90
  831.13        2952.00           1259         187.00       812.14
  831.16        2952.25           1262         172.00       746.75
  831.19        2952.50           1265         180.00       781.62
  831.22        2952.75           1269         183.00       794.70
  831.25        2953.00           1272         173.00       751.11
  831.28        2953.25           1275         176.00       764.18
  831.31        2953.50           1279         186.00       807.78
  831.34        2953.75           1282         188.00       816.50
  831.37        2954.00           1285         191.00       829.57
  831.40        2954.25           1289         172.00       746.75
  831.43        2954.50           1292         181.00       785.98
  831.46        2954.75           1295         179.00       777.26
  831.49        2955.00           1299         166.00       720.59
  831.52        2955.25           1302         165.00       716.23
  831.55        2955.50           1305         179.00       777.26
  831.58        2955.75           1309         182.00       790.34
  831.61        2956.00           1312         174.00       755.46
  831.64        2956.25           1315         177.00       768.54
  831.67        2956.50           1318         177.00       768.54
  831.70        2956.75           1322         172.00       746.75
  831.73        2957.00           1325         171.00       742.39
  831.76        2957.25           1328         187.00       812.14
  831.79        2957.50           1332         182.00       790.34
  831.82        2957.75           1335         172.00       746.75
  831.85        2958.00           1338         176.00       764.18
  831.88        2958.25           1342         176.00       764.18
  831.91        2958.50           1345         172.00       746.75
  831.94        2958.75           1348         173.00       751.11
  831.97        2959.00           1352         178.00       772.90
  832.00        2959.25           1355         164.00       711.87
  832.03        2959.50           1358         174.00       755.46
  832.06        2959.75           1362         178.00       772.90
  832.09        2960.00           1365         181.00       785.98
  832.12        2960.25           1368         186.00       807.78
  832.15        2960.50           1372         182.00       790.34
  832.18        2960.75           1375         208.00       903.68
  832.20        2961.00           1378         215.00       934.20
  832.24        2961.25           1382         290.00      1261.16
  832.27        2961.50           1385        1085.00      4727.30
  832.29        2961.75           1388        2686.00     11709.59
  832.33        2962.00           1391        5571.00     24298.57
  832.36        2962.25           1395       11467.00     50053.98
  832.38        2962.50           1398       15794.00     68979.23
  832.42        2962.75           1401       19989.00     87346.32
  832.45        2963.00           1405       26810.00    117251.40
  832.48        2963.25           1408       31583.00    138207.30
  832.51        2963.50           1411       35969.00    157485.90
  832.54        2963.75           1415       42534.00    186381.20
  832.56        2964.00           1418       47269.00    207251.10
  832.60        2964.25           1421       51642.00    226547.20
  832.63        2964.50           1425       56448.00    247778.10
  832.65        2964.75           1428       60971.00    267781.90
  832.69        2965.00           1431       65611.00    288326.60
  832.72        2965.25           1435       70963.00    312053.50
  832.75        2965.50           1438       75679.00    332986.90
  832.78        2965.75           1441       80156.00    352882.40
  832.81        2966.00           1445       84969.00    374295.90
  832.83        2966.25           1448       89583.00    394848.30
  832.87        2966.50           1451       92907.00    409669.30
  832.90        2966.75           1455       94304.00    415901.90
  832.92        2967.00           1458       94366.00    416178.60
  832.96        2967.25           1461       95007.00    419039.10
  832.98        2967.50           1465       95026.00    419124.00
  833.01        2967.75           1468       94081.00    414906.90
  833.05        2968.00           1471       92327.00    407082.40
  833.07        2968.25           1475       88246.00    388890.40
  833.10        2968.50           1478       83478.00    367659.50
  833.14        2968.75           1481       79136.00    348347.60
  833.16        2969.00           1485       73281.00    322339.50
  833.19        2969.25           1488       69078.00    303693.10
  833.22        2969.50           1491       64614.00    283910.20
  833.25        2969.75           1495       58562.00    257124.90
  833.28        2970.00           1498       54761.00    240322.70
  833.31        2970.25           1501       50808.00    222865.50
  833.34        2970.50           1505       44709.00    195964.70
  833.37        2970.75           1508       40205.00    176124.90
  833.40        2971.00           1511       35211.00    154152.60
  833.43        2971.25           1515       28979.00    126771.30
  833.46        2971.50           1518       24858.00    108688.20
  833.49        2971.75           1521       20826.00     91013.25
  833.52        2972.00           1525       15144.00     66135.00
  833.55        2972.25           1528       10775.00     47029.20
  833.58        2972.50           1531        6332.00     27620.74
  833.61        2972.75           1535        2110.00      9197.22
  833.64        2973.00           1538         798.00      3475.93
  833.67        2973.25           1541         362.00      1575.05
  833.70        2973.50           1544         250.00      1086.78
  833.73        2973.75           1548         225.00       977.79
  833.76        2974.00           1551         210.00       912.40
  833.79        2974.25           1554         209.00       908.04
  833.82        2974.50           1558         188.00       816.50
  833.85        2974.75           1561         178.00       772.90
  833.88        2975.00           1564         171.00       742.39
  833.91        2975.25           1568         168.00       729.31
  833.94        2975.50           1571         163.00       707.51
  833.97        2975.75           1574         150.00       650.84
  834.00        2976.00           1578         157.00       681.36
  834.03        2976.25           1581         165.00       716.23
  834.06        2976.50           1584         154.00       668.28
  834.09        2976.75           1588         175.00       759.82
  834.12        2977.00           1591         164.00       711.87
  834.15        2977.25           1595         169.00       733.67
  834.18        2977.50           1598         170.00       738.03
  834.21        2977.75           1601         161.00       698.79
  834.24        2978.00           1605         157.00       681.36
  834.27        2978.25           1608         154.00       668.28
  834.30        2978.50           1611         162.00       703.15
  834.33        2978.75           1615         160.00       694.43
  834.36        2979.00           1618         156.00       677.00
  834.39        2979.25           1621         155.00       672.64
  834.42        2979.50           1625         150.00       650.84
  834.45        2979.75           1628         152.00       659.56
  834.48        2980.00           1631         151.00       655.20
  834.51        2980.25           1635         160.00       694.43
  834.54        2980.50           1638         160.00       694.43
  834.57        2980.75           1641         153.00       663.92
  834.60        2981.00           1645         154.00       668.28
  834.63        2981.25           1648         142.00       615.97
  834.66        2981.50           1651         164.00       711.87
  834.69        2981.75           1655         149.00       646.48
  834.72        2982.00           1658         152.00       659.56
  834.75        2982.25           1661         158.00       685.71
  834.78        2982.50           1665         137.00       594.17
  834.81        2982.75           1668         153.00       663.92
  834.84        2983.00           1671         143.00       620.32
  834.87        2983.25           1675         148.00       642.12
  834.89        2983.50           1678         139.00       602.89
  834.93        2983.75           1681         151.00       655.20
  834.95        2984.00           1685         151.00       655.20
HS scan finished at 13:55:16
end
************************************************************
  HS Scan of (1) Internal mercury lamp
************************************************************
Integration time is 0.2294 seconds per sample
dh110818Delft 52.017-4.35 3.394313pr1000
************************************************************
Dead Time -------------------------  2.8E-08 
Number of Cycles Used -------------  4 
Starting Wavelength (Angstroms) ---  2950 
Final Wavelength (Angstoms) -------  2984 
Wavelength Increment (Angstroms) --  .25 
Filter Wheel #1 Position ---------- (1) Ground quartz diffuser (ND=2.32)
Filter Wheel #2 Position ---------- (1) Neutral Density 0.494



************************************************************
HS scan start time = 15:37:38
Dark Count =  1.1 


Time (GMT)  Wavelength (Ang)  Step Number  Raw Counts  Counts/Second

  938.09        2950.00           1232         187.00       810.39
  938.19        2950.25           1236         176.00       762.44
  938.22        2950.50           1239         181.00       784.24
  938.25        2950.75           1242         177.00       766.80
  938.28        2951.00           1246         173.00       749.36
  938.31        2951.25           1249         166.00       718.85
  938.34        2951.50           1252         160.00       692.69
  938.37        2951.75           1256         175.00       758.08
  938.40        2952.00           1259         185.00       801.67
  938.43        2952.25           1262         167.00       723.21
  938.46        2952.50           1265         180.00       779.88
  938.49        2952.75           1269         179.00       775.52
  938.52        2953.00           1272         178.00       771.16
  938.55        2953.25           1275         163.00       705.77
  938.58        2953.50           1279         170.00       736.28
  938.61        2953.75           1282         182.00       788.60
  938.64        2954.00           1285         174.00       753.72
  938.67        2954.25           1289         178.00       771.16
  938.70        2954.50           1292         178.00       771.16
  938.73        2954.75           1295         175.00       758.08
  938.76        2955.00           1299         189.00       819.11
  938.79        2955.25           1302         180.00       779.88
  938.82        2955.50           1305         171.00       740.64
  938.85        2955.75           1309         173.00       749.36
  938.88        2956.00           1312         173.00       749.36
  938.91        2956.25           1315         166.00       718.85
  938.94        2956.50           1318         170.00       736.28
  938.97        2956.75           1322         179.00       775.52
  939.00        2957.00           1325         171.00       740.64
  939.03        2957.25           1328         175.00       758.08
  939.06        2957.50           1332         163.00       705.77
  939.09        2957.75           1335         175.00       758.08
  939.12        2958.00           1338         162.00       701.41
  939.15        2958.25           1342         173.00       749.36
  939.18        2958.50           1345         180.00       779.88
  939.21        2958.75           1348         160.00       692.69
  939.24        2959.00           1352         170.00       736.28
  939.27        2959.25           1355         183.00       792.96
  939.30        2959.50           1358         167.00       723.21
  939.33        2959.75           1362         168.00       727.56
  939.36        2960.00           1365         174.00       753.72
  939.39        2960.25           1368         186.00       806.03
  939.42        2960.50           1372         198.00       858.35
  939.45        2960.75           1375         211.00       915.02
  939.47        2961.00           1378         228.00       989.13
  939.51        2961.25           1382         293.00      1272.50
  939.53        2961.50           1385        1030.00      4485.74
  939.56        2961.75           1388        3153.00     13745.05
  939.60        2962.00           1391        6723.00     29326.16
  939.62        2962.25           1395       12207.00     53287.39
  939.65        2962.50           1398       16649.00     72719.41
  939.69        2962.75           1401       20811.00     90945.78
  939.72        2963.00           1405       27826.00    121708.30
  939.74        2963.25           1408       32517.00    142309.20
  939.78        2963.50           1411       36345.00    159137.80
  939.80        2963.75           1415       41953.00    183820.30
  939.83        2964.00           1418       46210.00    202579.60
  939.87        2964.25           1421       50825.00    222938.80
  939.89        2964.50           1425       57191.00    251060.80
  939.92        2964.75           1428       61324.00    269342.30
  939.95        2965.00           1431       65308.00    286982.50
  939.98        2965.25           1435       71154.00    312899.00
  940.01        2965.50           1438       75619.00    332718.60
  940.04        2965.75           1441       80811.00    355793.30
  940.07        2966.00           1445       85824.00    378100.80
  940.10        2966.25           1448       89674.00    395252.10
  940.13        2966.50           1451       92314.00    407022.60
  940.16        2966.75           1455       94618.00    417301.40
  940.19        2967.00           1458       94396.00    416310.70
  940.23        2967.25           1461       94660.00    417488.80
  940.25        2967.50           1465       94444.00    416524.90
  940.28        2967.75           1468       93145.00    410729.20
  940.31        2968.00           1471       90659.00    399642.80
  940.34        2968.25           1475       85984.00    378813.30
  940.37        2968.50           1478       81756.00    359996.30
  940.40        2968.75           1481       77335.00    340341.70
  940.43        2969.00           1485       72481.00    318787.10
  940.46        2969.25           1488       69271.00    304547.10
  940.49        2969.50           1491       64867.00    285029.00
  940.52        2969.75           1495       58597.00    257277.90
  940.55        2970.00           1498       53974.00    236844.00
  940.58        2970.25           1501       49441.00    216830.80
  940.61        2970.50           1505       43732.00    191657.40
  940.64        2970.75           1508       39117.00    171333.90
  940.67        2971.00           1511       34629.00    151591.90
  940.70        2971.25           1515       29287.00    128121.80
  940.73        2971.50           1518       24547.00    107322.50
  940.76        2971.75           1521       20279.00     88614.99
  940.79        2972.00           1525       15148.00     66150.75
  940.82        2972.25           1528       11152.00     48675.28
  940.85        2972.50           1531        7522.00     32815.23
  940.88        2972.75           1535        2231.00      9723.22
  940.91        2973.00           1538         709.00      3086.14
  940.94        2973.25           1541         319.00      1385.84
  940.97        2973.50           1544         247.00      1071.96
  941.00        2973.75           1548         230.00       997.85
  941.03        2974.00           1551         193.00       836.55
  941.06        2974.25           1554         205.00       888.86
  941.09        2974.50           1558         186.00       806.03
  941.12        2974.75           1561         176.00       762.44
  941.15        2975.00           1564         172.00       745.00
  941.18        2975.25           1568         161.00       697.05
  941.21        2975.50           1571         158.00       683.97
  941.24        2975.75           1574         160.00       692.69
  941.27        2976.00           1578         146.00       631.66
  941.30        2976.25           1581         153.00       662.17
  941.33        2976.50           1584         160.00       692.69
  941.36        2976.75           1588         158.00       683.97
  941.39        2977.00           1591         166.00       718.85
  941.42        2977.25           1595         143.00       618.58
  941.45        2977.50           1598         166.00       718.85
  941.48        2977.75           1601         162.00       701.41
  941.51        2978.00           1605         165.00       714.49
  941.54        2978.25           1608         149.00       644.74
  941.57        2978.50           1611         146.00       631.66
  941.60        2978.75           1615         165.00       714.49
  941.63        2979.00           1618         153.00       662.17
  941.66        2979.25           1621         153.00       662.17
  941.69        2979.50           1625         153.00       662.17
  941.72        2979.75           1628         157.00       679.61
  941.75        2980.00           1631         166.00       718.85
  941.78        2980.25           1635         158.00       683.97
  941.81        2980.50           1638         142.00       614.22
  941.84        2980.75           1641         158.00       683.97
  941.87        2981.00           1645         144.00       622.94
  941.90        2981.25           1648         154.00       666.53
  941.93        2981.50           1651         152.00       657.82
  941.96        2981.75           1655         155.00       670.89
  941.99        2982.00           1658         162.00       701.41
  942.02        2982.25           1661         139.00       601.14
  942.05        2982.50           1665         143.00       618.58
  942.08        2982.75           1668         151.00       653.46
  942.11        2983.00           1671         159.00       688.33
  942.14        2983.25           1675         151.00       653.46
  942.17        2983.50           1678         156.00       675.25
  942.20        2983.75           1681         153.00       662.17
  942.23        2984.00           1685         139.00       601.14
HS scan finished at 15:42:32
end
************************************************************
  HS Scan of (1) Internal mercury lamp
************************************************************
Integration time is 0.2294 seconds per sample
dh110818Delft 52.017-4.35 3.447962pr1000
************************************************************
Dead Time -------------------------  2.8E-08 
Number of Cycles Used -------------  4 
Starting Wavelength (Angstroms) ---  2950 
Final Wavelength (Angstoms) -------  2984 
Wavelength Increment (Angstroms) --  .25 
Filter Wheel #1 Position ---------- (1) Ground quartz diffuser (ND=2.32)
Filter Wheel #2 Position ---------- (1) Neutral Density 0.494



************************************************************
HS scan start time = 17:24:55
Dark Count =  1.3 


Time (GMT)  Wavelength (Ang)  Step Number  Raw Counts  Counts/Second

 1045.37        2950.00           1232         169.00       731.05
 1045.47        2950.25           1236         165.00       713.62
 1045.50        2950.50           1239         173.00       748.49
 1045.53        2950.75           1242         166.00       717.97
 1045.56        2951.00           1246         170.00       735.41
 1045.58        2951.25           1249         172.00       744.13
 1045.62        2951.50           1252         179.00       774.65
 1045.64        2951.75           1256         162.00       700.54
 1045.67        2952.00           1259         169.00       731.05
 1045.70        2952.25           1262         159.00       687.46
 1045.73        2952.50           1265         186.00       805.16
 1045.76        2952.75           1269         175.00       757.21
 1045.79        2953.00           1272         157.00       678.74
 1045.82        2953.25           1275         163.00       704.90
 1045.85        2953.50           1279         178.00       770.29
 1045.88        2953.75           1282         165.00       713.62
 1045.91        2954.00           1285         172.00       744.13
 1045.94        2954.25           1289         166.00       717.97
 1045.97        2954.50           1292         173.00       748.49
 1046.00        2954.75           1295         159.00       687.46
 1046.03        2955.00           1299         168.00       726.69
 1046.06        2955.25           1302         159.00       687.46
 1046.09        2955.50           1305         166.00       717.97
 1046.12        2955.75           1309         176.00       761.57
 1046.15        2956.00           1312         168.00       726.69
 1046.18        2956.25           1315         164.00       709.26
 1046.21        2956.50           1318         157.00       678.74
 1046.24        2956.75           1322         159.00       687.46
 1046.27        2957.00           1325         177.00       765.93
 1046.30        2957.25           1328         162.00       700.54
 1046.33        2957.50           1332         163.00       704.90
 1046.36        2957.75           1335         164.00       709.26
 1046.39        2958.00           1338         177.00       765.93
 1046.42        2958.25           1342         178.00       770.29
 1046.45        2958.50           1345         177.00       765.93
 1046.48        2958.75           1348         152.00       656.94
 1046.51        2959.00           1352         171.00       739.77
 1046.54        2959.25           1355         159.00       687.46
 1046.57        2959.50           1358         163.00       704.90
 1046.60        2959.75           1362         175.00       757.21
 1046.63        2960.00           1365         176.00       761.57
 1046.66        2960.25           1368         184.00       796.44
 1046.69        2960.50           1372         203.00       879.27
 1046.72        2960.75           1375         204.00       883.63
 1046.75        2961.00           1378         211.00       914.15
 1046.78        2961.25           1382         282.00      1223.67
 1046.81        2961.50           1385        1102.00      4798.81
 1046.84        2961.75           1388        3302.00     14394.21
 1046.87        2962.00           1391        6805.00     29683.34
 1046.90        2962.25           1395       12811.00     55927.54
 1046.93        2962.50           1398       17096.00     74675.16
 1046.96        2962.75           1401       20811.00     90944.89
 1046.99        2963.00           1405       26529.00    116015.80
 1047.01        2963.25           1408       31339.00    137132.80
 1047.05        2963.50           1411       35934.00    157329.30
 1047.08        2963.75           1415       42860.00    187814.60
 1047.11        2964.00           1418       46966.00    205912.20
 1047.14        2964.25           1421       51015.00    223776.60
 1047.17        2964.50           1425       56729.00    249017.50
 1047.19        2964.75           1428       61844.00    271642.90
 1047.23        2965.00           1431       66611.00    292754.80
 1047.25        2965.25           1435       72024.00    316758.20
 1047.28        2965.50           1438       76036.00    334569.90
 1047.32        2965.75           1441       80567.00    354707.30
 1047.34        2966.00           1445       86740.00    382179.10
 1047.37        2966.25           1448       91219.00    402138.70
 1047.41        2966.50           1451       93529.00    412441.40
 1047.44        2966.75           1455       95355.00    420589.80
 1047.46        2967.00           1458       95063.00    419286.50
 1047.50        2967.25           1461       95296.00    420326.40
 1047.52        2967.50           1465       95069.00    419313.20
 1047.55        2967.75           1468       93419.00    411950.70
 1047.59        2968.00           1471       91341.00    402682.70
 1047.61        2968.25           1475       86456.00    380914.20
 1047.64        2968.50           1478       83233.00    366566.60
 1047.67        2968.75           1481       78790.00    346807.00
 1047.70        2969.00           1485       72839.00    320375.10
 1047.73        2969.25           1488       68144.00    299549.50
 1047.76        2969.50           1491       63943.00    280935.80
 1047.79        2969.75           1495       58724.00    257838.70
 1047.82        2970.00           1498       54152.00    237629.50
 1047.85        2970.25           1501       49472.00    216966.70
 1047.88        2970.50           1505       43269.00    189616.50
 1047.91        2970.75           1508       38777.00    169836.70
 1047.94        2971.00           1511       34699.00    151898.80
 1047.97        2971.25           1515       29323.00    128279.00
 1048.00        2971.50           1518       25441.00    111242.70
 1048.03        2971.75           1521       21256.00     92894.76
 1048.06        2972.00           1525       14763.00     64465.43
 1048.09        2972.25           1528       10152.00     44303.84
 1048.12        2972.50           1531        5824.00     25400.36
 1048.15        2972.75           1535        1742.00      7589.67
 1048.18        2973.00           1538         650.00      2828.04
 1048.21        2973.25           1541         322.00      1398.05
 1048.24        2973.50           1544         252.00      1092.88
 1048.27        2973.75           1548         223.00       966.46
 1048.30        2974.00           1551         202.00       874.91
 1048.33        2974.25           1554         200.00       866.19
 1048.36        2974.50           1558         179.00       774.65
 1048.39        2974.75           1561         166.00       717.97
 1048.42        2975.00           1564         162.00       700.54
 1048.45        2975.25           1568         160.00       691.82
 1048.48        2975.50           1571         153.00       661.30
 1048.51        2975.75           1574         165.00       713.62
 1048.54        2976.00           1578         169.00       731.05
 1048.57        2976.25           1581         152.00       656.94
 1048.60        2976.50           1584         158.00       683.10
 1048.63        2976.75           1588         157.00       678.74
 1048.66        2977.00           1591         157.00       678.74
 1048.69        2977.25           1595         147.00       635.15
 1048.72        2977.50           1598         142.00       613.35
 1048.75        2977.75           1601         156.00       674.38
 1048.78        2978.00           1605         149.00       643.87
 1048.81        2978.25           1608         146.00       630.79
 1048.84        2978.50           1611         157.00       678.74
 1048.87        2978.75           1615         147.00       635.15
 1048.90        2979.00           1618         142.00       613.35
 1048.93        2979.25           1621         146.00       630.79
 1048.96        2979.50           1625         150.00       648.22
 1048.99        2979.75           1628         151.00       652.58
 1049.02        2980.00           1631         163.00       704.90
 1049.05        2980.25           1635         149.00       643.87
 1049.08        2980.50           1638         141.00       608.99
 1049.11        2980.75           1641         152.00       656.94
 1049.14        2981.00           1645         146.00       630.79
 1049.17        2981.25           1648         160.00       691.82
 1049.20        2981.50           1651         146.00       630.79
 1049.23        2981.75           1655         146.00       630.79
 1049.25        2982.00           1658         145.00       626.43
 1049.29        2982.25           1661         156.00       674.38
 1049.32        2982.50           1665         133.00       574.12
 1049.34        2982.75           1668         142.00       613.35
 1049.38        2983.00           1671         141.00       608.99
 1049.40        2983.25           1675         149.00       643.87
 1049.43        2983.50           1678         146.00       630.79
 1049.46        2983.75           1681         140.00       604.63
 1049.49        2984.00           1685         146.00       630.79
HS scan finished at 17:29:48
end
************************************************************
  HS Scan of (1) Internal mercury lamp
************************************************************
Integration time is 0.2294 seconds per sample
dh110818Delft 52.017-4.35 3.50161pr1000
************************************************************
Dead Time -------------------------  2.8E-08 
Number of Cycles Used -------------  4 
Starting Wavelength (Angstroms) ---  2950 
Final Wavelength (Angstoms) -------  2984 
Wavelength Increment (Angstroms) --  .25 
Filter Wheel #1 Position ---------- (1) Ground quartz diffuser (ND=2.32)
Filter Wheel #2 Position ---------- (1) Neutral Density 0.494



************************************************************
HS scan start time = 19:12:11
Dark Count =  1.1 


Time (GMT)  Wavelength (Ang)  Step Number  Raw Counts  Counts/Second

 1152.64        2950.00           1232         179.00       775.52
 1152.74        2950.25           1236         169.00       731.92
 1152.77        2950.50           1239         178.00       771.16
 1152.80        2950.75           1242         180.00       779.88
 1152.83        2951.00           1246         171.00       740.64
 1152.86        2951.25           1249         183.00       792.96
 1152.89        2951.50           1252         173.00       749.36
 1152.92        2951.75           1256         165.00       714.49
 1152.95        2952.00           1259         169.00       731.92
 1152.98        2952.25           1262         175.00       758.08
 1153.01        2952.50           1265         178.00       771.16
 1153.04        2952.75           1269         179.00       775.52
 1153.07        2953.00           1272         175.00       758.08
 1153.10        2953.25           1275         166.00       718.85
 1153.13        2953.50           1279         163.00       705.77
 1153.16        2953.75           1282         168.00       727.56
 1153.19        2954.00           1285         169.00       731.92
 1153.22        2954.25           1289         169.00       731.92
 1153.25        2954.50           1292         174.00       753.72
 1153.28        2954.75           1295         162.00       701.41
 1153.31        2955.00           1299         169.00       731.92
 1153.34        2955.25           1302         157.00       679.61
 1153.37        2955.50           1305         158.00       683.97
 1153.40        2955.75           1309         169.00       731.92
 1153.43        2956.00           1312         163.00       705.77
 1153.46        2956.25           1315         155.00       670.89
 1153.49        2956.50           1318         168.00       727.56
 1153.52        2956.75           1322         163.00       705.77
 1153.55        2957.00           1325         169.00       731.92
 1153.58        2957.25           1328         151.00       653.46
 1153.61        2957.50           1332         149.00       644.74
 1153.64        2957.75           1335         167.00       723.21
 1153.67        2958.00           1338         172.00       745.00
 1153.70        2958.25           1342         183.00       792.96
 1153.73        2958.50           1345         184.00       797.32
 1153.76        2958.75           1348         168.00       727.56
 1153.79        2959.00           1352         165.00       714.49
 1153.82        2959.25           1355         166.00       718.85
 1153.85        2959.50           1358         164.00       710.13
 1153.88        2959.75           1362         164.00       710.13
 1153.91        2960.00           1365         168.00       727.56
 1153.94        2960.25           1368         171.00       740.64
 1153.97        2960.50           1372         193.00       836.55
 1154.00        2960.75           1375         201.00       871.43
 1154.03        2961.00           1378         202.00       875.78
 1154.06        2961.25           1382         283.00      1228.90
 1154.09        2961.50           1385        1029.00      4481.38
 1154.12        2961.75           1388        2527.00     11014.29
 1154.15        2962.00           1391        5166.00     22529.03
 1154.18        2962.25           1395       10190.00     44470.78
 1154.20        2962.50           1398       14415.00     62943.88
 1154.24        2962.75           1401       19755.00     86319.54
 1154.27        2963.00           1405       25658.00    112195.40
 1154.29        2963.25           1408       29815.00    130440.20
 1154.33        2963.50           1411       34377.00    150484.10
 1154.35        2963.75           1415       40981.00    179539.80
 1154.38        2964.00           1418       45872.00    201089.40
 1154.42        2964.25           1421       50604.00    221963.30
 1154.45        2964.50           1425       56490.00    247961.90
 1154.47        2964.75           1428       60028.00    263607.70
 1154.51        2965.00           1431       64730.00    284422.20
 1154.54        2965.25           1435       71699.00    315317.00
 1154.56        2965.50           1438       75703.00    333091.70
 1154.60        2965.75           1441       80308.00    353556.50
 1154.62        2966.00           1445       86746.00    382206.70
 1154.65        2966.25           1448       90977.00    401060.50
 1154.69        2966.50           1451       93849.00    413870.00
 1154.71        2966.75           1455       95242.00    420086.20
 1154.74        2967.00           1458       95574.00    421568.10
 1154.78        2967.25           1461       95472.00    421112.80
 1154.80        2967.50           1465       95441.00    420974.50
 1154.83        2967.75           1468       95032.00    419149.00
 1154.86        2968.00           1471       92854.00    409431.10
 1154.89        2968.25           1475       88453.00    389810.90
 1154.92        2968.50           1478       83803.00    369104.10
 1154.95        2968.75           1481       79547.00    350173.00
 1154.98        2969.00           1485       74000.00    325529.50
 1155.01        2969.25           1488       69384.00    305048.20
 1155.04        2969.50           1491       65000.00    285618.10
 1155.07        2969.75           1495       59232.00    260086.40
 1155.10        2970.00           1498       55422.00    243241.70
 1155.13        2970.25           1501       51311.00    225084.10
 1155.16        2970.50           1505       45592.00    199855.00
 1155.19        2970.75           1508       41535.00    181979.40
 1155.22        2971.00           1511       36535.00    159973.50
 1155.25        2971.25           1515       30325.00    132679.90
 1155.28        2971.50           1518       25824.00    112923.60
 1155.31        2971.75           1521       21359.00     93346.99
 1155.34        2972.00           1525       16523.00     72167.91
 1155.37        2972.25           1528       12306.00     53720.24
 1155.40        2972.50           1531        7434.00     32430.92
 1155.43        2972.75           1535        2625.00     11441.77
 1155.46        2973.00           1538        1120.00      4878.17
 1155.49        2973.25           1541         479.00      2083.38
 1155.52        2973.50           1544         267.00      1159.15
 1155.55        2973.75           1548         242.00      1050.16
 1155.58        2974.00           1551         203.00       880.14
 1155.61        2974.25           1554         182.00       788.60
 1155.64        2974.50           1558         178.00       771.16
 1155.67        2974.75           1561         172.00       745.00
 1155.70        2975.00           1564         167.00       723.21
 1155.73        2975.25           1568         152.00       657.82
 1155.76        2975.50           1571         153.00       662.17
 1155.79        2975.75           1574         150.00       649.10
 1155.82        2976.00           1578         164.00       710.13
 1155.85        2976.25           1581         141.00       609.86
 1155.88        2976.50           1584         144.00       622.94
 1155.91        2976.75           1588         156.00       675.25
 1155.94        2977.00           1591         159.00       688.33
 1155.97        2977.25           1595         146.00       631.66
 1156.00        2977.50           1598         151.00       653.46
 1156.03        2977.75           1601         158.00       683.97
 1156.06        2978.00           1605         153.00       662.17
 1156.09        2978.25           1608         158.00       683.97
 1156.12        2978.50           1611         154.00       666.53
 1156.15        2978.75           1615         149.00       644.74
 1156.18        2979.00           1618         151.00       653.46
 1156.21        2979.25           1621         150.00       649.10
 1156.24        2979.50           1625         152.00       657.82
 1156.27        2979.75           1628         137.00       592.42
 1156.30        2980.00           1631         154.00       666.53
 1156.33        2980.25           1635         145.00       627.30
 1156.36        2980.50           1638         142.00       614.22
 1156.39        2980.75           1641         158.00       683.97
 1156.42        2981.00           1645         147.00       636.02
 1156.45        2981.25           1648         146.00       631.66
 1156.48        2981.50           1651         157.00       679.61
 1156.51        2981.75           1655         145.00       627.30
 1156.54        2982.00           1658         145.00       627.30
 1156.57        2982.25           1661         132.00       570.63
 1156.60        2982.50           1665         155.00       670.89
 1156.63        2982.75           1668         150.00       649.10
 1156.66        2983.00           1671         146.00       631.66
 1156.69        2983.25           1675         143.00       618.58
 1156.72        2983.50           1678         144.00       622.94
 1156.75        2983.75           1681         149.00       644.74
 1156.78        2984.00           1685         140.00       605.50
HS scan finished at 19:17:05
end
