************************************************************
  HS Scan of (1) Internal mercury lamp
************************************************************
Integration time is 0.2294 seconds per sample
dh120818Delft 52.017-4.35 3.394313pr1000
************************************************************
Dead Time -------------------------  2.8E-08 
Number of Cycles Used -------------  4 
Starting Wavelength (Angstroms) ---  2950 
Final Wavelength (Angstoms) -------  2984 
Wavelength Increment (Angstroms) --  .25 
Filter Wheel #1 Position ---------- (1) Ground quartz diffuser (ND=2.32)
Filter Wheel #2 Position ---------- (1) Neutral Density 0.494



************************************************************
HS scan start time = 04:55:38
Dark Count =  .8 


Time (GMT)  Wavelength (Ang)  Step Number  Raw Counts  Counts/Second

  296.08        2950.00           1232         175.00       759.39
  296.19        2950.25           1236         174.00       755.03
  296.21        2950.50           1239         178.00       772.47
  296.25        2950.75           1242         186.00       807.34
  296.27        2951.00           1246         170.00       737.59
  296.30        2951.25           1249         170.00       737.59
  296.33        2951.50           1252         186.00       807.34
  296.36        2951.75           1256         171.00       741.95
  296.39        2952.00           1259         178.00       772.47
  296.42        2952.25           1262         174.00       755.03
  296.45        2952.50           1265         171.00       741.95
  296.48        2952.75           1269         182.00       789.90
  296.51        2953.00           1272         173.00       750.67
  296.54        2953.25           1275         169.00       733.23
  296.57        2953.50           1279         181.00       785.54
  296.60        2953.75           1282         171.00       741.95
  296.63        2954.00           1285         169.00       733.23
  296.66        2954.25           1289         168.00       728.87
  296.69        2954.50           1292         182.00       789.90
  296.72        2954.75           1295         164.00       711.44
  296.75        2955.00           1299         174.00       755.03
  296.78        2955.25           1302         167.00       724.51
  296.81        2955.50           1305         161.00       698.36
  296.84        2955.75           1309         175.00       759.39
  296.87        2956.00           1312         161.00       698.36
  296.90        2956.25           1315         172.00       746.31
  296.93        2956.50           1318         161.00       698.36
  296.96        2956.75           1322         169.00       733.23
  296.99        2957.00           1325         174.00       755.03
  297.02        2957.25           1328         168.00       728.87
  297.05        2957.50           1332         166.00       720.15
  297.08        2957.75           1335         160.00       694.00
  297.11        2958.00           1338         176.00       763.75
  297.14        2958.25           1342         162.00       702.72
  297.17        2958.50           1345         163.00       707.08
  297.20        2958.75           1348         159.00       689.64
  297.23        2959.00           1352         169.00       733.23
  297.26        2959.25           1355         165.00       715.79
  297.29        2959.50           1358         170.00       737.59
  297.32        2959.75           1362         166.00       720.15
  297.35        2960.00           1365         173.00       750.67
  297.38        2960.25           1368         178.00       772.47
  297.41        2960.50           1372         180.00       781.19
  297.44        2960.75           1375         194.00       842.22
  297.47        2961.00           1378         211.00       916.33
  297.50        2961.25           1382         295.00      1282.52
  297.53        2961.50           1385        1063.00      4630.94
  297.56        2961.75           1388        3054.00     13314.47
  297.59        2962.00           1391        5856.00     25542.24
  297.62        2962.25           1395       10496.00     45809.38
  297.65        2962.50           1398       15541.00     67871.68
  297.68        2962.75           1401       19828.00     86640.62
  297.70        2963.00           1405       26043.00    113885.70
  297.73        2963.25           1408       31556.00    138088.20
  297.77        2963.50           1411       35988.00    157569.00
  297.79        2963.75           1415       42616.00    186742.00
  297.82        2964.00           1418       46959.00    205883.60
  297.86        2964.25           1421       51595.00    226339.20
  297.88        2964.50           1425       57522.00    252525.60
  297.91        2964.75           1428       61965.00    272180.60
  297.94        2965.00           1431       65588.00    288224.30
  297.98        2965.25           1435       71466.00    314284.50
  298.01        2965.50           1438       75788.00    333470.60
  298.04        2965.75           1441       80233.00    353224.30
  298.07        2966.00           1445       85811.00    378044.30
  298.10        2966.25           1448       89697.00    395355.90
  298.13        2966.50           1451       93407.00    411899.30
  298.16        2966.75           1455       95005.00    419029.80
  298.19        2967.00           1458       95479.00    421145.50
  298.22        2967.25           1461       94919.00    418646.00
  298.25        2967.50           1465       95095.00    419431.50
  298.28        2967.75           1468       94982.00    418927.20
  298.31        2968.00           1471       93066.00    410378.20
  298.34        2968.25           1475       88773.00    391238.10
  298.37        2968.50           1478       84945.00    374188.60
  298.40        2968.75           1481       80334.00    353673.50
  298.43        2969.00           1485       73800.00    324643.00
  298.46        2969.25           1488       69068.00    303648.40
  298.49        2969.50           1491       64979.00    285526.50
  298.52        2969.75           1495       59656.00    261963.30
  298.55        2970.00           1498       54772.00    240370.90
  298.58        2970.25           1501       50414.00    221126.00
  298.61        2970.50           1505       45507.00    199481.60
  298.64        2970.75           1508       40856.00    178990.70
  298.67        2971.00           1511       35984.00    157551.40
  298.70        2971.25           1515       29634.00    129646.80
  298.73        2971.50           1518       25086.00    109687.70
  298.76        2971.75           1521       20662.00     90294.25
  298.80        2972.00           1525       14963.00     65342.64
  298.83        2972.25           1528       10659.00     46521.77
  298.86        2972.50           1531        6606.00     28816.62
  298.89        2972.75           1535        2083.00      9079.03
  298.92        2973.00           1538         705.00      3070.01
  298.95        2973.25           1541         332.00      1443.82
  298.98        2973.50           1544         271.00      1177.89
  299.01        2973.75           1548         221.00       959.92
  299.04        2974.00           1551         216.00       938.12
  299.07        2974.25           1554         190.00       824.78
  299.10        2974.50           1558         191.00       829.14
  299.13        2974.75           1561         176.00       763.75
  299.16        2975.00           1564         182.00       789.90
  299.19        2975.25           1568         163.00       707.08
  299.22        2975.50           1571         162.00       702.72
  299.25        2975.75           1574         169.00       733.23
  299.28        2976.00           1578         156.00       676.56
  299.31        2976.25           1581         151.00       654.76
  299.34        2976.50           1584         151.00       654.76
  299.37        2976.75           1588         161.00       698.36
  299.40        2977.00           1591         161.00       698.36
  299.43        2977.25           1595         154.00       667.84
  299.46        2977.50           1598         163.00       707.08
  299.49        2977.75           1601         153.00       663.48
  299.52        2978.00           1605         159.00       689.64
  299.55        2978.25           1608         164.00       711.44
  299.59        2978.50           1611         159.00       689.64
  299.61        2978.75           1615         162.00       702.72
  299.64        2979.00           1618         150.00       650.40
  299.67        2979.25           1621         164.00       711.44
  299.70        2979.50           1625         151.00       654.76
  299.73        2979.75           1628         145.00       628.61
  299.77        2980.00           1631         151.00       654.76
  299.79        2980.25           1635         154.00       667.84
  299.82        2980.50           1638         138.00       598.09
  299.85        2980.75           1641         150.00       650.40
  299.88        2981.00           1645         161.00       698.36
  299.91        2981.25           1648         159.00       689.64
  299.94        2981.50           1651         150.00       650.40
  299.97        2981.75           1655         157.00       680.92
  300.00        2982.00           1658         147.00       637.33
  300.03        2982.25           1661         150.00       650.40
  300.06        2982.50           1665         157.00       680.92
  300.09        2982.75           1668         156.00       676.56
  300.12        2983.00           1671         145.00       628.61
  300.15        2983.25           1675         145.00       628.61
  300.18        2983.50           1678         143.00       619.89
  300.21        2983.75           1681         141.00       611.17
  300.24        2984.00           1685         150.00       650.40
HS scan finished at 05:00:33
end
************************************************************
  HS Scan of (1) Internal mercury lamp
************************************************************
Integration time is 0.2294 seconds per sample
dh120818Delft 52.017-4.35 3.394313pr1000
************************************************************
Dead Time -------------------------  2.8E-08 
Number of Cycles Used -------------  4 
Starting Wavelength (Angstroms) ---  2950 
Final Wavelength (Angstoms) -------  2984 
Wavelength Increment (Angstroms) --  .25 
Filter Wheel #1 Position ---------- (1) Ground quartz diffuser (ND=2.32)
Filter Wheel #2 Position ---------- (1) Neutral Density 0.494



************************************************************
HS scan start time = 06:42:55
Dark Count =  1 


Time (GMT)  Wavelength (Ang)  Step Number  Raw Counts  Counts/Second

  403.38        2950.00           1232         172.00       745.44
  403.48        2950.25           1236         162.00       701.84
  403.51        2950.50           1239         178.00       771.59
  403.54        2950.75           1242         176.00       762.88
  403.57        2951.00           1246         178.00       771.59
  403.60        2951.25           1249         180.00       780.31
  403.63        2951.50           1252         168.00       728.00
  403.66        2951.75           1256         177.00       767.24
  403.69        2952.00           1259         183.00       793.39
  403.72        2952.25           1262         172.00       745.44
  403.75        2952.50           1265         175.00       758.52
  403.77        2952.75           1269         162.00       701.84
  403.81        2953.00           1272         187.00       810.83
  403.83        2953.25           1275         177.00       767.24
  403.86        2953.50           1279         165.00       714.92
  403.90        2953.75           1282         184.00       797.75
  403.92        2954.00           1285         179.00       775.95
  403.95        2954.25           1289         175.00       758.52
  403.98        2954.50           1292         165.00       714.92
  404.01        2954.75           1295         176.00       762.88
  404.04        2955.00           1299         180.00       780.31
  404.07        2955.25           1302         178.00       771.59
  404.10        2955.50           1305         168.00       728.00
  404.13        2955.75           1309         180.00       780.31
  404.16        2956.00           1312         165.00       714.92
  404.19        2956.25           1315         174.00       754.16
  404.22        2956.50           1318         172.00       745.44
  404.25        2956.75           1322         165.00       714.92
  404.28        2957.00           1325         187.00       810.83
  404.31        2957.25           1328         167.00       723.64
  404.34        2957.50           1332         169.00       732.36
  404.37        2957.75           1335         162.00       701.84
  404.40        2958.00           1338         162.00       701.84
  404.43        2958.25           1342         173.00       749.80
  404.46        2958.50           1345         168.00       728.00
  404.49        2958.75           1348         160.00       693.13
  404.52        2959.00           1352         160.00       693.13
  404.55        2959.25           1355         162.00       701.84
  404.58        2959.50           1358         167.00       723.64
  404.61        2959.75           1362         175.00       758.52
  404.64        2960.00           1365         173.00       749.80
  404.67        2960.25           1368         170.00       736.72
  404.70        2960.50           1372         184.00       797.75
  404.73        2960.75           1375         200.00       867.50
  404.76        2961.00           1378         220.00       954.69
  404.79        2961.25           1382         244.00      1059.32
  404.82        2961.50           1385         820.00      3570.54
  404.85        2961.75           1388        2803.00     12218.65
  404.88        2962.00           1391        5744.00     25052.44
  404.91        2962.25           1395       11657.00     50883.26
  404.94        2962.50           1398       16179.00     70662.78
  404.97        2962.75           1401       20466.00     89434.66
  405.00        2963.00           1405       26922.00    117741.50
  405.03        2963.25           1408       32050.00    140257.70
  405.06        2963.50           1411       36736.00    160858.00
  405.09        2963.75           1415       42465.00    186076.00
  405.12        2964.00           1418       46560.00    204123.20
  405.15        2964.25           1421       50836.00    222987.70
  405.18        2964.50           1425       56722.00    248987.90
  405.21        2964.75           1428       61471.00    269993.30
  405.24        2965.00           1431       65973.00    289929.10
  405.27        2965.25           1435       71214.00    313165.60
  405.30        2965.50           1438       75346.00    331506.70
  405.33        2965.75           1441       80082.00    352552.00
  405.36        2966.00           1445       85700.00    377549.10
  405.39        2966.25           1448       90468.00    398791.80
  405.42        2966.50           1451       93222.00    411073.20
  405.45        2966.75           1455       94984.00    418935.20
  405.48        2967.00           1458       95162.00    419729.70
  405.51        2967.25           1461       94920.00    418649.50
  405.54        2967.50           1465       94956.00    418810.30
  405.57        2967.75           1468       94314.00    415945.20
  405.60        2968.00           1471       92037.00    405787.60
  405.63        2968.25           1475       87773.00    386781.70
  405.66        2968.50           1478       83249.00    366639.20
  405.69        2968.75           1481       79333.00    349222.00
  405.72        2969.00           1485       73053.00    321326.20
  405.75        2969.25           1488       69140.00    303966.70
  405.78        2969.50           1491       65297.00    286934.20
  405.81        2969.75           1495       60275.00    264700.90
  405.84        2970.00           1498       55894.00    245328.10
  405.87        2970.25           1501       51213.00    224652.00
  405.90        2970.50           1505       44334.00    194310.60
  405.93        2970.75           1508       39796.00    174323.10
  405.96        2971.00           1511       35350.00    154762.50
  405.99        2971.25           1515       29782.00    130295.80
  406.02        2971.50           1518       25488.00    111450.10
  406.05        2971.75           1521       21063.00     92050.38
  406.08        2972.00           1525       15057.00     65753.03
  406.11        2972.25           1528       11113.00     48505.24
  406.14        2972.50           1531        7157.00     31221.71
  406.17        2972.75           1535        2774.00     12092.15
  406.20        2973.00           1538        1084.00      4721.64
  406.23        2973.25           1541         368.00      1599.90
  406.26        2973.50           1544         270.00      1172.66
  406.29        2973.75           1548         209.00       906.74
  406.32        2974.00           1551         208.00       902.38
  406.35        2974.25           1554         203.00       880.58
  406.38        2974.50           1558         180.00       780.31
  406.41        2974.75           1561         169.00       732.36
  406.44        2975.00           1564         167.00       723.64
  406.47        2975.25           1568         160.00       693.13
  406.50        2975.50           1571         159.00       688.77
  406.53        2975.75           1574         165.00       714.92
  406.55        2976.00           1578         161.00       697.49
  406.59        2976.25           1581         157.00       680.05
  406.62        2976.50           1584         151.00       653.89
  406.64        2976.75           1588         173.00       749.80
  406.68        2977.00           1591         158.00       684.41
  406.70        2977.25           1595         160.00       693.13
  406.73        2977.50           1598         158.00       684.41
  406.76        2977.75           1601         164.00       710.56
  406.79        2978.00           1605         157.00       680.05
  406.82        2978.25           1608         147.00       636.45
  406.85        2978.50           1611         161.00       697.49
  406.88        2978.75           1615         156.00       675.69
  406.91        2979.00           1618         147.00       636.45
  406.94        2979.25           1621         152.00       658.25
  406.97        2979.50           1625         157.00       680.05
  407.00        2979.75           1628         145.00       627.74
  407.03        2980.00           1631         153.00       662.61
  407.06        2980.25           1635         148.00       640.81
  407.09        2980.50           1638         144.00       623.38
  407.12        2980.75           1641         150.00       649.53
  407.15        2981.00           1645         156.00       675.69
  407.18        2981.25           1648         143.00       619.02
  407.21        2981.50           1651         151.00       653.89
  407.24        2981.75           1655         151.00       653.89
  407.27        2982.00           1658         145.00       627.74
  407.30        2982.25           1661         148.00       640.81
  407.33        2982.50           1665         151.00       653.89
  407.36        2982.75           1668         156.00       675.69
  407.39        2983.00           1671         142.00       614.66
  407.42        2983.25           1675         143.00       619.02
  407.45        2983.50           1678         141.00       610.30
  407.48        2983.75           1681         138.00       597.22
  407.51        2984.00           1685         142.00       614.66
HS scan finished at 06:47:49
end
************************************************************
  HS Scan of (1) Internal mercury lamp
************************************************************
Integration time is 0.2294 seconds per sample
dh120818Delft 52.017-4.35 3.394313pr1000
************************************************************
Dead Time -------------------------  2.8E-08 
Number of Cycles Used -------------  4 
Starting Wavelength (Angstroms) ---  2950 
Final Wavelength (Angstoms) -------  2984 
Wavelength Increment (Angstroms) --  .25 
Filter Wheel #1 Position ---------- (1) Ground quartz diffuser (ND=2.32)
Filter Wheel #2 Position ---------- (1) Neutral Density 0.494



************************************************************
HS scan start time = 08:30:13
Dark Count =  1 


Time (GMT)  Wavelength (Ang)  Step Number  Raw Counts  Counts/Second

  510.68        2950.00           1232         179.00       775.95
  510.78        2950.25           1236         168.00       728.00
  510.80        2950.50           1239         177.00       767.24
  510.84        2950.75           1242         179.00       775.95
  510.87        2951.00           1246         169.00       732.36
  510.89        2951.25           1249         165.00       714.92
  510.93        2951.50           1252         160.00       693.13
  510.95        2951.75           1256         166.00       719.28
  510.98        2952.00           1259         172.00       745.44
  511.02        2952.25           1262         163.00       706.20
  511.04        2952.50           1265         157.00       680.05
  511.07        2952.75           1269         181.00       784.67
  511.11        2953.00           1272         182.00       789.03
  511.13        2953.25           1275         183.00       793.39
  511.16        2953.50           1279         184.00       797.75
  511.19        2953.75           1282         172.00       745.44
  511.22        2954.00           1285         174.00       754.16
  511.25        2954.25           1289         177.00       767.24
  511.28        2954.50           1292         174.00       754.16
  511.31        2954.75           1295         173.00       749.80
  511.34        2955.00           1299         172.00       745.44
  511.37        2955.25           1302         178.00       771.59
  511.40        2955.50           1305         171.00       741.08
  511.43        2955.75           1309         166.00       719.28
  511.46        2956.00           1312         180.00       780.31
  511.49        2956.25           1315         172.00       745.44
  511.52        2956.50           1318         169.00       732.36
  511.55        2956.75           1322         170.00       736.72
  511.58        2957.00           1325         161.00       697.49
  511.61        2957.25           1328         166.00       719.28
  511.64        2957.50           1332         170.00       736.72
  511.67        2957.75           1335         183.00       793.39
  511.70        2958.00           1338         168.00       728.00
  511.73        2958.25           1342         179.00       775.95
  511.76        2958.50           1345         164.00       710.56
  511.79        2958.75           1348         167.00       723.64
  511.82        2959.00           1352         176.00       762.88
  511.85        2959.25           1355         165.00       714.92
  511.88        2959.50           1358         167.00       723.64
  511.91        2959.75           1362         155.00       671.33
  511.94        2960.00           1365         172.00       745.44
  511.97        2960.25           1368         173.00       749.80
  512.00        2960.50           1372         183.00       793.39
  512.03        2960.75           1375         203.00       880.58
  512.06        2961.00           1378         226.00       980.85
  512.09        2961.25           1382         266.00      1155.22
  512.12        2961.50           1385        1010.00      4398.97
  512.15        2961.75           1388        2914.00     12702.86
  512.18        2962.00           1391        5874.00     25619.94
  512.21        2962.25           1395       11454.00     49995.83
  512.24        2962.50           1398       16404.00     71647.52
  512.27        2962.75           1401       20836.00     91055.75
  512.30        2963.00           1405       26427.00    115569.50
  512.33        2963.25           1408       30454.00    133246.90
  512.36        2963.50           1411       34931.00    152920.20
  512.39        2963.75           1415       41240.00    180680.70
  512.42        2964.00           1418       46003.00    201667.40
  512.45        2964.25           1421       50993.00    223680.80
  512.48        2964.50           1425       56504.00    248024.30
  512.51        2964.75           1428       61023.00    268010.70
  512.54        2965.00           1431       65669.00    288582.30
  512.57        2965.25           1435       71913.00    316267.00
  512.60        2965.50           1438       76445.00    336388.00
  512.63        2965.75           1441       80302.00    353530.30
  512.66        2966.00           1445       85112.00    374931.20
  512.69        2966.25           1448       90554.00    399175.20
  512.72        2966.50           1451       93728.00    413330.50
  512.75        2966.75           1455       95531.00    421376.70
  512.78        2967.00           1458       94918.00    418640.60
  512.81        2967.25           1461       95146.00    419658.20
  512.84        2967.50           1465       95111.00    419502.00
  512.87        2967.75           1468       94007.00    414575.40
  512.90        2968.00           1471       91791.00    404690.60
  512.93        2968.25           1475       87131.00    383921.90
  512.96        2968.50           1478       83139.00    366149.70
  512.99        2968.75           1481       79473.00    349844.50
  513.02        2969.00           1485       74241.00    326600.00
  513.05        2969.25           1488       69804.00    306911.20
  513.08        2969.50           1491       64911.00    285224.40
  513.11        2969.75           1495       59066.00    259352.60
  513.14        2970.00           1498       54589.00    239561.50
  513.17        2970.25           1501       50145.00    219937.90
  513.20        2970.50           1505       44550.00    195262.60
  513.23        2970.75           1508       39998.00    175212.30
  513.26        2971.00           1511       34835.00    152498.10
  513.29        2971.25           1515       29086.00    127239.80
  513.32        2971.50           1518       25569.00    111805.40
  513.35        2971.75           1521       21660.00     94666.47
  513.38        2972.00           1525       16682.00     72864.29
  513.41        2972.25           1528       11464.00     50039.55
  513.44        2972.50           1531        6920.00     30186.79
  513.47        2972.75           1535        2284.00      9954.82
  513.49        2973.00           1538         712.00      3099.66
  513.53        2973.25           1541         335.00      1456.03
  513.55        2973.50           1544         252.00      1094.19
  513.58        2973.75           1548         240.00      1041.88
  513.61        2974.00           1551         204.00       884.94
  513.64        2974.25           1554         204.00       884.94
  513.67        2974.50           1558         170.00       736.72
  513.70        2974.75           1561         176.00       762.88
  513.73        2975.00           1564         157.00       680.05
  513.76        2975.25           1568         162.00       701.84
  513.79        2975.50           1571         165.00       714.92
  513.82        2975.75           1574         162.00       701.84
  513.85        2976.00           1578         165.00       714.92
  513.88        2976.25           1581         150.00       649.53
  513.91        2976.50           1584         154.00       666.97
  513.94        2976.75           1588         165.00       714.92
  513.97        2977.00           1591         160.00       693.13
  514.00        2977.25           1595         156.00       675.69
  514.03        2977.50           1598         160.00       693.13
  514.06        2977.75           1601         153.00       662.61
  514.09        2978.00           1605         147.00       636.45
  514.12        2978.25           1608         157.00       680.05
  514.15        2978.50           1611         160.00       693.13
  514.18        2978.75           1615         148.00       640.81
  514.21        2979.00           1618         145.00       627.74
  514.24        2979.25           1621         153.00       662.61
  514.27        2979.50           1625         151.00       653.89
  514.30        2979.75           1628         157.00       680.05
  514.33        2980.00           1631         146.00       632.09
  514.36        2980.25           1635         160.00       693.13
  514.39        2980.50           1638         157.00       680.05
  514.42        2980.75           1641         143.00       619.02
  514.45        2981.00           1645         150.00       649.53
  514.48        2981.25           1648         152.00       658.25
  514.51        2981.50           1651         152.00       658.25
  514.54        2981.75           1655         144.00       623.38
  514.57        2982.00           1658         142.00       614.66
  514.60        2982.25           1661         156.00       675.69
  514.63        2982.50           1665         147.00       636.45
  514.66        2982.75           1668         138.00       597.22
  514.69        2983.00           1671         144.00       623.38
  514.72        2983.25           1675         143.00       619.02
  514.75        2983.50           1678         147.00       636.45
  514.78        2983.75           1681         154.00       666.97
  514.81        2984.00           1685         149.00       645.17
HS scan finished at 08:35:07
end
************************************************************
  HS Scan of (1) Internal mercury lamp
************************************************************
Integration time is 0.2294 seconds per sample
dh120818Delft 52.017-4.35 3.394313pr1000
************************************************************
Dead Time -------------------------  2.8E-08 
Number of Cycles Used -------------  4 
Starting Wavelength (Angstroms) ---  2950 
Final Wavelength (Angstoms) -------  2984 
Wavelength Increment (Angstroms) --  .25 
Filter Wheel #1 Position ---------- (1) Ground quartz diffuser (ND=2.32)
Filter Wheel #2 Position ---------- (1) Neutral Density 0.494



************************************************************
HS scan start time = 10:17:29
Dark Count =  1.2 


Time (GMT)  Wavelength (Ang)  Step Number  Raw Counts  Counts/Second

  617.95        2950.00           1232         183.00       792.52
  618.05        2950.25           1236         163.00       705.33
  618.08        2950.50           1239         186.00       805.60
  618.11        2950.75           1242         184.00       796.88
  618.14        2951.00           1246         187.00       809.96
  618.17        2951.25           1249         167.00       722.77
  618.20        2951.50           1252         172.00       744.57
  618.23        2951.75           1256         172.00       744.57
  618.26        2952.00           1259         175.00       757.64
  618.29        2952.25           1262         169.00       731.49
  618.32        2952.50           1265         183.00       792.52
  618.34        2952.75           1269         182.00       788.16
  618.38        2953.00           1272         172.00       744.57
  618.40        2953.25           1275         171.00       740.21
  618.43        2953.50           1279         160.00       692.25
  618.47        2953.75           1282         168.00       727.13
  618.49        2954.00           1285         169.00       731.49
  618.52        2954.25           1289         164.00       709.69
  618.55        2954.50           1292         173.00       748.93
  618.58        2954.75           1295         173.00       748.93
  618.61        2955.00           1299         172.00       744.57
  618.64        2955.25           1302         173.00       748.93
  618.67        2955.50           1305         159.00       687.89
  618.70        2955.75           1309         172.00       744.57
  618.73        2956.00           1312         163.00       705.33
  618.76        2956.25           1315         192.00       831.75
  618.79        2956.50           1318         174.00       753.29
  618.82        2956.75           1322         171.00       740.21
  618.85        2957.00           1325         170.00       735.85
  618.88        2957.25           1328         164.00       709.69
  618.91        2957.50           1332         171.00       740.21
  618.94        2957.75           1335         166.00       718.41
  618.97        2958.00           1338         171.00       740.21
  619.00        2958.25           1342         172.00       744.57
  619.03        2958.50           1345         169.00       731.49
  619.06        2958.75           1348         165.00       714.05
  619.09        2959.00           1352         174.00       753.29
  619.12        2959.25           1355         173.00       748.93
  619.15        2959.50           1358         167.00       722.77
  619.18        2959.75           1362         168.00       727.13
  619.21        2960.00           1365         174.00       753.29
  619.24        2960.25           1368         183.00       792.52
  619.27        2960.50           1372         187.00       809.96
  619.30        2960.75           1375         197.00       853.55
  619.33        2961.00           1378         221.00       958.18
  619.36        2961.25           1382         290.00      1258.98
  619.39        2961.50           1385        1114.00      4851.57
  619.42        2961.75           1388        3298.00     14377.19
  619.45        2962.00           1391        6312.00     27531.24
  619.48        2962.25           1395       10878.00     47477.20
  619.51        2962.50           1398       15287.00     66758.50
  619.54        2962.75           1401       19470.00     85070.75
  619.57        2963.00           1405       26338.00    115178.20
  619.60        2963.25           1408       31408.00    137436.30
  619.63        2963.50           1411       35312.00    154594.50
  619.66        2963.75           1415       41366.00    181234.70
  619.69        2964.00           1418       45737.00    200493.80
  619.72        2964.25           1421       50382.00    220983.00
  619.75        2964.50           1425       56761.00    249159.40
  619.78        2964.75           1428       61613.00    270620.90
  619.81        2965.00           1431       65279.00    286853.60
  619.84        2965.25           1435       71508.00    314469.10
  619.87        2965.50           1438       76257.00    335552.00
  619.90        2965.75           1441       80900.00    356188.60
  619.93        2966.00           1445       85944.00    378634.60
  619.96        2966.25           1448       91438.00    403115.60
  619.99        2966.50           1451       93907.00    414128.30
  620.02        2966.75           1455       95564.00    421523.00
  620.05        2967.00           1458       95598.00    421674.80
  620.08        2967.25           1461       95516.00    421308.70
  620.11        2967.50           1465       95100.00    419452.00
  620.14        2967.75           1468       94163.00    415270.50
  620.17        2968.00           1471       92563.00    408132.60
  620.20        2968.25           1475       87931.00    387484.70
  620.23        2968.50           1478       83406.00    367336.90
  620.26        2968.75           1481       78408.00    345109.50
  620.29        2969.00           1485       72616.00    319385.80
  620.32        2969.25           1488       69034.00    303495.80
  620.35        2969.50           1491       64477.00    283301.20
  620.38        2969.75           1495       58748.00    257945.20
  620.40        2970.00           1498       54428.00    238849.20
  620.44        2970.25           1501       49615.00    217598.10
  620.47        2970.50           1505       44885.00    196738.20
  620.49        2970.75           1508       40331.00    176677.50
  620.53        2971.00           1511       35916.00    157250.60
  620.56        2971.25           1515       30264.00    132411.60
  620.58        2971.50           1518       25417.00    111137.80
  620.62        2971.75           1521       21406.00     93552.51
  620.65        2972.00           1525       15376.00     67147.93
  620.68        2972.25           1528       10958.00     47826.87
  620.71        2972.50           1531        6925.00     30207.76
  620.73        2972.75           1535        2143.00      9338.97
  620.76        2973.00           1538         730.00      3177.27
  620.79        2973.25           1541         352.00      1529.27
  620.82        2973.50           1544         262.00      1136.91
  620.85        2973.75           1548         236.00      1023.57
  620.89        2974.00           1551         216.00       936.38
  620.91        2974.25           1554         192.00       831.75
  620.94        2974.50           1558         189.00       818.68
  620.98        2974.75           1561         176.00       762.00
  621.00        2975.00           1564         154.00       666.10
  621.03        2975.25           1568         162.00       700.97
  621.06        2975.50           1571         164.00       709.69
  621.09        2975.75           1574         152.00       657.38
  621.12        2976.00           1578         156.00       674.82
  621.15        2976.25           1581         163.00       705.33
  621.18        2976.50           1584         148.00       639.94
  621.21        2976.75           1588         155.00       670.46
  621.24        2977.00           1591         160.00       692.25
  621.27        2977.25           1595         164.00       709.69
  621.30        2977.50           1598         154.00       666.10
  621.33        2977.75           1601         149.00       644.30
  621.36        2978.00           1605         154.00       666.10
  621.39        2978.25           1608         153.00       661.74
  621.42        2978.50           1611         151.00       653.02
  621.45        2978.75           1615         156.00       674.82
  621.48        2979.00           1618         164.00       709.69
  621.51        2979.25           1621         167.00       722.77
  621.54        2979.50           1625         156.00       674.82
  621.57        2979.75           1628         149.00       644.30
  621.60        2980.00           1631         162.00       700.97
  621.63        2980.25           1635         154.00       666.10
  621.66        2980.50           1638         162.00       700.97
  621.69        2980.75           1641         164.00       709.69
  621.72        2981.00           1645         148.00       639.94
  621.75        2981.25           1648         145.00       626.86
  621.78        2981.50           1651         149.00       644.30
  621.81        2981.75           1655         149.00       644.30
  621.84        2982.00           1658         154.00       666.10
  621.87        2982.25           1661         146.00       631.22
  621.90        2982.50           1665         136.00       587.63
  621.93        2982.75           1668         148.00       639.94
  621.96        2983.00           1671         151.00       653.02
  621.99        2983.25           1675         150.00       648.66
  622.02        2983.50           1678         148.00       639.94
  622.05        2983.75           1681         148.00       639.94
  622.08        2984.00           1685         145.00       626.86
HS scan finished at 10:22:23
end
************************************************************
  HS Scan of (1) Internal mercury lamp
************************************************************
Integration time is 0.2294 seconds per sample
dh120818Delft 52.017-4.35 3.340665pr1000
************************************************************
Dead Time -------------------------  2.8E-08 
Number of Cycles Used -------------  4 
Starting Wavelength (Angstroms) ---  2950 
Final Wavelength (Angstoms) -------  2984 
Wavelength Increment (Angstroms) --  .25 
Filter Wheel #1 Position ---------- (1) Ground quartz diffuser (ND=2.32)
Filter Wheel #2 Position ---------- (1) Neutral Density 0.494



************************************************************
HS scan start time = 12:04:46
Dark Count =  .7 


Time (GMT)  Wavelength (Ang)  Step Number  Raw Counts  Counts/Second

  725.22        2950.00           1232         172.00       746.75
  725.32        2950.25           1236         172.00       746.75
  725.35        2950.50           1239         179.00       777.26
  725.38        2950.75           1242         175.00       759.82
  725.41        2951.00           1246         170.00       738.03
  725.44        2951.25           1249         183.00       794.70
  725.47        2951.50           1252         192.00       833.93
  725.50        2951.75           1256         176.00       764.18
  725.53        2952.00           1259         168.00       729.31
  725.56        2952.25           1262         177.00       768.54
  725.59        2952.50           1265         184.00       799.06
  725.62        2952.75           1269         176.00       764.18
  725.65        2953.00           1272         182.00       790.34
  725.68        2953.25           1275         185.00       803.42
  725.71        2953.50           1279         178.00       772.90
  725.74        2953.75           1282         168.00       729.31
  725.77        2954.00           1285         183.00       794.70
  725.80        2954.25           1289         166.00       720.59
  725.83        2954.50           1292         186.00       807.78
  725.86        2954.75           1295         173.00       751.11
  725.89        2955.00           1299         190.00       825.22
  725.92        2955.25           1302         178.00       772.90
  725.95        2955.50           1305         174.00       755.46
  725.98        2955.75           1309         173.00       751.11
  726.01        2956.00           1312         175.00       759.82
  726.04        2956.25           1315         173.00       751.11
  726.07        2956.50           1318         169.00       733.67
  726.10        2956.75           1322         178.00       772.90
  726.13        2957.00           1325         189.00       820.86
  726.16        2957.25           1328         163.00       707.51
  726.19        2957.50           1332         174.00       755.46
  726.22        2957.75           1335         184.00       799.06
  726.25        2958.00           1338         172.00       746.75
  726.28        2958.25           1342         185.00       803.42
  726.31        2958.50           1345         172.00       746.75
  726.34        2958.75           1348         163.00       707.51
  726.37        2959.00           1352         176.00       764.18
  726.40        2959.25           1355         170.00       738.03
  726.43        2959.50           1358         168.00       729.31
  726.46        2959.75           1362         163.00       707.51
  726.49        2960.00           1365         179.00       777.26
  726.52        2960.25           1368         178.00       772.90
  726.55        2960.50           1372         187.00       812.14
  726.58        2960.75           1375         196.00       851.37
  726.61        2961.00           1378         237.00      1030.11
  726.64        2961.25           1382         282.00      1226.28
  726.67        2961.50           1385         849.00      3698.29
  726.70        2961.75           1388        2519.00     10981.15
  726.73        2962.00           1391        5389.00     23504.13
  726.76        2962.25           1395       11107.00     48480.33
  726.79        2962.50           1398       15770.00     68874.20
  726.82        2962.75           1401       19318.00     84407.19
  726.85        2963.00           1405       24894.00    108846.10
  726.88        2963.25           1408       29817.00    130450.80
  726.91        2963.50           1411       34738.00    152072.90
  726.94        2963.75           1415       41850.00    183368.50
  726.97        2964.00           1418       46147.00    202303.60
  727.00        2964.25           1421       49926.00    218972.80
  727.03        2964.50           1425       55892.00    245320.60
  727.06        2964.75           1428       60734.00    266733.20
  727.09        2965.00           1431       65075.00    285952.10
  727.12        2965.25           1435       70945.00    311973.60
  727.15        2965.50           1438       76470.00    336500.50
  727.18        2965.75           1441       81068.00    356938.00
  727.21        2966.00           1445       86042.00    379073.30
  727.24        2966.25           1448       90409.00    398530.10
  727.27        2966.50           1451       93901.00    414103.80
  727.30        2966.75           1455       94977.00    418905.30
  727.33        2967.00           1458       94885.00    418494.70
  727.36        2967.25           1461       94636.00    417383.50
  727.39        2967.50           1465       95109.00    419494.40
  727.42        2967.75           1468       94180.00    415348.70
  727.45        2968.00           1471       91886.00    405115.60
  727.48        2968.25           1475       86927.00    383014.60
  727.51        2968.50           1478       83334.00    367018.70
  727.54        2968.75           1481       79209.00    348672.10
  727.57        2969.00           1485       73745.00    324399.20
  727.59        2969.25           1488       68804.00    302478.20
  727.63        2969.50           1491       64489.00    283356.50
  727.65        2969.75           1495       59662.00    261990.30
  727.68        2970.00           1498       55026.00    241493.60
  727.71        2970.25           1501       50667.00    222243.10
  727.74        2970.50           1505       44969.00    197110.60
  727.77        2970.75           1508       40292.00    176508.00
  727.80        2971.00           1511       35700.00    156302.90
  727.83        2971.25           1515       29595.00    129476.00
  727.86        2971.50           1518       25735.00    112535.00
  727.89        2971.75           1521       21674.00     94729.14
  727.92        2972.00           1525       15655.00     68370.96
  727.95        2972.25           1528       10925.00     47684.82
  727.98        2972.50           1531        7068.00     30834.37
  728.01        2972.75           1535        2978.00     12983.36
  728.04        2973.00           1538        1118.00      4871.20
  728.07        2973.25           1541         445.00      1936.90
  728.10        2973.50           1544         265.00      1152.17
  728.13        2973.75           1548         242.00      1051.91
  728.16        2974.00           1551         213.00       925.48
  728.19        2974.25           1554         206.00       894.97
  728.22        2974.50           1558         189.00       820.86
  728.25        2974.75           1561         179.00       777.26
  728.28        2975.00           1564         175.00       759.82
  728.31        2975.25           1568         168.00       729.31
  728.34        2975.50           1571         173.00       751.11
  728.37        2975.75           1574         154.00       668.28
  728.40        2976.00           1578         163.00       707.51
  728.43        2976.25           1581         173.00       751.11
  728.46        2976.50           1584         164.00       711.87
  728.49        2976.75           1588         165.00       716.23
  728.52        2977.00           1591         160.00       694.43
  728.55        2977.25           1595         159.00       690.07
  728.58        2977.50           1598         160.00       694.43
  728.61        2977.75           1601         154.00       668.28
  728.64        2978.00           1605         168.00       729.31
  728.67        2978.25           1608         164.00       711.87
  728.70        2978.50           1611         157.00       681.36
  728.73        2978.75           1615         149.00       646.48
  728.76        2979.00           1618         150.00       650.84
  728.79        2979.25           1621         156.00       677.00
  728.82        2979.50           1625         152.00       659.56
  728.85        2979.75           1628         148.00       642.12
  728.88        2980.00           1631         157.00       681.36
  728.91        2980.25           1635         163.00       707.51
  728.94        2980.50           1638         150.00       650.84
  728.97        2980.75           1641         145.00       629.04
  729.00        2981.00           1645         150.00       650.84
  729.03        2981.25           1648         162.00       703.15
  729.06        2981.50           1651         159.00       690.07
  729.09        2981.75           1655         158.00       685.71
  729.11        2982.00           1658         146.00       633.40
  729.15        2982.25           1661         162.00       703.15
  729.17        2982.50           1665         156.00       677.00
  729.20        2982.75           1668         146.00       633.40
  729.24        2983.00           1671         153.00       663.92
  729.26        2983.25           1675         148.00       642.12
  729.29        2983.50           1678         146.00       633.40
  729.32        2983.75           1681         155.00       672.64
  729.35        2984.00           1685         148.00       642.12
HS scan finished at 12:09:40
end
************************************************************
  HS Scan of (1) Internal mercury lamp
************************************************************
Integration time is 0.2294 seconds per sample
dh120818Delft 52.017-4.35 3.287017pr1000
************************************************************
Dead Time -------------------------  2.8E-08 
Number of Cycles Used -------------  4 
Starting Wavelength (Angstroms) ---  2950 
Final Wavelength (Angstoms) -------  2984 
Wavelength Increment (Angstroms) --  .25 
Filter Wheel #1 Position ---------- (1) Ground quartz diffuser (ND=2.32)
Filter Wheel #2 Position ---------- (1) Neutral Density 0.494



************************************************************
HS scan start time = 13:52:01
Dark Count =  .6 


Time (GMT)  Wavelength (Ang)  Step Number  Raw Counts  Counts/Second

  832.47        2950.00           1232         169.00       734.10
  832.57        2950.25           1236         177.00       768.98
  832.60        2950.50           1239         185.00       803.85
  832.63        2950.75           1242         174.00       755.90
  832.66        2951.00           1246         181.00       786.42
  832.69        2951.25           1249         181.00       786.42
  832.72        2951.50           1252         185.00       803.85
  832.75        2951.75           1256         187.00       812.57
  832.78        2952.00           1259         178.00       773.34
  832.81        2952.25           1262         177.00       768.98
  832.84        2952.50           1265         183.00       795.14
  832.87        2952.75           1269         181.00       786.42
  832.90        2953.00           1272         178.00       773.34
  832.93        2953.25           1275         176.00       764.62
  832.96        2953.50           1279         186.00       808.21
  832.99        2953.75           1282         174.00       755.90
  833.02        2954.00           1285         176.00       764.62
  833.05        2954.25           1289         177.00       768.98
  833.08        2954.50           1292         186.00       808.21
  833.11        2954.75           1295         178.00       773.34
  833.14        2955.00           1299         183.00       795.14
  833.17        2955.25           1302         166.00       721.03
  833.20        2955.50           1305         177.00       768.98
  833.22        2955.75           1309         170.00       738.46
  833.26        2956.00           1312         174.00       755.90
  833.28        2956.25           1315         166.00       721.03
  833.31        2956.50           1318         171.00       742.82
  833.34        2956.75           1322         184.00       799.49
  833.37        2957.00           1325         170.00       738.46
  833.40        2957.25           1328         192.00       834.37
  833.43        2957.50           1332         176.00       764.62
  833.46        2957.75           1335         177.00       768.98
  833.49        2958.00           1338         176.00       764.62
  833.52        2958.25           1342         175.00       760.26
  833.55        2958.50           1345         187.00       812.57
  833.58        2958.75           1348         176.00       764.62
  833.61        2959.00           1352         177.00       768.98
  833.64        2959.25           1355         162.00       703.59
  833.67        2959.50           1358         182.00       790.78
  833.70        2959.75           1362         166.00       721.03
  833.73        2960.00           1365         186.00       808.21
  833.76        2960.25           1368         200.00       869.25
  833.79        2960.50           1372         196.00       851.81
  833.82        2960.75           1375         222.00       965.15
  833.85        2961.00           1378         227.00       986.95
  833.88        2961.25           1382         287.00      1248.52
  833.91        2961.50           1385         905.00      3942.89
  833.94        2961.75           1388        2753.00     12002.29
  833.97        2962.00           1391        5313.00     23172.84
  834.00        2962.25           1395       10022.00     43738.81
  834.03        2962.50           1398       14447.00     63086.06
  834.06        2962.75           1401       18833.00     82283.53
  834.09        2963.00           1405       25589.00    111894.90
  834.12        2963.25           1408       30208.00    132168.30
  834.15        2963.50           1411       33784.00    147879.60
  834.18        2963.75           1415       40222.00    176200.20
  834.21        2964.00           1418       45200.00    198129.20
  834.24        2964.25           1421       49444.00    216846.20
  834.27        2964.50           1425       55856.00    245161.90
  834.30        2964.75           1428       60545.00    265897.30
  834.33        2965.00           1431       65175.00    286395.50
  834.36        2965.25           1435       71189.00    313056.50
  834.39        2965.50           1438       75370.00    331615.00
  834.42        2965.75           1441       80065.00    352478.20
  834.45        2966.00           1445       85408.00    376250.80
  834.48        2966.25           1448       88982.00    392170.30
  834.51        2966.50           1451       91807.00    404763.70
  834.54        2966.75           1455       94120.00    415081.40
  834.57        2967.00           1458       94635.00    417379.50
  834.60        2967.25           1461       94306.00    415911.30
  834.63        2967.50           1465       94320.00    415973.80
  834.66        2967.75           1468       93242.00    411164.20
  834.69        2968.00           1471       91688.00    404233.10
  834.72        2968.25           1475       87585.00    385946.00
  834.75        2968.50           1478       83451.00    367539.80
  834.78        2968.75           1481       79218.00    348712.60
  834.81        2969.00           1485       74255.00    326663.90
  834.84        2969.25           1488       70464.00    309840.30
  834.87        2969.50           1491       66271.00    291251.30
  834.90        2969.75           1495       60186.00    264308.90
  834.93        2970.00           1498       55629.00    244158.70
  834.96        2970.25           1501       50454.00    221303.40
  834.99        2970.50           1505       44808.00    196401.40
  835.02        2970.75           1508       40500.00    177424.10
  835.05        2971.00           1511       36194.00    158475.90
  835.08        2971.25           1515       29765.00    130222.90
  835.11        2971.50           1518       25525.00    111614.20
  835.14        2971.75           1521       21980.00     96070.65
  835.17        2972.00           1525       16593.00     72476.50
  835.20        2972.25           1528       12320.00     53783.64
  835.23        2972.50           1531        7803.00     34044.65
  835.26        2972.75           1535        2431.00     10597.74
  835.29        2973.00           1538         820.00      3572.28
  835.32        2973.25           1541         371.00      1614.72
  835.35        2973.50           1544         252.00      1095.94
  835.38        2973.75           1548         236.00      1026.18
  835.41        2974.00           1551         216.00       939.00
  835.44        2974.25           1554         196.00       851.81
  835.47        2974.50           1558         201.00       873.60
  835.50        2974.75           1561         180.00       782.06
  835.53        2975.00           1564         176.00       764.62
  835.56        2975.25           1568         171.00       742.82
  835.59        2975.50           1571         173.00       751.54
  835.62        2975.75           1574         166.00       721.03
  835.65        2976.00           1578         162.00       703.59
  835.68        2976.25           1581         161.00       699.23
  835.71        2976.50           1584         156.00       677.43
  835.73        2976.75           1588         154.00       668.71
  835.77        2977.00           1591         159.00       690.51
  835.79        2977.25           1595         160.00       694.87
  835.82        2977.50           1598         174.00       755.90
  835.85        2977.75           1601         160.00       694.87
  835.88        2978.00           1605         164.00       712.31
  835.91        2978.25           1608         154.00       668.71
  835.94        2978.50           1611         150.00       651.28
  835.97        2978.75           1615         168.00       729.74
  836.00        2979.00           1618         163.00       707.95
  836.03        2979.25           1621         157.00       681.79
  836.06        2979.50           1625         157.00       681.79
  836.09        2979.75           1628         172.00       747.18
  836.12        2980.00           1631         166.00       721.03
  836.15        2980.25           1635         162.00       703.59
  836.18        2980.50           1638         153.00       664.35
  836.21        2980.75           1641         155.00       673.07
  836.24        2981.00           1645         157.00       681.79
  836.27        2981.25           1648         157.00       681.79
  836.30        2981.50           1651         162.00       703.59
  836.33        2981.75           1655         147.00       638.20
  836.36        2982.00           1658         144.00       625.12
  836.39        2982.25           1661         154.00       668.71
  836.42        2982.50           1665         156.00       677.43
  836.45        2982.75           1668         148.00       642.56
  836.48        2983.00           1671         156.00       677.43
  836.51        2983.25           1675         151.00       655.64
  836.54        2983.50           1678         160.00       694.87
  836.57        2983.75           1681         152.00       659.99
  836.60        2984.00           1685         147.00       638.20
HS scan finished at 13:56:54
end
************************************************************
  HS Scan of (1) Internal mercury lamp
************************************************************
Integration time is 0.2294 seconds per sample
dh120818Delft 52.017-4.35 3.287017pr1000
************************************************************
Dead Time -------------------------  2.8E-08 
Number of Cycles Used -------------  4 
Starting Wavelength (Angstroms) ---  2950 
Final Wavelength (Angstoms) -------  2984 
Wavelength Increment (Angstroms) --  .25 
Filter Wheel #1 Position ---------- (1) Ground quartz diffuser (ND=2.32)
Filter Wheel #2 Position ---------- (1) Neutral Density 0.494



************************************************************
HS scan start time = 15:39:16
Dark Count =  .7 


Time (GMT)  Wavelength (Ang)  Step Number  Raw Counts  Counts/Second

  939.73        2950.00           1232         177.00       768.54
  939.83        2950.25           1236         191.00       829.57
  939.86        2950.50           1239         171.00       742.39
  939.89        2950.75           1242         182.00       790.34
  939.92        2951.00           1246         179.00       777.26
  939.95        2951.25           1249         191.00       829.57
  939.98        2951.50           1252         186.00       807.78
  940.01        2951.75           1256         177.00       768.54
  940.04        2952.00           1259         177.00       768.54
  940.07        2952.25           1262         185.00       803.42
  940.10        2952.50           1265         177.00       768.54
  940.13        2952.75           1269         187.00       812.14
  940.16        2953.00           1272         175.00       759.82
  940.19        2953.25           1275         185.00       803.42
  940.22        2953.50           1279         185.00       803.42
  940.25        2953.75           1282         162.00       703.15
  940.27        2954.00           1285         183.00       794.70
  940.30        2954.25           1289         182.00       790.34
  940.34        2954.50           1292         182.00       790.34
  940.36        2954.75           1295         187.00       812.14
  940.39        2955.00           1299         179.00       777.26
  940.42        2955.25           1302         177.00       768.54
  940.45        2955.50           1305         196.00       851.37
  940.48        2955.75           1309         191.00       829.57
  940.51        2956.00           1312         184.00       799.06
  940.54        2956.25           1315         177.00       768.54
  940.57        2956.50           1318         183.00       794.70
  940.60        2956.75           1322         174.00       755.46
  940.63        2957.00           1325         174.00       755.46
  940.66        2957.25           1328         163.00       707.51
  940.69        2957.50           1332         171.00       742.39
  940.72        2957.75           1335         184.00       799.06
  940.75        2958.00           1338         169.00       733.67
  940.78        2958.25           1342         168.00       729.31
  940.81        2958.50           1345         176.00       764.18
  940.84        2958.75           1348         184.00       799.06
  940.87        2959.00           1352         172.00       746.75
  940.90        2959.25           1355         176.00       764.18
  940.93        2959.50           1358         181.00       785.98
  940.96        2959.75           1362         169.00       733.67
  940.99        2960.00           1365         183.00       794.70
  941.02        2960.25           1368         180.00       781.62
  941.05        2960.50           1372         200.00       868.81
  941.08        2960.75           1375         208.00       903.68
  941.11        2961.00           1378         222.00       964.72
  941.14        2961.25           1382         329.00      1431.18
  941.17        2961.50           1385        1241.00      5407.53
  941.20        2961.75           1388        3402.00     14833.10
  941.23        2962.00           1391        6643.00     28978.60
  941.26        2962.25           1395       11391.00     49721.75
  941.29        2962.50           1398       15355.00     67058.22
  941.32        2962.75           1401       20450.00     89365.89
  941.35        2963.00           1405       26616.00    116400.10
  941.38        2963.25           1408       31331.00    137100.30
  941.41        2963.50           1411       36669.00    160564.60
  941.44        2963.75           1415       42766.00    187403.20
  941.47        2964.00           1418       47226.00    207061.40
  941.50        2964.25           1421       52076.00    228463.40
  941.53        2964.50           1425       58077.00    254980.00
  941.56        2964.75           1428       62523.00    274651.10
  941.59        2965.00           1431       66559.00    292527.00
  941.62        2965.25           1435       71400.00    313992.10
  941.65        2965.50           1438       76255.00    335545.40
  941.68        2965.75           1441       79921.00    351837.50
  941.71        2966.00           1445       86259.00    380039.60
  941.74        2966.25           1448       90018.00    396787.10
  941.77        2966.50           1451       92787.00    409134.00
  941.80        2966.75           1455       94127.00    415112.10
  941.83        2967.00           1458       94242.00    415625.30
  941.86        2967.25           1461       94289.00    415835.00
  941.89        2967.50           1465       94424.00    416437.40
  941.92        2967.75           1468       93841.00    413836.10
  941.95        2968.00           1471       91631.00    403978.50
  941.98        2968.25           1475       87513.00    385624.90
  942.00        2968.50           1478       83758.00    368905.60
  942.04        2968.75           1481       79139.00    348361.00
  942.07        2969.00           1485       73046.00    321296.50
  942.09        2969.25           1488       68306.00    300270.30
  942.13        2969.50           1491       63943.00    280938.40
  942.15        2969.75           1495       58293.00    255935.20
  942.18        2970.00           1498       53828.00    236200.90
  942.22        2970.25           1501       49118.00    215407.40
  942.25        2970.50           1505       43287.00    189698.50
  942.27        2970.75           1508       40098.00    175653.90
  942.30        2971.00           1511       35051.00    153449.10
  942.33        2971.25           1515       29461.00    128887.60
  942.36        2971.50           1518       24712.00    108047.90
  942.39        2971.75           1521       19779.00     86426.43
  942.42        2972.00           1525       13984.00     61060.28
  942.45        2972.25           1528        9922.00     43301.38
  942.48        2972.50           1531        5809.00     25337.50
  942.51        2972.75           1535        2010.00      8761.09
  942.54        2973.00           1538         650.00      2830.65
  942.57        2973.25           1541         292.00      1269.88
  942.60        2973.50           1544         264.00      1147.81
  942.63        2973.75           1548         233.00      1012.67
  942.66        2974.00           1551         212.00       921.12
  942.69        2974.25           1554         197.00       855.73
  942.72        2974.50           1558         186.00       807.78
  942.75        2974.75           1561         171.00       742.39
  942.78        2975.00           1564         180.00       781.62
  942.81        2975.25           1568         169.00       733.67
  942.84        2975.50           1571         175.00       759.82
  942.87        2975.75           1574         180.00       781.62
  942.90        2976.00           1578         173.00       751.11
  942.93        2976.25           1581         169.00       733.67
  942.96        2976.50           1584         160.00       694.43
  942.99        2976.75           1588         157.00       681.36
  943.02        2977.00           1591         155.00       672.64
  943.05        2977.25           1595         178.00       772.90
  943.08        2977.50           1598         168.00       729.31
  943.11        2977.75           1601         165.00       716.23
  943.14        2978.00           1605         156.00       677.00
  943.17        2978.25           1608         163.00       707.51
  943.20        2978.50           1611         164.00       711.87
  943.23        2978.75           1615         159.00       690.07
  943.26        2979.00           1618         150.00       650.84
  943.29        2979.25           1621         157.00       681.36
  943.32        2979.50           1625         161.00       698.79
  943.35        2979.75           1628         155.00       672.64
  943.38        2980.00           1631         138.00       598.53
  943.41        2980.25           1635         161.00       698.79
  943.44        2980.50           1638         143.00       620.32
  943.47        2980.75           1641         156.00       677.00
  943.50        2981.00           1645         150.00       650.84
  943.53        2981.25           1648         148.00       642.12
  943.56        2981.50           1651         149.00       646.48
  943.59        2981.75           1655         155.00       672.64
  943.62        2982.00           1658         151.00       655.20
  943.65        2982.25           1661         155.00       672.64
  943.68        2982.50           1665         159.00       690.07
  943.71        2982.75           1668         146.00       633.40
  943.74        2983.00           1671         156.00       677.00
  943.77        2983.25           1675         160.00       694.43
  943.80        2983.50           1678         151.00       655.20
  943.83        2983.75           1681         140.00       607.25
  943.86        2984.00           1685         153.00       663.92
HS scan finished at 15:44:10
end
************************************************************
  HS Scan of (1) Internal mercury lamp
************************************************************
Integration time is 0.2294 seconds per sample
dh120818Delft 52.017-4.35 3.287017pr1000
************************************************************
Dead Time -------------------------  2.8E-08 
Number of Cycles Used -------------  4 
Starting Wavelength (Angstroms) ---  2950 
Final Wavelength (Angstoms) -------  2984 
Wavelength Increment (Angstroms) --  .25 
Filter Wheel #1 Position ---------- (1) Ground quartz diffuser (ND=2.32)
Filter Wheel #2 Position ---------- (1) Neutral Density 0.494



************************************************************
HS scan start time = 17:26:32
Dark Count =  .9 


Time (GMT)  Wavelength (Ang)  Step Number  Raw Counts  Counts/Second

 1046.99        2950.00           1232         183.00       793.83
 1047.09        2950.25           1236         189.00       819.98
 1047.12        2950.50           1239         187.00       811.27
 1047.15        2950.75           1242         184.00       798.19
 1047.18        2951.00           1246         181.00       785.11
 1047.21        2951.25           1249         191.00       828.70
 1047.24        2951.50           1252         183.00       793.83
 1047.27        2951.75           1256         166.00       719.72
 1047.30        2952.00           1259         185.00       802.55
 1047.33        2952.25           1262         189.00       819.98
 1047.36        2952.50           1265         189.00       819.98
 1047.39        2952.75           1269         199.00       863.58
 1047.42        2953.00           1272         181.00       785.11
 1047.45        2953.25           1275         184.00       798.19
 1047.48        2953.50           1279         181.00       785.11
 1047.51        2953.75           1282         176.00       763.31
 1047.54        2954.00           1285         196.00       850.50
 1047.57        2954.25           1289         183.00       793.83
 1047.60        2954.50           1292         184.00       798.19
 1047.63        2954.75           1295         184.00       798.19
 1047.66        2955.00           1299         184.00       798.19
 1047.69        2955.25           1302         174.00       754.59
 1047.72        2955.50           1305         191.00       828.70
 1047.75        2955.75           1309         178.00       772.03
 1047.78        2956.00           1312         181.00       785.11
 1047.80        2956.25           1315         180.00       780.75
 1047.83        2956.50           1318         189.00       819.98
 1047.87        2956.75           1322         197.00       854.86
 1047.89        2957.00           1325         185.00       802.55
 1047.92        2957.25           1328         166.00       719.72
 1047.95        2957.50           1332         184.00       798.19
 1047.98        2957.75           1335         183.00       793.83
 1048.01        2958.00           1338         176.00       763.31
 1048.04        2958.25           1342         176.00       763.31
 1048.07        2958.50           1345         169.00       732.80
 1048.10        2958.75           1348         178.00       772.03
 1048.13        2959.00           1352         181.00       785.11
 1048.16        2959.25           1355         175.00       758.95
 1048.19        2959.50           1358         169.00       732.80
 1048.22        2959.75           1362         180.00       780.75
 1048.25        2960.00           1365         165.00       715.36
 1048.28        2960.25           1368         185.00       802.55
 1048.31        2960.50           1372         190.00       824.34
 1048.34        2960.75           1375         201.00       872.30
 1048.37        2961.00           1378         226.00       981.28
 1048.40        2961.25           1382         289.00      1255.93
 1048.43        2961.50           1385        1103.00      4804.92
 1048.46        2961.75           1388        3353.00     14618.45
 1048.49        2962.00           1391        6130.00     26737.97
 1048.52        2962.25           1395       11852.00     51736.19
 1048.55        2962.50           1398       16490.00     72024.35
 1048.58        2962.75           1401       21347.00     93295.27
 1048.61        2963.00           1405       27265.00    119247.10
 1048.64        2963.25           1408       32192.00    140882.00
 1048.67        2963.50           1411       37079.00    162367.30
 1048.70        2963.75           1415       43128.00    188997.10
 1048.73        2964.00           1418       47138.00    206672.50
 1048.76        2964.25           1421       50975.00    223601.80
 1048.79        2964.50           1425       56710.00    248935.30
 1048.82        2964.75           1428       61390.00    269635.30
 1048.85        2965.00           1431       66304.00    291396.20
 1048.88        2965.25           1435       71428.00    314115.50
 1048.91        2965.50           1438       75785.00    333456.80
 1048.94        2965.75           1441       79907.00    351774.40
 1048.97        2966.00           1445       85343.00    375960.00
 1049.00        2966.25           1448       89996.00    396688.20
 1049.03        2966.50           1451       92923.00    409739.80
 1049.06        2966.75           1455       94116.00    415062.20
 1049.09        2967.00           1458       94375.00    416217.90
 1049.12        2967.25           1461       94409.00    416369.60
 1049.15        2967.50           1465       94327.00    416003.70
 1049.18        2967.75           1468       93153.00    410765.80
 1049.21        2968.00           1471       90406.00    398515.90
 1049.24        2968.25           1475       86297.00    380208.00
 1049.27        2968.50           1478       82476.00    363200.20
 1049.30        2968.75           1481       77904.00    342871.00
 1049.33        2969.00           1485       72041.00    316835.40
 1049.36        2969.25           1488       68007.00    298943.90
 1049.39        2969.50           1491       64528.00    283528.40
 1049.42        2969.75           1495       58968.00    258919.60
 1049.45        2970.00           1498       54418.00    238806.40
 1049.48        2970.25           1501       49975.00    219188.10
 1049.51        2970.50           1505       42924.00    188098.40
 1049.54        2970.75           1508       38735.00    169653.60
 1049.57        2971.00           1511       34374.00    150471.80
 1049.60        2971.25           1515       28938.00    126590.50
 1049.63        2971.50           1518       24582.00    107476.80
 1049.66        2971.75           1521       20211.00     88317.96
 1049.69        2972.00           1525       14125.00     61676.17
 1049.72        2972.25           1528       10170.00     44384.24
 1049.75        2972.50           1531        6511.00     28401.40
 1049.78        2972.75           1535        2643.00     11521.15
 1049.81        2973.00           1538         995.00      4334.00
 1049.84        2973.25           1541         334.00      1452.11
 1049.87        2973.50           1544         269.00      1168.74
 1049.90        2973.75           1548         244.00      1059.75
 1049.93        2974.00           1551         209.00       907.17
 1049.96        2974.25           1554         197.00       854.86
 1049.99        2974.50           1558         187.00       811.27
 1050.02        2974.75           1561         176.00       763.31
 1050.05        2975.00           1564         172.00       745.87
 1050.08        2975.25           1568         180.00       780.75
 1050.11        2975.50           1571         170.00       737.16
 1050.14        2975.75           1574         169.00       732.80
 1050.17        2976.00           1578         174.00       754.59
 1050.20        2976.25           1581         167.00       724.08
 1050.23        2976.50           1584         174.00       754.59
 1050.26        2976.75           1588         176.00       763.31
 1050.29        2977.00           1591         173.00       750.23
 1050.32        2977.25           1595         159.00       689.20
 1050.35        2977.50           1598         161.00       697.92
 1050.38        2977.75           1601         160.00       693.56
 1050.41        2978.00           1605         160.00       693.56
 1050.44        2978.25           1608         145.00       628.17
 1050.47        2978.50           1611         159.00       689.20
 1050.50        2978.75           1615         167.00       724.08
 1050.53        2979.00           1618         148.00       641.25
 1050.56        2979.25           1621         153.00       663.05
 1050.59        2979.50           1625         163.00       706.64
 1050.61        2979.75           1628         150.00       649.97
 1050.65        2980.00           1631         167.00       724.08
 1050.67        2980.25           1635         166.00       719.72
 1050.70        2980.50           1638         163.00       706.64
 1050.73        2980.75           1641         154.00       667.41
 1050.76        2981.00           1645         160.00       693.56
 1050.79        2981.25           1648         159.00       689.20
 1050.82        2981.50           1651         160.00       693.56
 1050.85        2981.75           1655         150.00       649.97
 1050.88        2982.00           1658         148.00       641.25
 1050.91        2982.25           1661         153.00       663.05
 1050.94        2982.50           1665         159.00       689.20
 1050.97        2982.75           1668         157.00       680.48
 1051.00        2983.00           1671         167.00       724.08
 1051.03        2983.25           1675         159.00       689.20
 1051.06        2983.50           1678         141.00       610.73
 1051.09        2983.75           1681         154.00       667.41
 1051.12        2984.00           1685         149.00       645.61
HS scan finished at 17:31:26
end
************************************************************
  HS Scan of (1) Internal mercury lamp
************************************************************
Integration time is 0.2294 seconds per sample
dh120818Delft 52.017-4.35 3.233369pr1000
************************************************************
Dead Time -------------------------  2.8E-08 
Number of Cycles Used -------------  4 
Starting Wavelength (Angstroms) ---  2950 
Final Wavelength (Angstoms) -------  2984 
Wavelength Increment (Angstroms) --  .25 
Filter Wheel #1 Position ---------- (1) Ground quartz diffuser (ND=2.32)
Filter Wheel #2 Position ---------- (1) Neutral Density 0.494



************************************************************
HS scan start time = 19:13:48
Dark Count =  .9 


Time (GMT)  Wavelength (Ang)  Step Number  Raw Counts  Counts/Second

 1154.26        2950.00           1232         176.00       763.31
 1154.36        2950.25           1236         177.00       767.67
 1154.39        2950.50           1239         179.00       776.39
 1154.42        2950.75           1242         177.00       767.67
 1154.45        2951.00           1246         192.00       833.06
 1154.48        2951.25           1249         196.00       850.50
 1154.51        2951.50           1252         185.00       802.55
 1154.54        2951.75           1256         183.00       793.83
 1154.57        2952.00           1259         184.00       798.19
 1154.60        2952.25           1262         195.00       846.14
 1154.63        2952.50           1265         188.00       815.62
 1154.66        2952.75           1269         184.00       798.19
 1154.69        2953.00           1272         187.00       811.27
 1154.72        2953.25           1275         202.00       876.66
 1154.75        2953.50           1279         174.00       754.59
 1154.78        2953.75           1282         170.00       737.16
 1154.81        2954.00           1285         177.00       767.67
 1154.84        2954.25           1289         184.00       798.19
 1154.87        2954.50           1292         183.00       793.83
 1154.90        2954.75           1295         174.00       754.59
 1154.92        2955.00           1299         180.00       780.75
 1154.96        2955.25           1302         185.00       802.55
 1154.98        2955.50           1305         168.00       728.44
 1155.01        2955.75           1309         176.00       763.31
 1155.05        2956.00           1312         188.00       815.62
 1155.07        2956.25           1315         183.00       793.83
 1155.10        2956.50           1318         168.00       728.44
 1155.13        2956.75           1322         177.00       767.67
 1155.16        2957.00           1325         189.00       819.98
 1155.19        2957.25           1328         185.00       802.55
 1155.22        2957.50           1332         181.00       785.11
 1155.25        2957.75           1335         181.00       785.11
 1155.28        2958.00           1338         182.00       789.47
 1155.31        2958.25           1342         176.00       763.31
 1155.34        2958.50           1345         182.00       789.47
 1155.37        2958.75           1348         174.00       754.59
 1155.40        2959.00           1352         181.00       785.11
 1155.43        2959.25           1355         176.00       763.31
 1155.46        2959.50           1358         177.00       767.67
 1155.49        2959.75           1362         188.00       815.62
 1155.52        2960.00           1365         201.00       872.30
 1155.55        2960.25           1368         200.00       867.94
 1155.58        2960.50           1372         185.00       802.55
 1155.61        2960.75           1375         230.00       998.72
 1155.64        2961.00           1378         219.00       950.77
 1155.67        2961.25           1382         315.00      1369.28
 1155.70        2961.50           1385        1232.00      5367.42
 1155.73        2961.75           1388        3218.00     14029.49
 1155.76        2962.00           1391        6318.00     27558.75
 1155.79        2962.25           1395       12032.00     52523.14
 1155.82        2962.50           1398       16634.00     72654.63
 1155.85        2962.75           1401       21372.00     93404.82
 1155.88        2963.00           1405       26777.00    117105.70
 1155.91        2963.25           1408       30972.00    135522.40
 1155.94        2963.50           1411       35793.00    156711.00
 1155.97        2963.75           1415       41925.00    183697.90
 1156.00        2964.00           1418       46669.00    204604.30
 1156.03        2964.25           1421       51363.00    225314.60
 1156.06        2964.50           1425       56588.00    248396.00
 1156.09        2964.75           1428       61158.00    268608.50
 1156.12        2965.00           1431       65926.00    289721.40
 1156.15        2965.25           1435       72042.00    316839.90
 1156.18        2965.50           1438       76272.00    335620.00
 1156.21        2965.75           1441       80359.00    353784.10
 1156.24        2966.00           1445       84974.00    374317.20
 1156.27        2966.25           1448       89762.00    395645.20
 1156.30        2966.50           1451       92878.00    409539.10
 1156.33        2966.75           1455       93993.00    414513.40
 1156.36        2967.00           1458       94106.00    415017.60
 1156.39        2967.25           1461       94119.00    415075.60
 1156.42        2967.50           1465       93998.00    414535.70
 1156.45        2967.75           1468       92744.00    408941.40
 1156.48        2968.00           1471       90241.00    397780.30
 1156.51        2968.25           1475       85158.00    375136.40
 1156.54        2968.50           1478       81527.00    358978.60
 1156.57        2968.75           1481       78184.00    344115.40
 1156.60        2969.00           1485       72845.00    320403.50
 1156.63        2969.25           1488       68433.00    300832.50
 1156.66        2969.50           1491       63929.00    280875.50
 1156.69        2969.75           1495       57501.00    252432.30
 1156.72        2970.00           1498       53072.00    232860.80
 1156.75        2970.25           1501       49235.00    215922.70
 1156.78        2970.50           1505       42972.00    188309.80
 1156.81        2970.75           1508       38473.00    168500.60
 1156.84        2971.00           1511       34029.00    148955.20
 1156.87        2971.25           1515       28588.00    125053.90
 1156.90        2971.50           1518       24624.00    107661.00
 1156.93        2971.75           1521       20449.00     89360.62
 1156.96        2972.00           1525       15534.00     67840.61
 1156.99        2972.25           1528       10875.00     47465.39
 1157.02        2972.50           1531        6338.00     27646.07
 1157.05        2972.75           1535        2002.00      8725.32
 1157.08        2973.00           1538         647.00      2816.70
 1157.11        2973.25           1541         308.00      1338.76
 1157.14        2973.50           1544         240.00      1042.31
 1157.17        2973.75           1548         214.00       928.97
 1157.20        2974.00           1551         214.00       928.97
 1157.23        2974.25           1554         193.00       837.42
 1157.26        2974.50           1558         173.00       750.23
 1157.29        2974.75           1561         188.00       815.62
 1157.32        2975.00           1564         162.00       702.28
 1157.35        2975.25           1568         167.00       724.08
 1157.38        2975.50           1571         174.00       754.59
 1157.41        2975.75           1574         178.00       772.03
 1157.44        2976.00           1578         173.00       750.23
 1157.47        2976.25           1581         163.00       706.64
 1157.50        2976.50           1584         167.00       724.08
 1157.53        2976.75           1588         160.00       693.56
 1157.56        2977.00           1591         168.00       728.44
 1157.59        2977.25           1595         174.00       754.59
 1157.62        2977.50           1598         162.00       702.28
 1157.65        2977.75           1601         160.00       693.56
 1157.68        2978.00           1605         167.00       724.08
 1157.71        2978.25           1608         167.00       724.08
 1157.74        2978.50           1611         161.00       697.92
 1157.77        2978.75           1615         162.00       702.28
 1157.79        2979.00           1618         160.00       693.56
 1157.83        2979.25           1621         148.00       641.25
 1157.85        2979.50           1625         165.00       715.36
 1157.88        2979.75           1628         147.00       636.89
 1157.91        2980.00           1631         155.00       671.77
 1157.94        2980.25           1635         148.00       641.25
 1157.97        2980.50           1638         160.00       693.56
 1158.00        2980.75           1641         167.00       724.08
 1158.03        2981.00           1645         153.00       663.05
 1158.06        2981.25           1648         156.00       676.12
 1158.09        2981.50           1651         164.00       711.00
 1158.12        2981.75           1655         160.00       693.56
 1158.15        2982.00           1658         163.00       706.64
 1158.18        2982.25           1661         145.00       628.17
 1158.21        2982.50           1665         158.00       684.84
 1158.24        2982.75           1668         159.00       689.20
 1158.27        2983.00           1671         166.00       719.72
 1158.30        2983.25           1675         161.00       697.92
 1158.33        2983.50           1678         159.00       689.20
 1158.36        2983.75           1681         146.00       632.53
 1158.39        2984.00           1685         154.00       667.41
HS scan finished at 19:18:42
end
