************************************************************
  HS Scan of (1) Internal mercury lamp
************************************************************
Integration time is 0.2294 seconds per sample
dh100818Arosa 46.78-9.675 2.804185pr1000
************************************************************
Dead Time -------------------------  2.8E-08 
Number of Cycles Used -------------  4 
Starting Wavelength (Angstroms) ---  2950 
Final Wavelength (Angstoms) -------  2984 
Wavelength Increment (Angstroms) --  .25 
Filter Wheel #1 Position ---------- (1) Ground quartz diffuser (ND=2.32)
Filter Wheel #2 Position ---------- (1) Neutral Density 0.494



************************************************************
HS scan start time = 08:35:12
Dark Count =  0 


Time (GMT)  Wavelength (Ang)  Step Number  Raw Counts  Counts/Second

  515.65        2950.00           1232         186.00       810.83
  515.75        2950.25           1236         190.00       828.27
  515.78        2950.50           1239         197.00       858.78
  515.80        2950.75           1242         203.00       884.94
  515.83        2951.00           1246         193.00       841.35
  515.86        2951.25           1249         190.00       828.27
  515.89        2951.50           1252         187.00       815.19
  515.92        2951.75           1256         193.00       841.35
  515.95        2952.00           1259         196.00       854.42
  515.98        2952.25           1262         169.00       736.72
  516.01        2952.50           1265         182.00       793.39
  516.04        2952.75           1269         180.00       784.67
  516.07        2953.00           1272         189.00       823.91
  516.10        2953.25           1275         193.00       841.35
  516.13        2953.50           1279         173.00       754.16
  516.16        2953.75           1282         201.00       876.22
  516.19        2954.00           1285         188.00       819.55
  516.22        2954.25           1289         174.00       758.52
  516.25        2954.50           1292         194.00       845.70
  516.28        2954.75           1295         179.00       780.31
  516.31        2955.00           1299         185.00       806.47
  516.34        2955.25           1302         178.00       775.95
  516.37        2955.50           1305         188.00       819.55
  516.40        2955.75           1309         181.00       789.03
  516.43        2956.00           1312         172.00       749.80
  516.45        2956.25           1315         172.00       749.80
  516.48        2956.50           1318         174.00       758.52
  516.51        2956.75           1322         182.00       793.39
  516.54        2957.00           1325         193.00       841.35
  516.57        2957.25           1328         172.00       749.80
  516.60        2957.50           1332         192.00       836.99
  516.63        2957.75           1335         187.00       815.19
  516.66        2958.00           1338         183.00       797.75
  516.69        2958.25           1342         191.00       832.63
  516.72        2958.50           1345         186.00       810.83
  516.75        2958.75           1348         175.00       762.88
  516.78        2959.00           1352         175.00       762.88
  516.81        2959.25           1355         179.00       780.31
  516.84        2959.50           1358         177.00       771.59
  516.87        2959.75           1362         193.00       841.35
  516.90        2960.00           1365         179.00       780.31
  516.93        2960.25           1368         188.00       819.55
  516.96        2960.50           1372         194.00       845.70
  516.98        2960.75           1375         223.00       972.13
  517.01        2961.00           1378         229.00       998.28
  517.04        2961.25           1382         284.00      1238.06
  517.07        2961.50           1385         813.00      3544.38
  517.10        2961.75           1388        2440.00     10639.61
  517.13        2962.00           1391        4509.00     19666.45
  517.16        2962.25           1395        8811.00     38450.27
  517.19        2962.50           1398       12605.00     55032.43
  517.22        2962.75           1401       16142.00     70505.23
  517.25        2963.00           1405       21142.00     92400.91
  517.28        2963.25           1408       25041.00    109493.90
  517.31        2963.50           1411       28832.00    126129.10
  517.34        2963.75           1415       33692.00    147477.80
  517.37        2964.00           1418       36654.00    160501.70
  517.40        2964.25           1421       40256.00    176352.50
  517.43        2964.50           1425       44577.00    195386.00
  517.46        2964.75           1428       48417.00    212317.80
  517.49        2965.00           1431       51896.00    227671.70
  517.52        2965.25           1435       55987.00    245743.60
  517.55        2965.50           1438       59742.00    262347.30
  517.58        2965.75           1441       62766.00    275730.00
  517.61        2966.00           1445       67532.00    296842.40
  517.64        2966.25           1448       71063.00    312500.10
  517.67        2966.50           1451       73105.00    321561.40
  517.70        2966.75           1455       74629.00    328327.10
  517.73        2967.00           1458       74953.00    329765.80
  517.76        2967.25           1461       74850.00    329308.50
  517.79        2967.50           1465       74779.00    328993.20
  517.82        2967.75           1468       74245.00    326622.10
  517.85        2968.00           1471       72139.00    317274.30
  517.87        2968.25           1475       68527.00    301253.20
  517.90        2968.50           1478       65652.00    288511.40
  517.94        2968.75           1481       62323.00    273768.90
  517.96        2969.00           1485       57545.00    252630.80
  517.99        2969.25           1488       54376.00    238624.80
  518.02        2969.50           1491       51493.00    225892.50
  518.05        2969.75           1495       46957.00    205878.30
  518.08        2970.00           1498       43493.00    190609.20
  518.11        2970.25           1501       39869.00    174648.80
  518.14        2970.50           1505       34330.00    150282.30
  518.17        2970.75           1508       30936.00    135368.30
  518.20        2971.00           1511       27516.00    120352.60
  518.23        2971.25           1515       23236.00    101578.80
  518.26        2971.50           1518       19758.00     86337.50
  518.29        2971.75           1521       16248.00     70969.13
  518.32        2972.00           1525       11375.00     49654.87
  518.35        2972.25           1528        8349.00     36432.10
  518.38        2972.50           1531        5614.00     24489.33
  518.41        2972.75           1535        2532.00     11040.90
  518.44        2973.00           1538         974.00      4246.36
  518.47        2973.25           1541         325.00      1416.80
  518.50        2973.50           1544         244.00      1063.68
  518.53        2973.75           1548         218.00       950.33
  518.56        2974.00           1551         201.00       876.22
  518.59        2974.25           1554         195.00       850.06
  518.61        2974.50           1558         186.00       810.83
  518.64        2974.75           1561         181.00       789.03
  518.67        2975.00           1564         162.00       706.20
  518.70        2975.25           1568         170.00       741.08
  518.73        2975.50           1571         170.00       741.08
  518.76        2975.75           1574         164.00       714.92
  518.79        2976.00           1578         169.00       736.72
  518.82        2976.25           1581         169.00       736.72
  518.85        2976.50           1584         154.00       671.33
  518.88        2976.75           1588         172.00       749.80
  518.91        2977.00           1591         163.00       710.56
  518.94        2977.25           1595         157.00       684.41
  518.97        2977.50           1598         166.00       723.64
  519.00        2977.75           1601         166.00       723.64
  519.03        2978.00           1605         156.00       680.05
  519.06        2978.25           1608         163.00       710.56
  519.09        2978.50           1611         151.00       658.25
  519.12        2978.75           1615         163.00       710.56
  519.15        2979.00           1618         161.00       701.84
  519.18        2979.25           1621         159.00       693.13
  519.20        2979.50           1625         146.00       636.45
  519.23        2979.75           1628         152.00       662.61
  519.26        2980.00           1631         160.00       697.49
  519.29        2980.25           1635         154.00       671.33
  519.32        2980.50           1638         163.00       710.56
  519.35        2980.75           1641         158.00       688.77
  519.38        2981.00           1645         153.00       666.97
  519.41        2981.25           1648         161.00       701.84
  519.44        2981.50           1651         152.00       662.61
  519.47        2981.75           1655         150.00       653.89
  519.50        2982.00           1658         156.00       680.05
  519.53        2982.25           1661         159.00       693.13
  519.56        2982.50           1665         156.00       680.05
  519.59        2982.75           1668         144.00       627.74
  519.62        2983.00           1671         150.00       653.89
  519.65        2983.25           1675         148.00       645.17
  519.68        2983.50           1678         144.00       627.74
  519.71        2983.75           1681         152.00       662.61
  519.74        2984.00           1685         156.00       680.05
HS scan finished at 08:40:03
end
************************************************************
  HS Scan of (1) Internal mercury lamp
************************************************************
Integration time is 0.2294 seconds per sample
dh100818Arosa 46.78-9.675 3.179721pr1000
************************************************************
Dead Time -------------------------  2.8E-08 
Number of Cycles Used -------------  4 
Starting Wavelength (Angstroms) ---  2950 
Final Wavelength (Angstoms) -------  2984 
Wavelength Increment (Angstroms) --  .25 
Filter Wheel #1 Position ---------- (1) Ground quartz diffuser (ND=2.32)
Filter Wheel #2 Position ---------- (1) Neutral Density 0.494



************************************************************
HS scan start time = 10:21:16
Dark Count =  .2 


Time (GMT)  Wavelength (Ang)  Step Number  Raw Counts  Counts/Second

  621.73        2950.00           1232         180.00       783.80
  621.83        2950.25           1236         181.00       788.16
  621.86        2950.50           1239         164.00       714.05
  621.89        2950.75           1242         167.00       727.13
  621.92        2951.00           1246         181.00       788.16
  621.95        2951.25           1249         188.00       818.68
  621.98        2951.50           1252         168.00       731.49
  622.01        2951.75           1256         164.00       714.05
  622.04        2952.00           1259         170.00       740.21
  622.07        2952.25           1262         169.00       735.85
  622.10        2952.50           1265         168.00       731.49
  622.12        2952.75           1269         159.00       692.25
  622.15        2953.00           1272         162.00       705.33
  622.18        2953.25           1275         159.00       692.25
  622.21        2953.50           1279         156.00       679.18
  622.24        2953.75           1282         168.00       731.49
  622.27        2954.00           1285         164.00       714.05
  622.30        2954.25           1289         167.00       727.13
  622.33        2954.50           1292         156.00       679.18
  622.36        2954.75           1295         167.00       727.13
  622.39        2955.00           1299         167.00       727.13
  622.42        2955.25           1302         171.00       744.57
  622.45        2955.50           1305         173.00       753.29
  622.48        2955.75           1309         163.00       709.69
  622.51        2956.00           1312         151.00       657.38
  622.54        2956.25           1315         157.00       683.54
  622.57        2956.50           1318         163.00       709.69
  622.60        2956.75           1322         156.00       679.18
  622.63        2957.00           1325         163.00       709.69
  622.66        2957.25           1328         153.00       666.10
  622.69        2957.50           1332         158.00       687.89
  622.72        2957.75           1335         163.00       709.69
  622.75        2958.00           1338         155.00       674.82
  622.78        2958.25           1342         157.00       683.54
  622.80        2958.50           1345         169.00       735.85
  622.83        2958.75           1348         167.00       727.13
  622.86        2959.00           1352         158.00       687.89
  622.89        2959.25           1355         148.00       644.30
  622.92        2959.50           1358         158.00       687.89
  622.95        2959.75           1362         164.00       714.05
  622.98        2960.00           1365         164.00       714.05
  623.01        2960.25           1368         174.00       757.64
  623.04        2960.50           1372         182.00       792.52
  623.07        2960.75           1375         188.00       818.68
  623.10        2961.00           1378         194.00       844.83
  623.13        2961.25           1382         242.00      1054.09
  623.16        2961.50           1385         829.00      3613.27
  623.19        2961.75           1388        2219.00      9674.81
  623.22        2962.00           1391        4623.00     20163.08
  623.25        2962.25           1395        9260.00     40411.00
  623.28        2962.50           1398       13321.00     58162.65
  623.31        2962.75           1401       16957.00     74071.52
  623.34        2963.00           1405       21830.00     95414.99
  623.37        2963.25           1408       25303.00    110642.20
  623.40        2963.50           1411       28728.00    125671.60
  623.43        2963.75           1415       34181.00    149626.40
  623.46        2964.00           1418       38285.00    167676.40
  623.49        2964.25           1421       42084.00    184401.30
  623.51        2964.50           1425       46504.00    203879.80
  623.54        2964.75           1428       50624.00    222055.50
  623.57        2965.00           1431       54119.00    237488.50
  623.60        2965.25           1435       59347.00    260599.10
  623.63        2965.50           1438       63447.00    278744.30
  623.66        2965.75           1441       66695.00    293131.90
  623.69        2966.00           1445       70482.00    309922.00
  623.72        2966.25           1448       74863.00    329365.30
  623.75        2966.50           1451       77657.00    341776.50
  623.78        2966.75           1455       79172.00    348509.90
  623.81        2967.00           1458       79456.00    349772.40
  623.84        2967.25           1461       79561.00    350239.20
  623.87        2967.50           1465       79391.00    349483.50
  623.90        2967.75           1468       78860.00    347123.00
  623.93        2968.00           1471       76551.00    336862.50
  623.96        2968.25           1475       72470.00    318742.30
  623.99        2968.50           1478       69506.00    305593.20
  624.02        2968.75           1481       66274.00    291266.40
  624.05        2969.00           1485       62231.00    273360.70
  624.08        2969.25           1488       58431.00    256547.70
  624.11        2969.50           1491       54482.00    239092.20
  624.14        2969.75           1495       49605.00    217558.40
  624.17        2970.00           1498       45531.00    199590.10
  624.19        2970.25           1501       42213.00    184969.50
  624.22        2970.50           1505       37427.00    163901.30
  624.25        2970.75           1508       33407.00    146224.30
  624.28        2971.00           1511       29100.00    127304.80
  624.31        2971.25           1515       24359.00    106502.00
  624.34        2971.50           1518       21466.00     93819.81
  624.37        2971.75           1521       18077.00     78974.80
  624.40        2972.00           1525       13651.00     59605.94
  624.43        2972.25           1528        9672.00     42211.15
  624.46        2972.50           1531        6115.00     26675.54
  624.49        2972.75           1535        2088.00      9103.45
  624.52        2973.00           1538         667.00      2906.95
  624.55        2973.25           1541         321.00      1398.49
  624.58        2973.50           1544         231.00      1006.13
  624.61        2973.75           1548         207.00       901.50
  624.64        2974.00           1551         190.00       827.39
  624.67        2974.25           1554         195.00       849.19
  624.70        2974.50           1558         162.00       705.33
  624.73        2974.75           1561         151.00       657.38
  624.76        2975.00           1564         159.00       692.25
  624.79        2975.25           1568         156.00       679.18
  624.82        2975.50           1571         153.00       666.10
  624.85        2975.75           1574         150.00       653.02
  624.88        2976.00           1578         152.00       661.74
  624.91        2976.25           1581         144.00       626.86
  624.94        2976.50           1584         152.00       661.74
  624.96        2976.75           1588         143.00       622.50
  624.99        2977.00           1591         150.00       653.02
  625.02        2977.25           1595         133.00       578.91
  625.05        2977.50           1598         150.00       653.02
  625.08        2977.75           1601         149.00       648.66
  625.11        2978.00           1605         153.00       666.10
  625.14        2978.25           1608         151.00       657.38
  625.17        2978.50           1611         148.00       644.30
  625.20        2978.75           1615         146.00       635.58
  625.23        2979.00           1618         131.00       570.19
  625.26        2979.25           1621         142.00       618.14
  625.29        2979.50           1625         157.00       683.54
  625.32        2979.75           1628         143.00       622.50
  625.35        2980.00           1631         146.00       635.58
  625.38        2980.25           1635         135.00       587.63
  625.41        2980.50           1638         143.00       622.50
  625.44        2980.75           1641         142.00       618.14
  625.47        2981.00           1645         139.00       605.07
  625.50        2981.25           1648         144.00       626.86
  625.53        2981.50           1651         137.00       596.35
  625.56        2981.75           1655         147.00       639.94
  625.59        2982.00           1658         135.00       587.63
  625.62        2982.25           1661         138.00       600.71
  625.64        2982.50           1665         153.00       666.10
  625.67        2982.75           1668         129.00       561.47
  625.70        2983.00           1671         124.00       539.68
  625.73        2983.25           1675         150.00       653.02
  625.76        2983.50           1678         143.00       622.50
  625.79        2983.75           1681         145.00       631.22
  625.82        2984.00           1685         139.00       605.07
HS scan finished at 10:26:08
end
************************************************************
  HS Scan of (1) Internal mercury lamp
************************************************************
Integration time is 0.2294 seconds per sample
dh100818Delft 52.017-4.35 3.394313pr1000
************************************************************
Dead Time -------------------------  2.8E-08 
Number of Cycles Used -------------  4 
Starting Wavelength (Angstroms) ---  2950 
Final Wavelength (Angstoms) -------  2984 
Wavelength Increment (Angstroms) --  .25 
Filter Wheel #1 Position ---------- (1) Ground quartz diffuser (ND=2.32)
Filter Wheel #2 Position ---------- (1) Neutral Density 0.494



************************************************************
HS scan start time = 14:38:06
Dark Count =  .8 


Time (GMT)  Wavelength (Ang)  Step Number  Raw Counts  Counts/Second

  878.56        2950.00           1232         167.00       724.51
  878.66        2950.25           1236         198.00       859.65
  878.69        2950.50           1239         178.00       772.47
  878.72        2950.75           1242         175.00       759.39
  878.74        2951.00           1246         181.00       785.54
  878.77        2951.25           1249         183.00       794.26
  878.80        2951.50           1252         181.00       785.54
  878.83        2951.75           1256         170.00       737.59
  878.86        2952.00           1259         186.00       807.34
  878.89        2952.25           1262         181.00       785.54
  878.92        2952.50           1265         189.00       820.42
  878.95        2952.75           1269         184.00       798.62
  878.98        2953.00           1272         184.00       798.62
  879.01        2953.25           1275         179.00       776.83
  879.04        2953.50           1279         184.00       798.62
  879.07        2953.75           1282         177.00       768.11
  879.10        2954.00           1285         178.00       772.47
  879.13        2954.25           1289         182.00       789.90
  879.16        2954.50           1292         174.00       755.03
  879.19        2954.75           1295         191.00       829.14
  879.22        2955.00           1299         183.00       794.26
  879.25        2955.25           1302         172.00       746.31
  879.28        2955.50           1305         183.00       794.26
  879.30        2955.75           1309         174.00       755.03
  879.33        2956.00           1312         172.00       746.31
  879.36        2956.25           1315         172.00       746.31
  879.39        2956.50           1318         169.00       733.23
  879.42        2956.75           1322         185.00       802.98
  879.45        2957.00           1325         182.00       789.90
  879.48        2957.25           1328         188.00       816.06
  879.51        2957.50           1332         175.00       759.39
  879.54        2957.75           1335         192.00       833.50
  879.57        2958.00           1338         171.00       741.95
  879.60        2958.25           1342         164.00       711.44
  879.63        2958.50           1345         190.00       824.78
  879.66        2958.75           1348         162.00       702.72
  879.69        2959.00           1352         178.00       772.47
  879.72        2959.25           1355         175.00       759.39
  879.75        2959.50           1358         173.00       750.67
  879.78        2959.75           1362         166.00       720.15
  879.81        2960.00           1365         177.00       768.11
  879.84        2960.25           1368         190.00       824.78
  879.86        2960.50           1372         196.00       850.94
  879.89        2960.75           1375         224.00       973.00
  879.92        2961.00           1378         231.00      1003.52
  879.95        2961.25           1382         294.00      1278.16
  879.98        2961.50           1385         989.00      4308.28
  880.01        2961.75           1388        2913.00     12699.37
  880.04        2962.00           1391        6376.00     27812.41
  880.07        2962.25           1395       12231.00     53393.64
  880.10        2962.50           1398       16476.00     71963.52
  880.13        2962.75           1401       19984.00     87323.97
  880.16        2963.00           1405       25714.00    112442.40
  880.19        2963.25           1408       30392.00    132975.40
  880.22        2963.50           1411       34947.00    152991.40
  880.25        2963.75           1415       41715.00    182773.40
  880.28        2964.00           1418       45672.00    200209.00
  880.31        2964.25           1421       49357.00    216461.50
  880.34        2964.50           1425       55289.00    242655.30
  880.37        2964.75           1428       59744.00    262352.60
  880.40        2965.00           1431       64953.00    285411.30
  880.43        2965.25           1435       70409.00    309595.50
  880.46        2965.50           1438       74203.00    326432.10
  880.49        2965.75           1441       78519.00    345604.70
  880.52        2966.00           1445       84490.00    372163.20
  880.54        2966.25           1448       88757.00    391166.90
  880.57        2966.50           1451       90964.00    401004.00
  880.60        2966.75           1455       92821.00    409285.30
  880.63        2967.00           1458       93069.00    410391.50
  880.66        2967.25           1461       92705.00    408767.80
  880.69        2967.50           1465       92737.00    408910.60
  880.72        2967.75           1468       91492.00    403358.20
  880.75        2968.00           1471       88899.00    391799.60
  880.78        2968.25           1475       84597.00    372639.50
  880.81        2968.50           1478       81720.00    359837.50
  880.84        2968.75           1481       77478.00    340978.50
  880.87        2969.00           1485       71243.00    313295.20
  880.90        2969.25           1488       66711.00    293200.20
  880.93        2969.50           1491       62429.00    274234.50
  880.96        2969.75           1495       57268.00    251402.50
  880.99        2970.00           1498       53065.00    232830.30
  881.02        2970.25           1501       48790.00    213959.80
  881.05        2970.50           1505       42731.00    187248.60
  881.08        2970.75           1508       38124.00    166965.30
  881.11        2971.00           1511       34090.00    149223.80
  881.14        2971.25           1515       28900.00    126424.10
  881.17        2971.50           1518       25091.00    109709.60
  881.20        2971.75           1521       21118.00     92292.25
  881.23        2972.00           1525       14716.00     64262.00
  881.26        2972.25           1528       10245.00     44712.44
  881.28        2972.50           1531        6053.00     26402.25
  881.31        2972.75           1535        1913.00      8337.60
  881.34        2973.00           1538         719.00      3131.05
  881.37        2973.25           1541         336.00      1461.26
  881.40        2973.50           1544         256.00      1112.50
  881.43        2973.75           1548         234.00      1016.59
  881.46        2974.00           1551         218.00       946.84
  881.49        2974.25           1554         212.00       920.69
  881.52        2974.50           1558         184.00       798.62
  881.55        2974.75           1561         186.00       807.34
  881.58        2975.00           1564         166.00       720.15
  881.61        2975.25           1568         172.00       746.31
  881.64        2975.50           1571         167.00       724.51
  881.67        2975.75           1574         163.00       707.08
  881.70        2976.00           1578         165.00       715.79
  881.73        2976.25           1581         161.00       698.36
  881.76        2976.50           1584         174.00       755.03
  881.79        2976.75           1588         165.00       715.79
  881.82        2977.00           1591         162.00       702.72
  881.84        2977.25           1595         165.00       715.79
  881.87        2977.50           1598         163.00       707.08
  881.90        2977.75           1601         174.00       755.03
  881.93        2978.00           1605         168.00       728.87
  881.96        2978.25           1608         166.00       720.15
  881.99        2978.50           1611         158.00       685.28
  882.02        2978.75           1615         151.00       654.76
  882.05        2979.00           1618         160.00       694.00
  882.08        2979.25           1621         150.00       650.40
  882.11        2979.50           1625         154.00       667.84
  882.14        2979.75           1628         161.00       698.36
  882.17        2980.00           1631         166.00       720.15
  882.20        2980.25           1635         165.00       715.79
  882.23        2980.50           1638         164.00       711.44
  882.26        2980.75           1641         151.00       654.76
  882.29        2981.00           1645         149.00       646.04
  882.32        2981.25           1648         156.00       676.56
  882.35        2981.50           1651         160.00       694.00
  882.38        2981.75           1655         165.00       715.79
  882.41        2982.00           1658         156.00       676.56
  882.44        2982.25           1661         158.00       685.28
  882.46        2982.50           1665         152.00       659.12
  882.49        2982.75           1668         155.00       672.20
  882.52        2983.00           1671         153.00       663.48
  882.55        2983.25           1675         152.00       659.12
  882.58        2983.50           1678         146.00       632.97
  882.61        2983.75           1681         156.00       676.56
  882.64        2984.00           1685         144.00       624.25
HS scan finished at 14:42:57
end
************************************************************
  HS Scan of (1) Internal mercury lamp
************************************************************
Integration time is 0.2294 seconds per sample
dh100818Delft 52.017-4.35 3.340665pr1000
************************************************************
Dead Time -------------------------  2.8E-08 
Number of Cycles Used -------------  4 
Starting Wavelength (Angstroms) ---  2950 
Final Wavelength (Angstoms) -------  2984 
Wavelength Increment (Angstroms) --  .25 
Filter Wheel #1 Position ---------- (1) Ground quartz diffuser (ND=2.32)
Filter Wheel #2 Position ---------- (1) Neutral Density 0.494



************************************************************
HS scan start time = 16:25:14
Dark Count =  .9 


Time (GMT)  Wavelength (Ang)  Step Number  Raw Counts  Counts/Second

  985.69        2950.00           1232         192.00       833.06
  985.79        2950.25           1236         190.00       824.34
  985.82        2950.50           1239         186.00       806.91
  985.85        2950.75           1242         185.00       802.55
  985.88        2951.00           1246         187.00       811.27
  985.91        2951.25           1249         191.00       828.70
  985.94        2951.50           1252         192.00       833.06
  985.96        2951.75           1256         190.00       824.34
  985.99        2952.00           1259         193.00       837.42
  986.02        2952.25           1262         199.00       863.58
  986.05        2952.50           1265         190.00       824.34
  986.08        2952.75           1269         185.00       802.55
  986.11        2953.00           1272         188.00       815.62
  986.14        2953.25           1275         188.00       815.62
  986.17        2953.50           1279         190.00       824.34
  986.20        2953.75           1282         188.00       815.62
  986.23        2954.00           1285         193.00       837.42
  986.26        2954.25           1289         196.00       850.50
  986.29        2954.50           1292         187.00       811.27
  986.32        2954.75           1295         184.00       798.19
  986.35        2955.00           1299         167.00       724.08
  986.37        2955.25           1302         178.00       772.03
  986.40        2955.50           1305         191.00       828.70
  986.43        2955.75           1309         186.00       806.91
  986.46        2956.00           1312         194.00       841.78
  986.49        2956.25           1315         188.00       815.62
  986.52        2956.50           1318         182.00       789.47
  986.55        2956.75           1322         196.00       850.50
  986.58        2957.00           1325         186.00       806.91
  986.61        2957.25           1328         188.00       815.62
  986.64        2957.50           1332         190.00       824.34
  986.67        2957.75           1335         181.00       785.11
  986.70        2958.00           1338         179.00       776.39
  986.73        2958.25           1342         211.00       915.89
  986.76        2958.50           1345         180.00       780.75
  986.79        2958.75           1348         175.00       758.95
  986.81        2959.00           1352         183.00       793.83
  986.84        2959.25           1355         166.00       719.72
  986.87        2959.50           1358         165.00       715.36
  986.90        2959.75           1362         182.00       789.47
  986.93        2960.00           1365         187.00       811.27
  986.96        2960.25           1368         191.00       828.70
  986.99        2960.50           1372         202.00       876.66
  987.02        2960.75           1375         204.00       885.38
  987.05        2961.00           1378         219.00       950.77
  987.08        2961.25           1382         302.00      1312.60
  987.11        2961.50           1385        1116.00      4861.60
  987.14        2961.75           1388        2956.00     12886.52
  987.17        2962.00           1391        5494.00     23961.58
  987.20        2962.25           1395       10358.00     45205.83
  987.23        2962.50           1398       14613.00     63810.94
  987.26        2962.75           1401       19266.00     84178.56
  987.29        2963.00           1405       26004.00    113714.20
  987.32        2963.25           1408       29831.00    130511.40
  987.35        2963.50           1411       33934.00    148537.60
  987.38        2963.75           1415       40335.00    176696.40
  987.41        2964.00           1418       45054.00    197484.40
  987.44        2964.25           1421       49612.00    217586.20
  987.47        2964.50           1425       55106.00    241846.20
  987.50        2964.75           1428       59151.00    259729.00
  987.53        2965.00           1431       63301.00    278094.70
  987.56        2965.25           1435       70243.00    308858.80
  987.59        2965.50           1438       74256.00    326667.00
  987.61        2965.75           1441       78492.00    345484.20
  987.64        2966.00           1445       84729.00    373226.60
  987.67        2966.25           1448       88833.00    391505.00
  987.70        2966.50           1451       91512.00    403446.90
  987.73        2966.75           1455       92989.00    410034.20
  987.76        2967.00           1458       93009.00    410123.40
  987.79        2967.25           1461       93137.00    410694.40
  987.82        2967.50           1465       92700.00    408745.10
  987.85        2967.75           1468       91992.00    405587.50
  987.88        2968.00           1471       90555.00    399180.10
  987.91        2968.25           1475       85490.00    376614.60
  987.94        2968.50           1478       81006.00    356661.40
  987.97        2968.75           1481       76753.00    337756.80
  988.00        2969.00           1485       71509.00    314474.90
  988.03        2969.25           1488       67414.00    296315.40
  988.06        2969.50           1491       62816.00    275947.40
  988.09        2969.75           1495       57494.00    252401.30
  988.12        2970.00           1498       53095.00    232962.40
  988.14        2970.25           1501       49608.00    217568.60
  988.17        2970.50           1505       43843.00    192147.40
  988.20        2970.75           1508       39585.00    173394.70
  988.23        2971.00           1511       34971.00    153096.50
  988.26        2971.25           1515       29167.00    127595.90
  988.29        2971.50           1518       24963.00    109147.80
  988.32        2971.75           1521       20639.00     90193.05
  988.35        2972.00           1525       15235.00     66532.28
  988.38        2972.25           1528       11011.00     48059.83
  988.41        2972.50           1531        6959.00     30357.53
  988.44        2972.75           1535        2295.00     10003.24
  988.47        2973.00           1538         924.00      4024.43
  988.50        2973.25           1541         449.00      1953.46
  988.53        2973.50           1544         260.00      1129.50
  988.56        2973.75           1548         247.00      1072.83
  988.59        2974.00           1551         217.00       942.05
  988.62        2974.25           1554         203.00       881.02
  988.64        2974.50           1558         179.00       776.39
  988.67        2974.75           1561         190.00       824.34
  988.70        2975.00           1564         174.00       754.59
  988.73        2975.25           1568         175.00       758.95
  988.76        2975.50           1571         177.00       767.67
  988.79        2975.75           1574         166.00       719.72
  988.82        2976.00           1578         163.00       706.64
  988.85        2976.25           1581         174.00       754.59
  988.88        2976.50           1584         171.00       741.52
  988.91        2976.75           1588         170.00       737.16
  988.94        2977.00           1591         153.00       663.05
  988.97        2977.25           1595         162.00       702.28
  989.00        2977.50           1598         175.00       758.95
  989.03        2977.75           1601         156.00       676.12
  989.06        2978.00           1605         162.00       702.28
  989.08        2978.25           1608         169.00       732.80
  989.11        2978.50           1611         169.00       732.80
  989.14        2978.75           1615         159.00       689.20
  989.17        2979.00           1618         157.00       680.48
  989.20        2979.25           1621         150.00       649.97
  989.23        2979.50           1625         167.00       724.08
  989.26        2979.75           1628         160.00       693.56
  989.29        2980.00           1631         170.00       737.16
  989.32        2980.25           1635         158.00       684.84
  989.35        2980.50           1638         156.00       676.12
  989.38        2980.75           1641         162.00       702.28
  989.41        2981.00           1645         157.00       680.48
  989.44        2981.25           1648         164.00       711.00
  989.47        2981.50           1651         165.00       715.36
  989.50        2981.75           1655         171.00       741.52
  989.52        2982.00           1658         162.00       702.28
  989.55        2982.25           1661         159.00       689.20
  989.58        2982.50           1665         151.00       654.33
  989.61        2982.75           1668         140.00       606.37
  989.64        2983.00           1671         159.00       689.20
  989.67        2983.25           1675         150.00       649.97
  989.70        2983.50           1678         154.00       667.41
  989.73        2983.75           1681         162.00       702.28
  989.76        2984.00           1685         156.00       676.12
HS scan finished at 16:30:04
end
************************************************************
  HS Scan of (1) Internal mercury lamp
************************************************************
Integration time is 0.2294 seconds per sample
dh100818Delft 52.017-4.35 3.340665pr1000
************************************************************
Dead Time -------------------------  2.8E-08 
Number of Cycles Used -------------  4 
Starting Wavelength (Angstroms) ---  2950 
Final Wavelength (Angstoms) -------  2984 
Wavelength Increment (Angstroms) --  .25 
Filter Wheel #1 Position ---------- (1) Ground quartz diffuser (ND=2.32)
Filter Wheel #2 Position ---------- (1) Neutral Density 0.494



************************************************************
HS scan start time = 18:12:21
Dark Count =  .8 


Time (GMT)  Wavelength (Ang)  Step Number  Raw Counts  Counts/Second

 1092.80        2950.00           1232         183.00       794.26
 1092.90        2950.25           1236         187.00       811.70
 1092.93        2950.50           1239         186.00       807.34
 1092.96        2950.75           1242         193.00       837.86
 1092.99        2951.00           1246         194.00       842.22
 1093.02        2951.25           1249         182.00       789.90
 1093.05        2951.50           1252         190.00       824.78
 1093.08        2951.75           1256         196.00       850.94
 1093.11        2952.00           1259         179.00       776.83
 1093.14        2952.25           1262         193.00       837.86
 1093.17        2952.50           1265         186.00       807.34
 1093.20        2952.75           1269         175.00       759.39
 1093.23        2953.00           1272         191.00       829.14
 1093.26        2953.25           1275         179.00       776.83
 1093.29        2953.50           1279         187.00       811.70
 1093.31        2953.75           1282         185.00       802.98
 1093.34        2954.00           1285         175.00       759.39
 1093.37        2954.25           1289         184.00       798.62
 1093.40        2954.50           1292         181.00       785.54
 1093.43        2954.75           1295         177.00       768.11
 1093.46        2955.00           1299         193.00       837.86
 1093.49        2955.25           1302         179.00       776.83
 1093.52        2955.50           1305         177.00       768.11
 1093.55        2955.75           1309         172.00       746.31
 1093.58        2956.00           1312         184.00       798.62
 1093.61        2956.25           1315         190.00       824.78
 1093.64        2956.50           1318         187.00       811.70
 1093.67        2956.75           1322         182.00       789.90
 1093.70        2957.00           1325         186.00       807.34
 1093.73        2957.25           1328         186.00       807.34
 1093.75        2957.50           1332         188.00       816.06
 1093.78        2957.75           1335         195.00       846.58
 1093.81        2958.00           1338         187.00       811.70
 1093.84        2958.25           1342         190.00       824.78
 1093.87        2958.50           1345         182.00       789.90
 1093.90        2958.75           1348         164.00       711.44
 1093.93        2959.00           1352         180.00       781.19
 1093.96        2959.25           1355         171.00       741.95
 1093.99        2959.50           1358         183.00       794.26
 1094.02        2959.75           1362         183.00       794.26
 1094.05        2960.00           1365         176.00       763.75
 1094.08        2960.25           1368         190.00       824.78
 1094.11        2960.50           1372         196.00       850.94
 1094.14        2960.75           1375         208.00       903.25
 1094.17        2961.00           1378         248.00      1077.63
 1094.19        2961.25           1382         270.00      1173.53
 1094.22        2961.50           1385         802.00      3492.93
 1094.25        2961.75           1388        2600.00     11334.03
 1094.28        2962.00           1391        5907.00     25764.88
 1094.31        2962.25           1395       10865.00     47422.13
 1094.34        2962.50           1398       14670.00     64060.75
 1094.37        2962.75           1401       18585.00     81196.60
 1094.40        2963.00           1405       24936.00    109029.80
 1094.43        2963.25           1408       30207.00    132163.00
 1094.46        2963.50           1411       35005.00    153246.40
 1094.49        2963.75           1415       40641.00    178044.10
 1094.52        2964.00           1418       44440.00    194778.70
 1094.55        2964.25           1421       48903.00    214458.30
 1094.58        2964.50           1425       55268.00    242562.50
 1094.61        2964.75           1428       59602.00    261724.40
 1094.64        2965.00           1431       64541.00    283586.40
 1094.67        2965.25           1435       70632.00    310584.70
 1094.69        2965.50           1438       74951.00    329753.40
 1094.72        2965.75           1441       79602.00    350418.80
 1094.75        2966.00           1445       84632.00    372795.30
 1094.78        2966.25           1448       89019.00    392334.30
 1094.81        2966.50           1451       91875.00    405066.10
 1094.84        2966.75           1455       93026.00    410199.80
 1094.87        2967.00           1458       93503.00    412327.60
 1094.90        2967.25           1461       93671.00    413077.20
 1094.93        2967.50           1465       93076.00    410422.80
 1094.96        2967.75           1468       92088.00    406016.00
 1094.99        2968.00           1471       90592.00    399345.50
 1095.02        2968.25           1475       86100.00    379331.20
 1095.05        2968.50           1478       81987.00    361025.20
 1095.08        2968.75           1481       77571.00    341391.70
 1095.11        2969.00           1485       71877.00    316108.10
 1095.14        2969.25           1488       68241.00    299981.70
 1095.17        2969.50           1491       64345.00    282718.30
 1095.20        2969.75           1495       59284.00    260317.70
 1095.23        2970.00           1498       54946.00    241139.70
 1095.25        2970.25           1501       50160.00    220005.00
 1095.28        2970.50           1505       44412.00    194655.30
 1095.31        2970.75           1508       39348.00    172352.00
 1095.34        2971.00           1511       34373.00    150467.80
 1095.37        2971.25           1515       29413.00    128676.40
 1095.40        2971.50           1518       25127.00    109867.60
 1095.43        2971.75           1521       20601.00     90027.00
 1095.46        2972.00           1525       15112.00     65994.55
 1095.49        2972.25           1528       11670.00     50940.97
 1095.52        2972.50           1531        7768.00     33890.91
 1095.55        2972.75           1535        2835.00     12359.11
 1095.58        2973.00           1538        1036.00      4513.21
 1095.61        2973.25           1541         383.00      1666.16
 1095.64        2973.50           1544         265.00      1151.74
 1095.67        2973.75           1548         247.00      1073.27
 1095.70        2974.00           1551         215.00       933.76
 1095.73        2974.25           1554         211.00       916.33
 1095.76        2974.50           1558         194.00       842.22
 1095.79        2974.75           1561         168.00       728.87
 1095.81        2975.00           1564         170.00       737.59
 1095.84        2975.25           1568         176.00       763.75
 1095.87        2975.50           1571         162.00       702.72
 1095.90        2975.75           1574         182.00       789.90
 1095.93        2976.00           1578         153.00       663.48
 1095.96        2976.25           1581         172.00       746.31
 1095.99        2976.50           1584         168.00       728.87
 1096.02        2976.75           1588         173.00       750.67
 1096.05        2977.00           1591         163.00       707.08
 1096.08        2977.25           1595         168.00       728.87
 1096.11        2977.50           1598         157.00       680.92
 1096.14        2977.75           1601         169.00       733.23
 1096.17        2978.00           1605         159.00       689.64
 1096.20        2978.25           1608         169.00       733.23
 1096.23        2978.50           1611         156.00       676.56
 1096.25        2978.75           1615         159.00       689.64
 1096.28        2979.00           1618         158.00       685.28
 1096.31        2979.25           1621         170.00       737.59
 1096.34        2979.50           1625         150.00       650.40
 1096.37        2979.75           1628         167.00       724.51
 1096.40        2980.00           1631         161.00       698.36
 1096.43        2980.25           1635         167.00       724.51
 1096.46        2980.50           1638         146.00       632.97
 1096.49        2980.75           1641         142.00       615.53
 1096.52        2981.00           1645         165.00       715.79
 1096.55        2981.25           1648         163.00       707.08
 1096.58        2981.50           1651         157.00       680.92
 1096.61        2981.75           1655         162.00       702.72
 1096.64        2982.00           1658         155.00       672.20
 1096.66        2982.25           1661         159.00       689.64
 1096.69        2982.50           1665         162.00       702.72
 1096.72        2982.75           1668         161.00       698.36
 1096.75        2983.00           1671         146.00       632.97
 1096.78        2983.25           1675         155.00       672.20
 1096.81        2983.50           1678         154.00       667.84
 1096.84        2983.75           1681         163.00       707.08
 1096.87        2984.00           1685         148.00       641.69
HS scan finished at 18:17:11
end
