************************************************************
  HS Scan of (1) Internal mercury lamp
************************************************************
Integration time is 0.2294 seconds per sample
dh260817Hanoi 21.021-105.808 3.394313pr1000
************************************************************
Dead Time -------------------------  3E-08 
Number of Cycles Used -------------  4 
Starting Wavelength (Angstroms) ---  2950 
Final Wavelength (Angstoms) -------  2984 
Wavelength Increment (Angstroms) --  .25 
Filter Wheel #1 Position ---------- (1) Ground quartz diffuser (ND=2.32)
Filter Wheel #2 Position ---------- (1) Neutral Density 0.494



************************************************************
HS scan start time = 22:04:45
Dark Count =  .4 


Time (GMT)  Wavelength (Ang)  Step Number  Raw Counts  Counts/Second

 1325.19        2950.00           1229         111.00       482.13
 1325.29        2950.25           1232          93.00       403.67
 1325.32        2950.50           1236         102.00       442.90
 1325.35        2950.75           1239         103.00       447.26
 1325.38        2951.00           1242         103.00       447.26
 1325.41        2951.25           1246         100.00       434.18
 1325.44        2951.50           1249         106.00       460.34
 1325.46        2951.75           1252         102.00       442.90
 1325.49        2952.00           1255         101.00       438.54
 1325.52        2952.25           1259         103.00       447.26
 1325.55        2952.50           1262          96.00       416.74
 1325.57        2952.75           1265          98.00       425.46
 1325.60        2953.00           1269          95.00       412.39
 1325.63        2953.25           1272          97.00       421.10
 1325.66        2953.50           1275          88.00       381.87
 1325.68        2953.75           1279          97.00       421.10
 1325.71        2954.00           1282          94.00       408.03
 1325.74        2954.25           1285          99.00       429.82
 1325.77        2954.50           1289          91.00       394.95
 1325.79        2954.75           1292          95.00       412.39
 1325.82        2955.00           1295          92.00       399.31
 1325.85        2955.25           1299          96.00       416.74
 1325.88        2955.50           1302          86.00       373.15
 1325.91        2955.75           1305          99.00       429.82
 1325.93        2956.00           1309         100.00       434.18
 1325.96        2956.25           1312          98.00       425.46
 1325.99        2956.50           1315          99.00       429.82
 1326.02        2956.75           1319         100.00       434.18
 1326.04        2957.00           1322          97.00       421.10
 1326.07        2957.25           1325          94.00       408.03
 1326.10        2957.50           1329          91.00       394.95
 1326.13        2957.75           1332          98.00       425.46
 1326.15        2958.00           1335         103.00       447.26
 1326.18        2958.25           1339          99.00       429.82
 1326.21        2958.50           1342          95.00       412.39
 1326.24        2958.75           1345          94.00       408.03
 1326.27        2959.00           1349          94.00       408.03
 1326.29        2959.25           1352          91.00       394.95
 1326.32        2959.50           1355          86.00       373.15
 1326.35        2959.75           1359          89.00       386.23
 1326.37        2960.00           1362          94.00       408.03
 1326.40        2960.25           1365          90.00       390.59
 1326.43        2960.50           1369         105.00       455.98
 1326.46        2960.75           1372         111.00       482.13
 1326.48        2961.00           1375         107.00       464.70
 1326.51        2961.25           1379         133.00       578.04
 1326.54        2961.50           1382         214.00       931.15
 1326.57        2961.75           1385        1069.00      4658.89
 1326.59        2962.00           1389        3325.00     14498.90
 1326.62        2962.25           1392        5658.00     24680.87
 1326.65        2962.50           1395        8486.00     37031.52
 1326.68        2962.75           1399       13017.00     56838.77
 1326.70        2963.00           1402       16000.00     69891.81
 1326.73        2963.25           1405       19669.00     85960.72
 1326.76        2963.50           1409       24009.00    104988.40
 1326.79        2963.75           1412       27009.00    118153.90
 1326.81        2964.00           1415       30551.00    133711.40
 1326.84        2964.25           1419       35187.00    154096.10
 1326.87        2964.50           1422       38005.00    166499.20
 1326.90        2964.75           1425       41953.00    183891.40
 1326.92        2965.00           1429       46535.00    204099.40
 1326.95        2965.25           1432       49735.00    218227.00
 1326.98        2965.50           1435       53378.00    234325.00
 1327.01        2965.75           1439       57320.00    251761.90
 1327.03        2966.00           1442       60555.00    266085.10
 1327.06        2966.25           1445       63199.00    277800.80
 1327.09        2966.50           1449       66566.00    292732.10
 1327.12        2966.75           1452       67845.00    298407.60
 1327.15        2967.00           1455       68693.00    302171.50
 1327.17        2967.25           1459       69092.00    303942.80
 1327.20        2967.50           1462       69086.00    303916.20
 1327.23        2967.75           1465       69102.00    303987.20
 1327.25        2968.00           1469       67660.00    297586.50
 1327.28        2968.25           1472       65577.00    288345.00
 1327.31        2968.50           1475       62905.00    276497.70
 1327.34        2968.75           1479       58723.00    257972.30
 1327.36        2969.00           1482       55746.00    244797.30
 1327.39        2969.25           1485       53183.00    233462.90
 1327.42        2969.50           1489       49142.00    215608.10
 1327.45        2969.75           1492       45808.00    200891.50
 1327.48        2970.00           1495       42624.00    186849.20
 1327.50        2970.25           1499       38193.00    167327.00
 1327.53        2970.50           1502       34288.00    150141.20
 1327.56        2970.75           1505       30750.00    134585.90
 1327.59        2971.00           1509       27241.00    119172.50
 1327.61        2971.25           1512       23917.00    104584.80
 1327.64        2971.50           1515       20874.00     91241.56
 1327.67        2971.75           1519       16454.00     71879.34
 1327.70        2972.00           1522       14159.00     61834.74
 1327.72        2972.25           1525       10820.00     47231.66
 1327.75        2972.50           1529        6680.00     29143.17
 1327.78        2972.75           1532        3711.00     16183.10
 1327.80        2973.00           1536         792.00      3451.10
 1327.83        2973.25           1539         274.00      1192.72
 1327.86        2973.50           1542         176.00       765.49
 1327.89        2973.75           1546         138.00       599.84
 1327.91        2974.00           1549         143.00       621.63
 1327.94        2974.25           1552         121.00       525.73
 1327.97        2974.50           1556         115.00       499.57
 1328.00        2974.75           1559         109.00       473.42
 1328.02        2975.00           1562          95.00       412.39
 1328.05        2975.25           1566          97.00       421.10
 1328.08        2975.50           1569          89.00       386.23
 1328.11        2975.75           1572          94.00       408.03
 1328.13        2976.00           1576         105.00       455.98
 1328.16        2976.25           1579          90.00       390.59
 1328.19        2976.50           1582          84.00       364.43
 1328.22        2976.75           1586          93.00       403.67
 1328.24        2977.00           1589          90.00       390.59
 1328.27        2977.25           1592          96.00       416.74
 1328.30        2977.50           1596          91.00       394.95
 1328.32        2977.75           1599          86.00       373.15
 1328.35        2978.00           1602          96.00       416.74
 1328.38        2978.25           1606          82.00       355.71
 1328.41        2978.50           1609          94.00       408.03
 1328.43        2978.75           1612          94.00       408.03
 1328.46        2979.00           1616         105.00       455.98
 1328.49        2979.25           1619          84.00       364.43
 1328.52        2979.50           1623          91.00       394.95
 1328.54        2979.75           1626          87.00       377.51
 1328.57        2980.00           1629          84.00       364.43
 1328.60        2980.25           1633          95.00       412.39
 1328.63        2980.50           1636          95.00       412.39
 1328.65        2980.75           1639          82.00       355.71
 1328.68        2981.00           1643          90.00       390.59
 1328.71        2981.25           1646          87.00       377.51
 1328.74        2981.50           1649          82.00       355.71
 1328.76        2981.75           1653          89.00       386.23
 1328.79        2982.00           1656          92.00       399.31
 1328.82        2982.25           1659          88.00       381.87
 1328.85        2982.50           1663          96.00       416.74
 1328.87        2982.75           1666          89.00       386.23
 1328.90        2983.00           1669          89.00       386.23
 1328.93        2983.25           1673          81.00       351.36
 1328.95        2983.50           1676          78.00       338.28
 1328.98        2983.75           1679          90.00       390.59
 1329.01        2984.00           1683          89.00       386.23
HS scan finished at 22:09:18
end
