************************************************************
  HS Scan of (1) Internal mercury lamp
************************************************************
Integration time is 0.2294 seconds per sample
dh310817Hanoi 21.021-105.808 3.555258pr1000
************************************************************
Dead Time -------------------------  3E-08 
Number of Cycles Used -------------  4 
Starting Wavelength (Angstroms) ---  2950 
Final Wavelength (Angstoms) -------  2984 
Wavelength Increment (Angstroms) --  .25 
Filter Wheel #1 Position ---------- (1) Ground quartz diffuser (ND=2.32)
Filter Wheel #2 Position ---------- (1) Neutral Density 0.494



************************************************************
HS scan start time = 17:34:06
Dark Count =  .3 


Time (GMT)  Wavelength (Ang)  Step Number  Raw Counts  Counts/Second

 1054.55        2950.00           1229          87.00       377.95
 1054.65        2950.25           1232          91.00       395.38
 1054.67        2950.50           1236          89.00       386.67
 1054.70        2950.75           1239          92.00       399.74
 1054.73        2951.00           1242          93.00       404.10
 1054.76        2951.25           1246          88.00       382.31
 1054.78        2951.50           1249          86.00       373.59
 1054.81        2951.75           1252          89.00       386.67
 1054.84        2952.00           1255          90.00       391.02
 1054.87        2952.25           1259          90.00       391.02
 1054.89        2952.50           1262          90.00       391.02
 1054.92        2952.75           1265          86.00       373.59
 1054.95        2953.00           1269          81.00       351.79
 1054.98        2953.25           1272          90.00       391.02
 1055.00        2953.50           1275          92.00       399.74
 1055.03        2953.75           1279          86.00       373.59
 1055.06        2954.00           1282          86.00       373.59
 1055.09        2954.25           1285          98.00       425.90
 1055.11        2954.50           1289          92.00       399.74
 1055.14        2954.75           1292          85.00       369.23
 1055.17        2955.00           1295          88.00       382.31
 1055.20        2955.25           1299          88.00       382.31
 1055.22        2955.50           1302          86.00       373.59
 1055.25        2955.75           1305          84.00       364.87
 1055.28        2956.00           1309          96.00       417.18
 1055.30        2956.25           1312          91.00       395.38
 1055.33        2956.50           1315          86.00       373.59
 1055.36        2956.75           1319          87.00       377.95
 1055.39        2957.00           1322          81.00       351.79
 1055.41        2957.25           1325          83.00       360.51
 1055.44        2957.50           1329          77.00       334.35
 1055.47        2957.75           1332          94.00       408.46
 1055.50        2958.00           1335          91.00       395.38
 1055.52        2958.25           1339          86.00       373.59
 1055.55        2958.50           1342          85.00       369.23
 1055.58        2958.75           1345          88.00       382.31
 1055.61        2959.00           1349          87.00       377.95
 1055.63        2959.25           1352          90.00       391.02
 1055.66        2959.50           1355          80.00       347.43
 1055.69        2959.75           1359          82.00       356.15
 1055.72        2960.00           1362          93.00       404.10
 1055.74        2960.25           1365          88.00       382.31
 1055.77        2960.50           1369          94.00       408.46
 1055.80        2960.75           1372         101.00       438.98
 1055.83        2961.00           1375         112.00       486.93
 1055.85        2961.25           1379         119.00       517.44
 1055.88        2961.50           1382         175.00       761.57
 1055.91        2961.75           1385         731.00      3185.57
 1055.94        2962.00           1389        3276.00     14285.55
 1055.96        2962.25           1392        5809.00     25340.53
 1055.99        2962.50           1395        9139.00     39885.10
 1056.02        2962.75           1399       13728.00     59949.48
 1056.05        2963.00           1402       17021.00     74362.31
 1056.07        2963.25           1405       20721.00     90571.39
 1056.10        2963.50           1409       25641.00    112149.60
 1056.13        2963.75           1412       29120.00    127424.70
 1056.16        2964.00           1415       32699.00    143153.60
 1056.18        2964.25           1419       36527.00    159993.20
 1056.21        2964.50           1422       39447.00    172850.00
 1056.24        2964.75           1425       42674.00    187070.00
 1056.27        2965.00           1429       47005.00    206174.10
 1056.30        2965.25           1432       50707.00    222521.10
 1056.32        2965.50           1435       53646.00    235510.30
 1056.35        2965.75           1439       57836.00    254046.10
 1056.38        2966.00           1442       61299.00    269381.40
 1056.41        2966.25           1445       64084.00    281724.60
 1056.43        2966.50           1449       68496.00    301297.50
 1056.46        2966.75           1452       70351.00    309533.70
 1056.49        2967.00           1455       70856.00    311776.60
 1056.52        2967.25           1459       70854.00    311767.70
 1056.54        2967.50           1462       70910.00    312016.50
 1056.57        2967.75           1465       70886.00    311909.80
 1056.60        2968.00           1469       69966.00    307823.90
 1056.62        2968.25           1472       67510.00    296921.30
 1056.65        2968.50           1475       64499.00    283564.60
 1056.68        2968.75           1479       60656.00    266532.90
 1056.71        2969.00           1482       57016.00    250417.00
 1056.73        2969.25           1485       53896.00    236615.70
 1056.76        2969.50           1489       49586.00    217569.40
 1056.79        2969.75           1492       46909.00    205750.40
 1056.82        2970.00           1495       44058.00    193172.50
 1056.85        2970.25           1499       39754.00    174202.30
 1056.88        2970.50           1502       36268.00    158853.30
 1056.91        2970.75           1505       32484.00    142208.30
 1056.93        2971.00           1509       27701.00    121192.70
 1056.96        2971.25           1512       24732.00    108160.80
 1056.99        2971.50           1515       21488.00     93933.46
 1057.02        2971.75           1519       17372.00     75899.30
 1057.04        2972.00           1522       14057.00     61388.90
 1057.07        2972.25           1525       10461.00     45662.77
 1057.10        2972.50           1529        6512.00     28410.00
 1057.13        2972.75           1532        3862.00     16842.42
 1057.15        2973.00           1536        1266.00      5518.35
 1057.18        2973.25           1539         402.00      1751.18
 1057.21        2973.50           1542         157.00       683.10
 1057.24        2973.75           1546         148.00       643.87
 1057.26        2974.00           1549         126.00       547.96
 1057.29        2974.25           1552         114.00       495.65
 1057.32        2974.50           1556         113.00       491.29
 1057.35        2974.75           1559          99.00       430.26
 1057.37        2975.00           1562          97.00       421.54
 1057.40        2975.25           1566          93.00       404.10
 1057.43        2975.50           1569          96.00       417.18
 1057.46        2975.75           1572          83.00       360.51
 1057.48        2976.00           1576          84.00       364.87
 1057.51        2976.25           1579          79.00       343.07
 1057.54        2976.50           1582          92.00       399.74
 1057.57        2976.75           1586          84.00       364.87
 1057.59        2977.00           1589          89.00       386.67
 1057.62        2977.25           1592          83.00       360.51
 1057.65        2977.50           1596          85.00       369.23
 1057.68        2977.75           1599          87.00       377.95
 1057.70        2978.00           1602          77.00       334.35
 1057.73        2978.25           1606          81.00       351.79
 1057.76        2978.50           1609          84.00       364.87
 1057.78        2978.75           1612          76.00       329.99
 1057.81        2979.00           1616          86.00       373.59
 1057.84        2979.25           1619          76.00       329.99
 1057.87        2979.50           1623          85.00       369.23
 1057.89        2979.75           1626          86.00       373.59
 1057.92        2980.00           1629          79.00       343.07
 1057.95        2980.25           1633          74.00       321.28
 1057.98        2980.50           1636          85.00       369.23
 1058.00        2980.75           1639          77.00       334.35
 1058.03        2981.00           1643          81.00       351.79
 1058.06        2981.25           1646          82.00       356.15
 1058.09        2981.50           1649          82.00       356.15
 1058.11        2981.75           1653          80.00       347.43
 1058.14        2982.00           1656          71.00       308.20
 1058.17        2982.25           1659          78.00       338.71
 1058.20        2982.50           1663          77.00       334.35
 1058.22        2982.75           1666          74.00       321.28
 1058.25        2983.00           1669          80.00       347.43
 1058.28        2983.25           1673          81.00       351.79
 1058.31        2983.50           1676          92.00       399.74
 1058.33        2983.75           1679          78.00       338.71
 1058.36        2984.00           1683          74.00       321.28
HS scan finished at 17:38:39
end
************************************************************
  HS Scan of (1) Internal mercury lamp
************************************************************
Integration time is 0.2294 seconds per sample
dh310817Hanoi 21.021-105.808 3.555258pr1000
************************************************************
Dead Time -------------------------  3E-08 
Number of Cycles Used -------------  4 
Starting Wavelength (Angstroms) ---  2950 
Final Wavelength (Angstoms) -------  2984 
Wavelength Increment (Angstroms) --  .25 
Filter Wheel #1 Position ---------- (1) Ground quartz diffuser (ND=2.32)
Filter Wheel #2 Position ---------- (1) Neutral Density 0.494



************************************************************
HS scan start time = 22:06:40
Dark Count =  .2 


Time (GMT)  Wavelength (Ang)  Step Number  Raw Counts  Counts/Second

 1327.12        2950.00           1229          99.00       430.69
 1327.22        2950.25           1232          90.00       391.46
 1327.24        2950.50           1236          94.00       408.90
 1327.27        2950.75           1239          93.00       404.54
 1327.30        2951.00           1242         100.00       435.05
 1327.33        2951.25           1246          91.00       395.82
 1327.35        2951.50           1249          94.00       408.90
 1327.38        2951.75           1252          88.00       382.74
 1327.41        2952.00           1255          96.00       417.62
 1327.44        2952.25           1259          88.00       382.74
 1327.47        2952.50           1262          92.00       400.18
 1327.49        2952.75           1265          89.00       387.10
 1327.52        2953.00           1269          85.00       369.66
 1327.55        2953.25           1272          94.00       408.90
 1327.58        2953.50           1275          97.00       421.98
 1327.62        2953.75           1279          88.00       382.74
 1327.65        2954.00           1282          91.00       395.82
 1327.67        2954.25           1285          92.00       400.18
 1327.70        2954.50           1289          97.00       421.98
 1327.73        2954.75           1292          90.00       391.46
 1327.76        2955.00           1295         100.00       435.05
 1327.78        2955.25           1299          84.00       365.30
 1327.81        2955.50           1302         101.00       439.41
 1327.84        2955.75           1305          91.00       395.82
 1327.87        2956.00           1309          87.00       378.38
 1327.90        2956.25           1312          93.00       404.54
 1327.92        2956.50           1315         102.00       443.77
 1327.95        2956.75           1319          86.00       374.02
 1327.98        2957.00           1322          93.00       404.54
 1328.01        2957.25           1325          87.00       378.38
 1328.03        2957.50           1329          93.00       404.54
 1328.06        2957.75           1332          94.00       408.90
 1328.09        2958.00           1335          90.00       391.46
 1328.12        2958.25           1339          93.00       404.54
 1328.14        2958.50           1342          95.00       413.26
 1328.17        2958.75           1345          91.00       395.82
 1328.20        2959.00           1349          92.00       400.18
 1328.23        2959.25           1352          84.00       365.30
 1328.25        2959.50           1355          82.00       356.59
 1328.28        2959.75           1359         100.00       435.05
 1328.31        2960.00           1362         101.00       439.41
 1328.34        2960.25           1365          95.00       413.26
 1328.36        2960.50           1369         106.00       461.21
 1328.39        2960.75           1372         112.00       487.37
 1328.42        2961.00           1375         111.00       483.01
 1328.45        2961.25           1379         132.00       574.55
 1328.48        2961.50           1382         185.00       805.60
 1328.50        2961.75           1385         879.00      3831.30
 1328.53        2962.00           1389        3350.00     14608.84
 1328.56        2962.25           1392        5996.00     26157.40
 1328.59        2962.50           1395        9386.00     40964.87
 1328.61        2962.75           1399       14045.00     61336.83
 1328.64        2963.00           1402       17371.00     75895.36
 1328.67        2963.25           1405       20233.00     88433.08
 1328.70        2963.50           1409       24405.00    106726.50
 1328.73        2963.75           1412       27755.00    121430.20
 1328.75        2964.00           1415       31315.00    137069.90
 1328.78        2964.25           1419       35915.00    157300.30
 1328.81        2964.50           1422       39414.00    172705.10
 1328.84        2964.75           1425       42486.00    186241.70
 1328.86        2965.00           1429       46848.00    205481.60
 1328.89        2965.25           1432       50223.00    220383.40
 1328.92        2965.50           1435       53975.00    236965.50
 1328.95        2965.75           1439       58376.00    256436.90
 1328.97        2966.00           1442       61065.00    268345.20
 1329.00        2966.25           1445       64104.00    281813.70
 1329.03        2966.50           1449       68210.00    300028.40
 1329.06        2966.75           1452       70272.00    309183.30
 1329.09        2967.00           1455       70712.00    311137.40
 1329.11        2967.25           1459       70565.00    310484.50
 1329.14        2967.50           1462       70422.00    309849.50
 1329.17        2967.75           1465       70569.00    310502.30
 1329.20        2968.00           1469       68754.00    302443.20
 1329.23        2968.25           1472       66367.00    291850.10
 1329.25        2968.50           1475       63783.00    280390.50
 1329.28        2968.75           1479       60052.00    263858.10
 1329.31        2969.00           1482       57359.00    251935.40
 1329.34        2969.25           1485       54363.00    238681.20
 1329.37        2969.50           1489       49617.00    217706.70
 1329.39        2969.75           1492       46559.00    204206.20
 1329.42        2970.00           1495       42638.00    186911.80
 1329.45        2970.25           1499       38688.00    169507.60
 1329.48        2970.50           1502       35584.00    155843.80
 1329.51        2970.75           1505       31803.00    139214.90
 1329.53        2971.00           1509       27615.00    120815.50
 1329.56        2971.25           1512       24094.00    105362.20
 1329.59        2971.50           1515       21043.00     91983.21
 1329.62        2971.75           1519       17260.00     75409.30
 1329.64        2972.00           1522       14491.00     63288.32
 1329.67        2972.25           1525       11522.00     50301.66
 1329.70        2972.50           1529        6695.00     29209.54
 1329.73        2972.75           1532        3372.00     14704.83
 1329.75        2973.00           1536         954.00      4158.32
 1329.78        2973.25           1539         278.00      1211.03
 1329.81        2973.50           1542         169.00       735.85
 1329.84        2973.75           1546         138.00       600.71
 1329.87        2974.00           1549         134.00       583.27
 1329.89        2974.25           1552         112.00       487.37
 1329.92        2974.50           1556          96.00       417.62
 1329.95        2974.75           1559         107.00       465.57
 1329.98        2975.00           1562         104.00       452.49
 1330.01        2975.25           1566          87.00       378.38
 1330.04        2975.50           1569          89.00       387.10
 1330.06        2975.75           1572          87.00       378.38
 1330.09        2976.00           1576          79.00       343.51
 1330.12        2976.25           1579          74.00       321.71
 1330.15        2976.50           1582          89.00       387.10
 1330.18        2976.75           1586          80.00       347.87
 1330.20        2977.00           1589          89.00       387.10
 1330.23        2977.25           1592          79.00       343.51
 1330.26        2977.50           1596          85.00       369.66
 1330.29        2977.75           1599          82.00       356.59
 1330.32        2978.00           1602          83.00       360.95
 1330.35        2978.25           1606          86.00       374.02
 1330.37        2978.50           1609          83.00       360.95
 1330.40        2978.75           1612          81.00       352.23
 1330.43        2979.00           1616          84.00       365.30
 1330.46        2979.25           1619          81.00       352.23
 1330.48        2979.50           1623          87.00       378.38
 1330.51        2979.75           1626          85.00       369.66
 1330.54        2980.00           1629          84.00       365.30
 1330.57        2980.25           1633          82.00       356.59
 1330.60        2980.50           1636          80.00       347.87
 1330.62        2980.75           1639          85.00       369.66
 1330.65        2981.00           1643          87.00       378.38
 1330.68        2981.25           1646          90.00       391.46
 1330.71        2981.50           1649          85.00       369.66
 1330.73        2981.75           1653          76.00       330.43
 1330.76        2982.00           1656          80.00       347.87
 1330.79        2982.25           1659          79.00       343.51
 1330.82        2982.50           1663          79.00       343.51
 1330.84        2982.75           1666          75.00       326.07
 1330.87        2983.00           1669          78.00       339.15
 1330.90        2983.25           1673          75.00       326.07
 1330.93        2983.50           1676          77.00       334.79
 1330.95        2983.75           1679          85.00       369.66
 1330.98        2984.00           1683          86.00       374.02
HS scan finished at 22:11:17
end
