************************************************************
  HS Scan of (1) Internal mercury lamp
************************************************************
Integration time is 0.2294 seconds per sample
dh290817Hanoi 21.021-105.808 3.340665pr1000
************************************************************
Dead Time -------------------------  3E-08 
Number of Cycles Used -------------  4 
Starting Wavelength (Angstroms) ---  2950 
Final Wavelength (Angstoms) -------  2984 
Wavelength Increment (Angstroms) --  .25 
Filter Wheel #1 Position ---------- (1) Ground quartz diffuser (ND=2.32)
Filter Wheel #2 Position ---------- (1) Neutral Density 0.494



************************************************************
HS scan start time = 22:05:52
Dark Count =  .3 


Time (GMT)  Wavelength (Ang)  Step Number  Raw Counts  Counts/Second

 1326.31        2950.00           1229         104.00       452.05
 1326.41        2950.25           1232          97.00       421.54
 1326.43        2950.50           1236         106.00       460.77
 1326.46        2950.75           1239         103.00       447.70
 1326.49        2951.00           1242          94.00       408.46
 1326.52        2951.25           1246         101.00       438.98
 1326.54        2951.50           1249         104.00       452.05
 1326.57        2951.75           1252         105.00       456.41
 1326.60        2952.00           1255         109.00       473.85
 1326.63        2952.25           1259          88.00       382.31
 1326.65        2952.50           1262         112.00       486.93
 1326.68        2952.75           1265         104.00       452.05
 1326.71        2953.00           1269         100.00       434.62
 1326.73        2953.25           1272         104.00       452.05
 1326.76        2953.50           1275          96.00       417.18
 1326.79        2953.75           1279         112.00       486.93
 1326.82        2954.00           1282          95.00       412.82
 1326.84        2954.25           1285         104.00       452.05
 1326.87        2954.50           1289         107.00       465.13
 1326.90        2954.75           1292          99.00       430.26
 1326.93        2955.00           1295          93.00       404.10
 1326.96        2955.25           1299          94.00       408.46
 1326.99        2955.50           1302         115.00       500.01
 1327.01        2955.75           1305          95.00       412.82
 1327.04        2956.00           1309         105.00       456.41
 1327.07        2956.25           1312         102.00       443.34
 1327.10        2956.50           1315         110.00       478.21
 1327.12        2956.75           1319         103.00       447.70
 1327.15        2957.00           1322          98.00       425.90
 1327.18        2957.25           1325          92.00       399.74
 1327.21        2957.50           1329          92.00       399.74
 1327.23        2957.75           1332         101.00       438.98
 1327.26        2958.00           1335         109.00       473.85
 1327.29        2958.25           1339          98.00       425.90
 1327.32        2958.50           1342         103.00       447.70
 1327.34        2958.75           1345          99.00       430.26
 1327.37        2959.00           1349         103.00       447.70
 1327.40        2959.25           1352         103.00       447.70
 1327.43        2959.50           1355         100.00       434.62
 1327.45        2959.75           1359          98.00       425.90
 1327.48        2960.00           1362          97.00       421.54
 1327.51        2960.25           1365         109.00       473.85
 1327.53        2960.50           1369         102.00       443.34
 1327.56        2960.75           1372         117.00       508.73
 1327.59        2961.00           1375         126.00       547.96
 1327.62        2961.25           1379         137.00       595.91
 1327.64        2961.50           1382         193.00       840.04
 1327.67        2961.75           1385         614.00      2675.45
 1327.70        2962.00           1389        2807.00     12239.46
 1327.73        2962.25           1392        5379.00     23463.33
 1327.75        2962.50           1395        8695.00     37945.09
 1327.78        2962.75           1399       12780.00     55802.58
 1327.81        2963.00           1402       15444.00     67458.53
 1327.84        2963.25           1405       18485.00     80773.96
 1327.86        2963.50           1409       23052.00    100791.20
 1327.89        2963.75           1412       26623.00    116459.80
 1327.92        2964.00           1415       30130.00    131861.90
 1327.95        2964.25           1419       34037.00    149037.60
 1327.97        2964.50           1422       37084.00    162444.90
 1328.00        2964.75           1425       40037.00    175449.00
 1328.03        2965.00           1429       44382.00    194601.40
 1328.06        2965.25           1432       48156.00    211254.90
 1328.08        2965.50           1435       51387.00    225525.50
 1328.11        2965.75           1439       55038.00    241666.00
 1328.14        2966.00           1442       58029.00    254900.40
 1328.17        2966.25           1445       61383.00    269753.50
 1328.19        2966.50           1449       65383.00    287484.90
 1328.22        2966.75           1452       66902.00    294223.40
 1328.25        2967.00           1455       67766.00    298057.40
 1328.28        2967.25           1459       67935.00    298807.40
 1328.30        2967.50           1462       67693.00    297733.50
 1328.33        2967.75           1465       67817.00    298283.70
 1328.36        2968.00           1469       66253.00    291344.00
 1328.39        2968.25           1472       64056.00    281600.40
 1328.42        2968.50           1475       61451.00    270054.90
 1328.44        2968.75           1479       58477.00    256883.60
 1328.47        2969.00           1482       55138.00    242108.30
 1328.50        2969.25           1485       52426.00    230117.20
 1328.53        2969.50           1489       47796.00    209665.60
 1328.55        2969.75           1492       44667.00    195858.40
 1328.58        2970.00           1495       42013.00    184156.30
 1328.61        2970.25           1499       37478.00    164179.40
 1328.64        2970.50           1502       34590.00    151470.10
 1328.67        2970.75           1505       31055.00    135926.70
 1328.70        2971.00           1509       26622.00    116455.40
 1328.72        2971.25           1512       23908.00    104545.80
 1328.75        2971.50           1515       21225.00     92780.56
 1328.78        2971.75           1519       17356.00     75829.24
 1328.81        2972.00           1522       14500.00     63327.26
 1328.83        2972.25           1525       10696.00     46690.03
 1328.86        2972.50           1529        6690.00     29187.27
 1328.89        2972.75           1532        3634.00     15847.55
 1328.92        2973.00           1536        1110.00      4838.10
 1328.94        2973.25           1539         360.00      1568.08
 1328.97        2973.50           1542         166.00       722.33
 1329.00        2973.75           1546         138.00       600.27
 1329.03        2974.00           1549         124.00       539.24
 1329.05        2974.25           1552         124.00       539.24
 1329.08        2974.50           1556         116.00       504.37
 1329.11        2974.75           1559         107.00       465.13
 1329.14        2975.00           1562          97.00       421.54
 1329.16        2975.25           1566         101.00       438.98
 1329.19        2975.50           1569         100.00       434.62
 1329.22        2975.75           1572          90.00       391.02
 1329.25        2976.00           1576          96.00       417.18
 1329.27        2976.25           1579          93.00       404.10
 1329.30        2976.50           1582          87.00       377.95
 1329.33        2976.75           1586          91.00       395.38
 1329.35        2977.00           1589          93.00       404.10
 1329.38        2977.25           1592          95.00       412.82
 1329.41        2977.50           1596          96.00       417.18
 1329.44        2977.75           1599          92.00       399.74
 1329.46        2978.00           1602          98.00       425.90
 1329.49        2978.25           1606          91.00       395.38
 1329.52        2978.50           1609          92.00       399.74
 1329.55        2978.75           1612          90.00       391.02
 1329.57        2979.00           1616          84.00       364.87
 1329.60        2979.25           1619          91.00       395.38
 1329.63        2979.50           1623          91.00       395.38
 1329.66        2979.75           1626          99.00       430.26
 1329.68        2980.00           1629          92.00       399.74
 1329.71        2980.25           1633          88.00       382.31
 1329.74        2980.50           1636          84.00       364.87
 1329.77        2980.75           1639          94.00       408.46
 1329.80        2981.00           1643          86.00       373.59
 1329.83        2981.25           1646          95.00       412.82
 1329.85        2981.50           1649          92.00       399.74
 1329.88        2981.75           1653          90.00       391.02
 1329.91        2982.00           1656         101.00       438.98
 1329.94        2982.25           1659          89.00       386.67
 1329.96        2982.50           1663          95.00       412.82
 1329.99        2982.75           1666          93.00       404.10
 1330.02        2983.00           1669          93.00       404.10
 1330.05        2983.25           1673          83.00       360.51
 1330.07        2983.50           1676          93.00       404.10
 1330.10        2983.75           1679          97.00       421.54
 1330.13        2984.00           1683          94.00       408.46
HS scan finished at 22:10:25
end
