************************************************************
  HS Scan of (1) Internal mercury lamp
************************************************************
Integration time is 0.2294 seconds per sample
dh280817Hanoi 21.021-105.808 3.50161pr1000
************************************************************
Dead Time -------------------------  3E-08 
Number of Cycles Used -------------  4 
Starting Wavelength (Angstroms) ---  2950 
Final Wavelength (Angstoms) -------  2984 
Wavelength Increment (Angstroms) --  .25 
Filter Wheel #1 Position ---------- (1) Ground quartz diffuser (ND=2.32)
Filter Wheel #2 Position ---------- (1) Neutral Density 0.494



************************************************************
HS scan start time = 22:06:52
Dark Count =  .6 


Time (GMT)  Wavelength (Ang)  Step Number  Raw Counts  Counts/Second

 1327.32        2950.00           1229         102.00       442.03
 1327.43        2950.25           1232         101.00       437.67
 1327.45        2950.50           1236          94.00       407.15
 1327.48        2950.75           1239          91.00       394.08
 1327.51        2951.00           1242         106.00       459.47
 1327.54        2951.25           1246          96.00       415.87
 1327.57        2951.50           1249          94.00       407.15
 1327.60        2951.75           1252          93.00       402.79
 1327.63        2952.00           1255          92.00       398.44
 1327.66        2952.25           1259          92.00       398.44
 1327.69        2952.50           1262          89.00       385.36
 1327.72        2952.75           1265          93.00       402.79
 1327.75        2953.00           1269          90.00       389.72
 1327.78        2953.25           1272          94.00       407.15
 1327.81        2953.50           1275          88.00       381.00
 1327.84        2953.75           1279          94.00       407.15
 1327.87        2954.00           1282          87.00       376.64
 1327.90        2954.25           1285          96.00       415.87
 1327.93        2954.50           1289          89.00       385.36
 1327.96        2954.75           1292          93.00       402.79
 1327.99        2955.00           1295          94.00       407.15
 1328.02        2955.25           1299          95.00       411.51
 1328.05        2955.50           1302          97.00       420.23
 1328.08        2955.75           1305          93.00       402.79
 1328.10        2956.00           1309          94.00       407.15
 1328.13        2956.25           1312         106.00       459.47
 1328.16        2956.50           1315          97.00       420.23
 1328.19        2956.75           1319          99.00       428.95
 1328.22        2957.00           1322          96.00       415.87
 1328.25        2957.25           1325          98.00       424.59
 1328.28        2957.50           1329          96.00       415.87
 1328.31        2957.75           1332          88.00       381.00
 1328.34        2958.00           1335          90.00       389.72
 1328.37        2958.25           1339          91.00       394.08
 1328.40        2958.50           1342          99.00       428.95
 1328.43        2958.75           1345          90.00       389.72
 1328.46        2959.00           1349          90.00       389.72
 1328.49        2959.25           1352          86.00       372.28
 1328.52        2959.50           1355          92.00       398.44
 1328.55        2959.75           1359          94.00       407.15
 1328.58        2960.00           1362          88.00       381.00
 1328.61        2960.25           1365          94.00       407.15
 1328.64        2960.50           1369         100.00       433.31
 1328.66        2960.75           1372         108.00       468.18
 1328.69        2961.00           1375         134.00       581.53
 1328.72        2961.25           1379         139.00       603.32
 1328.75        2961.50           1382         190.00       825.65
 1328.78        2961.75           1385         875.00      3812.12
 1328.81        2962.00           1389        3526.00     15375.01
 1328.84        2962.25           1392        5897.00     25723.42
 1328.87        2962.50           1395        8663.00     37803.97
 1328.90        2962.75           1399       12876.00     56221.16
 1328.93        2963.00           1402       16443.00     71830.30
 1328.96        2963.25           1405       20376.00     89058.02
 1328.99        2963.50           1409       24882.00    108817.60
 1329.02        2963.75           1412       27664.00    121028.90
 1329.05        2964.00           1415       31278.00    136905.50
 1329.08        2964.25           1419       36091.00    158073.00
 1329.11        2964.50           1422       39329.00    172328.90
 1329.14        2964.75           1425       42797.00    187610.90
 1329.17        2965.00           1429       47856.00    209929.10
 1329.20        2965.25           1432       51018.00    223893.70
 1329.23        2965.50           1435       54213.00    238016.10
 1329.26        2965.75           1439       59013.00    259255.30
 1329.29        2966.00           1442       62411.00    274307.40
 1329.32        2966.25           1445       65132.00    286370.40
 1329.35        2966.50           1449       68402.00    300878.90
 1329.38        2966.75           1452       69971.00    307844.80
 1329.41        2967.00           1455       70878.00    311873.00
 1329.43        2967.25           1459       70903.00    311984.00
 1329.46        2967.50           1462       70792.00    311491.00
 1329.49        2967.75           1465       70980.00    312326.00
 1329.52        2968.00           1469       69691.00    306601.50
 1329.55        2968.25           1472       67544.00    297070.80
 1329.58        2968.50           1475       64943.00    285532.20
 1329.61        2968.75           1479       60639.00    266456.30
 1329.64        2969.00           1482       57153.00    251021.90
 1329.67        2969.25           1485       54551.00    239510.80
 1329.70        2969.50           1489       50324.00    220827.80
 1329.73        2969.75           1492       47457.00    208167.80
 1329.76        2970.00           1495       44177.00    193696.00
 1329.79        2970.25           1499       39493.00    173051.30
 1329.82        2970.50           1502       35981.00    157589.00
 1329.85        2970.75           1505       32085.00    140452.80
 1329.88        2971.00           1509       28170.00    123250.90
 1329.91        2971.25           1512       25100.00    109774.20
 1329.94        2971.50           1515       21454.00     93783.11
 1329.97        2971.75           1519       16905.00     73853.07
 1330.00        2972.00           1522       14377.00     62787.73
 1330.03        2972.25           1525       11671.00     50951.41
 1330.06        2972.50           1529        7263.00     31688.35
 1330.09        2972.75           1532        3890.00     16963.30
 1330.12        2973.00           1536         936.00      4078.09
 1330.15        2973.25           1539         271.00      1178.77
 1330.18        2973.50           1542         164.00       712.31
 1330.21        2973.75           1546         145.00       629.48
 1330.24        2974.00           1549         137.00       594.61
 1330.27        2974.25           1552         126.00       546.65
 1330.30        2974.50           1556         108.00       468.18
 1330.33        2974.75           1559          94.00       407.15
 1330.36        2975.00           1562          93.00       402.79
 1330.38        2975.25           1566          89.00       385.36
 1330.41        2975.50           1569          96.00       415.87
 1330.44        2975.75           1572          96.00       415.87
 1330.47        2976.00           1576          87.00       376.64
 1330.50        2976.25           1579          93.00       402.79
 1330.53        2976.50           1582          94.00       407.15
 1330.56        2976.75           1586          89.00       385.36
 1330.59        2977.00           1589          84.00       363.56
 1330.62        2977.25           1592          82.00       354.84
 1330.65        2977.50           1596          86.00       372.28
 1330.68        2977.75           1599          80.00       346.12
 1330.71        2978.00           1602          87.00       376.64
 1330.74        2978.25           1606          91.00       394.08
 1330.77        2978.50           1609          79.00       341.76
 1330.80        2978.75           1612          90.00       389.72
 1330.83        2979.00           1616          75.00       324.33
 1330.86        2979.25           1619          93.00       402.79
 1330.89        2979.50           1623          80.00       346.12
 1330.92        2979.75           1626          83.00       359.20
 1330.94        2980.00           1629          84.00       363.56
 1330.97        2980.25           1633          85.00       367.92
 1331.00        2980.50           1636          89.00       385.36
 1331.03        2980.75           1639          81.00       350.48
 1331.06        2981.00           1643          81.00       350.48
 1331.09        2981.25           1646          80.00       346.12
 1331.12        2981.50           1649          79.00       341.76
 1331.15        2981.75           1653          78.00       337.41
 1331.18        2982.00           1656          88.00       381.00
 1331.21        2982.25           1659          84.00       363.56
 1331.24        2982.50           1663          84.00       363.56
 1331.27        2982.75           1666          74.00       319.97
 1331.30        2983.00           1669          74.00       319.97
 1331.33        2983.25           1673          79.00       341.76
 1331.36        2983.50           1676          82.00       354.84
 1331.39        2983.75           1679          90.00       389.72
 1331.42        2984.00           1683          79.00       341.76
HS scan finished at 22:11:43
end
