************************************************************
  HS Scan of (1) Internal mercury lamp
************************************************************
Integration time is 0.2294 seconds per sample
dh300817Hanoi 21.021-105.808 3.447962pr1000
************************************************************
Dead Time -------------------------  3E-08 
Number of Cycles Used -------------  4 
Starting Wavelength (Angstroms) ---  2950 
Final Wavelength (Angstoms) -------  2984 
Wavelength Increment (Angstroms) --  .25 
Filter Wheel #1 Position ---------- (1) Ground quartz diffuser (ND=2.32)
Filter Wheel #2 Position ---------- (1) Neutral Density 0.494



************************************************************
HS scan start time = 22:06:09
Dark Count =  .2 


Time (GMT)  Wavelength (Ang)  Step Number  Raw Counts  Counts/Second

 1326.60        2950.00           1229          99.00       430.69
 1326.70        2950.25           1232         105.00       456.85
 1326.72        2950.50           1236          99.00       430.69
 1326.75        2950.75           1239          97.00       421.98
 1326.78        2951.00           1242          89.00       387.10
 1326.81        2951.25           1246         100.00       435.05
 1326.84        2951.50           1249         100.00       435.05
 1326.86        2951.75           1252          94.00       408.90
 1326.89        2952.00           1255         102.00       443.77
 1326.92        2952.25           1259          97.00       421.98
 1326.95        2952.50           1262          97.00       421.98
 1326.97        2952.75           1265         102.00       443.77
 1327.00        2953.00           1269         102.00       443.77
 1327.03        2953.25           1272         101.00       439.41
 1327.06        2953.50           1275          94.00       408.90
 1327.08        2953.75           1279         102.00       443.77
 1327.12        2954.00           1282          97.00       421.98
 1327.15        2954.25           1285          94.00       408.90
 1327.18        2954.50           1289          99.00       430.69
 1327.21        2954.75           1292         103.00       448.13
 1327.23        2955.00           1295          92.00       400.18
 1327.26        2955.25           1299         103.00       448.13
 1327.29        2955.50           1302         101.00       439.41
 1327.32        2955.75           1305         105.00       456.85
 1327.35        2956.00           1309          94.00       408.90
 1327.38        2956.25           1312         104.00       452.49
 1327.41        2956.50           1315         102.00       443.77
 1327.45        2956.75           1319          86.00       374.02
 1327.48        2957.00           1322          98.00       426.34
 1327.51        2957.25           1325          96.00       417.62
 1327.54        2957.50           1329          91.00       395.82
 1327.57        2957.75           1332          92.00       400.18
 1327.60        2958.00           1335         103.00       448.13
 1327.63        2958.25           1339          90.00       391.46
 1327.66        2958.50           1342          95.00       413.26
 1327.69        2958.75           1345         101.00       439.41
 1327.71        2959.00           1349         105.00       456.85
 1327.74        2959.25           1352          94.00       408.90
 1327.77        2959.50           1355          96.00       417.62
 1327.80        2959.75           1359         104.00       452.49
 1327.82        2960.00           1362         104.00       452.49
 1327.85        2960.25           1365         104.00       452.49
 1327.88        2960.50           1369         110.00       478.65
 1327.91        2960.75           1372         112.00       487.37
 1327.93        2961.00           1375         120.00       522.24
 1327.96        2961.25           1379         148.00       644.30
 1327.99        2961.50           1382         249.00      1084.60
 1328.02        2961.75           1385        1010.00      4402.50
 1328.04        2962.00           1389        3658.00     15952.71
 1328.07        2962.25           1392        6437.00     28082.93
 1328.10        2962.50           1395        9461.00     41292.62
 1328.13        2962.75           1399       13393.00     58484.39
 1328.16        2963.00           1402       16644.00     72712.06
 1328.18        2963.25           1405       20011.00     87460.22
 1328.21        2963.50           1409       24731.00    108156.80
 1328.24        2963.75           1412       28064.00    122787.10
 1328.27        2964.00           1415       31702.00    138771.00
 1328.30        2964.25           1419       35940.00    157410.30
 1328.32        2964.50           1422       39701.00    173969.30
 1328.35        2964.75           1425       42663.00    187022.00
 1328.38        2965.00           1429       47137.00    206757.10
 1328.41        2965.25           1432       50322.00    220820.70
 1328.44        2965.50           1435       53331.00    234118.10
 1328.48        2965.75           1439       56900.00    249904.10
 1328.51        2966.00           1442       60021.00    263720.80
 1328.53        2966.25           1445       63149.00    277580.10
 1328.56        2966.50           1449       66895.00    294192.70
 1328.59        2966.75           1452       68481.00    301231.30
 1328.62        2967.00           1455       68863.00    302927.10
 1328.64        2967.25           1459       68982.00    303455.40
 1328.67        2967.50           1462       68875.00    302980.30
 1328.70        2967.75           1465       69009.00    303575.20
 1328.73        2968.00           1469       67319.00    296074.10
 1328.76        2968.25           1472       65531.00    288141.80
 1328.78        2968.50           1475       63262.00    278081.00
 1328.81        2968.75           1479       59113.00    259699.90
 1328.85        2969.00           1482       56330.00    247381.90
 1328.88        2969.25           1485       52671.00    231200.50
 1328.90        2969.50           1489       48159.00    211268.50
 1328.93        2969.75           1492       44718.00    196083.90
 1328.96        2970.00           1495       41527.00    182014.70
 1328.99        2970.25           1499       37309.00    163435.80
 1329.02        2970.50           1502       33913.00    148492.60
 1329.04        2970.75           1505       30437.00    133211.40
 1329.07        2971.00           1509       26383.00    115406.70
 1329.10        2971.25           1512       23871.00    104383.90
 1329.13        2971.50           1515       20724.00     90584.98
 1329.16        2971.75           1519       16522.00     72177.93
 1329.18        2972.00           1522       12930.00     56459.10
 1329.21        2972.25           1525        9442.00     41209.59
 1329.24        2972.50           1529        5041.00     21988.34
 1329.27        2972.75           1532        2661.00     11602.99
 1329.29        2973.00           1536         744.00      3242.69
 1329.32        2973.25           1539         283.00      1232.83
 1329.35        2973.50           1542         174.00       757.65
 1329.38        2973.75           1546         140.00       609.43
 1329.41        2974.00           1549         138.00       600.71
 1329.43        2974.25           1552         116.00       504.80
 1329.46        2974.50           1556         115.00       500.44
 1329.49        2974.75           1559         108.00       469.93
 1329.52        2975.00           1562         101.00       439.41
 1329.54        2975.25           1566          96.00       417.62
 1329.57        2975.50           1569          97.00       421.98
 1329.60        2975.75           1572         103.00       448.13
 1329.63        2976.00           1576          95.00       413.26
 1329.65        2976.25           1579          92.00       400.18
 1329.68        2976.50           1582          92.00       400.18
 1329.71        2976.75           1586          89.00       387.10
 1329.74        2977.00           1589          91.00       395.82
 1329.76        2977.25           1592          91.00       395.82
 1329.79        2977.50           1596          99.00       430.69
 1329.82        2977.75           1599          92.00       400.18
 1329.85        2978.00           1602          85.00       369.66
 1329.87        2978.25           1606          92.00       400.18
 1329.90        2978.50           1609          93.00       404.54
 1329.93        2978.75           1612          87.00       378.38
 1329.96        2979.00           1616          89.00       387.10
 1329.98        2979.25           1619          85.00       369.66
 1330.01        2979.50           1623          83.00       360.95
 1330.04        2979.75           1626          92.00       400.18
 1330.07        2980.00           1629          93.00       404.54
 1330.09        2980.25           1633          86.00       374.02
 1330.12        2980.50           1636          87.00       378.38
 1330.16        2980.75           1639          85.00       369.66
 1330.19        2981.00           1643          89.00       387.10
 1330.21        2981.25           1646          83.00       360.95
 1330.24        2981.50           1649          93.00       404.54
 1330.27        2981.75           1653          86.00       374.02
 1330.30        2982.00           1656          84.00       365.30
 1330.33        2982.25           1659          89.00       387.10
 1330.36        2982.50           1663          85.00       369.66
 1330.39        2982.75           1666          88.00       382.74
 1330.42        2983.00           1669          89.00       387.10
 1330.45        2983.25           1673          86.00       374.02
 1330.47        2983.50           1676          84.00       365.30
 1330.50        2983.75           1679          79.00       343.51
 1330.53        2984.00           1683          91.00       395.82
HS scan finished at 22:10:50
end
