************************************************************
  HS Scan of 
************************************************************
Integration time is 0.2294 seconds per sample
dh161017Izana 28.3081 16.4992 2.911481pr770
************************************************************
Dead Time -------------------------  3E-08 
Number of Cycles Used -------------  4 
Starting Wavelength (Angstroms) ---  2950 
Final Wavelength (Angstoms) -------  2984 
Wavelength Increment (Angstroms) --  .25 
Filter Wheel #1 Position ---------- (1) Ground quartz diffuser (ND=2.32)
Filter Wheel #2 Position ---------- (1) Neutral Density 0.494



************************************************************
HS scan start time = 12:17:09
Dark Count =  2.1 


Time (GMT)  Wavelength (Ang)  Step Number  Raw Counts  Counts/Second

  737.60        2950.00           1229          58.00       243.68
  737.70        2950.25           1232          61.00       256.76
  737.73        2950.50           1236          56.00       234.96
  737.76        2950.75           1239          51.00       213.17
  737.78        2951.00           1242          54.00       226.24
  737.81        2951.25           1246          62.00       261.12
  737.84        2951.50           1249          53.00       221.88
  737.88        2951.75           1252          57.00       239.32
  737.91        2952.00           1255          53.00       221.88
  737.93        2952.25           1259          62.00       261.12
  737.96        2952.50           1262          59.00       248.04
  737.99        2952.75           1265          63.00       265.48
  738.02        2953.00           1269          56.00       234.96
  738.04        2953.25           1272          59.00       248.04
  738.07        2953.50           1275          58.00       243.68
  738.10        2953.75           1279          54.00       226.24
  738.13        2954.00           1282          49.00       204.45
  738.15        2954.25           1285          60.00       252.40
  738.18        2954.50           1289          54.00       226.24
  738.21        2954.75           1292          60.00       252.40
  738.24        2955.00           1295          56.00       234.96
  738.26        2955.25           1299          53.00       221.88
  738.29        2955.50           1302          61.00       256.76
  738.32        2955.75           1305          56.00       234.96
  738.35        2956.00           1309          58.00       243.68
  738.37        2956.25           1312          58.00       243.68
  738.40        2956.50           1315          53.00       221.88
  738.43        2956.75           1319          52.00       217.53
  738.45        2957.00           1322          53.00       221.88
  738.48        2957.25           1325          64.00       269.84
  738.51        2957.50           1329          54.00       226.24
  738.54        2957.75           1332          54.00       226.24
  738.56        2958.00           1335          50.00       208.81
  738.59        2958.25           1339          54.00       226.24
  738.62        2958.50           1342          58.00       243.68
  738.65        2958.75           1345          62.00       261.12
  738.68        2959.00           1349          59.00       248.04
  738.71        2959.25           1352          68.00       287.27
  738.74        2959.50           1355          66.00       278.56
  738.77        2959.75           1359          71.00       300.35
  738.79        2960.00           1362          83.00       352.66
  738.82        2960.25           1365          80.00       339.59
  738.85        2960.50           1369          89.00       378.82
  738.88        2960.75           1372         147.00       631.66
  738.90        2961.00           1375         292.00      1263.78
  738.93        2961.25           1379         734.00      3190.80
  738.96        2961.50           1382        2135.00      9300.33
  738.99        2961.75           1385        3649.00     15905.15
  739.01        2962.00           1389        5452.00     23774.14
  739.04        2962.25           1392        8251.00     35997.45
  739.07        2962.50           1395       10511.00     45873.47
  739.10        2962.75           1399       12363.00     53970.93
  739.13        2963.00           1402       14993.00     65476.80
  739.15        2963.25           1405       17134.00     74849.24
  739.18        2963.50           1409       18301.00     79960.11
  739.21        2963.75           1412       19711.00     86137.30
  739.24        2964.00           1415       20507.00     89625.58
  739.26        2964.25           1419       19714.00     86150.46
  739.29        2964.50           1422       20034.00     87552.68
  739.32        2964.75           1425       19661.00     85918.21
  739.35        2965.00           1429       18724.00     81813.03
  739.37        2965.25           1432       19486.00     85151.42
  739.40        2965.50           1435       19921.00     87057.50
  739.43        2965.75           1439       19106.00     83486.53
  739.46        2966.00           1442       19582.00     85572.06
  739.48        2966.25           1445       19243.00     84086.75
  739.51        2966.50           1449       19220.00     83985.97
  739.54        2966.75           1452       20582.00     89954.28
  739.57        2967.00           1455       20265.00     88564.99
  739.59        2967.25           1459       19139.00     83631.10
  739.62        2967.50           1462       19185.00     83832.65
  739.65        2967.75           1465       17889.00     78155.58
  739.68        2968.00           1469       16251.00     70983.18
  739.70        2968.25           1472       14366.00     62733.04
  739.73        2968.50           1475       12494.00     54543.85
  739.76        2968.75           1479        9721.00     42420.57
  739.79        2969.00           1482        7347.00     32048.67
  739.81        2969.25           1485        5255.00     22914.18
  739.84        2969.50           1489        2748.00     11974.22
  739.87        2969.75           1492        1330.00      5789.58
  739.90        2970.00           1495         615.00      2671.97
  739.92        2970.25           1499         183.00       788.60
  739.95        2970.50           1502         152.00       653.46
  739.98        2970.75           1505         149.00       640.38
  740.01        2971.00           1509         132.00       566.27
  740.03        2971.25           1512         128.00       548.83
  740.06        2971.50           1515         134.00       574.99
  740.09        2971.75           1519         121.00       518.32
  740.12        2972.00           1522         113.00       483.44
  740.14        2972.25           1525         111.00       474.72
  740.17        2972.50           1529         111.00       474.72
  740.20        2972.75           1532         109.00       466.00
  740.23        2973.00           1536          91.00       387.54
  740.25        2973.25           1539          93.00       396.26
  740.28        2973.50           1542          91.00       387.54
  740.31        2973.75           1546          88.00       374.46
  740.34        2974.00           1549          87.00       370.10
  740.36        2974.25           1552          81.00       343.94
  740.39        2974.50           1556          70.00       295.99
  740.42        2974.75           1559          79.00       335.23
  740.45        2975.00           1562          67.00       282.91
  740.47        2975.25           1566          60.00       252.40
  740.50        2975.50           1569          65.00       274.20
  740.53        2975.75           1572          58.00       243.68
  740.56        2976.00           1576          51.00       213.17
  740.58        2976.25           1579          47.00       195.73
  740.61        2976.50           1582          51.00       213.17
  740.64        2976.75           1586          55.00       230.60
  740.67        2977.00           1589          49.00       204.45
  740.69        2977.25           1592          51.00       213.17
  740.72        2977.50           1596          51.00       213.17
  740.75        2977.75           1599          48.00       200.09
  740.77        2978.00           1602          55.00       230.60
  740.80        2978.25           1606          50.00       208.81
  740.83        2978.50           1609          46.00       191.37
  740.86        2978.75           1612          49.00       204.45
  740.88        2979.00           1616          43.00       178.29
  740.91        2979.25           1619          53.00       221.88
  740.94        2979.50           1623          47.00       195.73
  740.97        2979.75           1626          51.00       213.17
  740.99        2980.00           1629          50.00       208.81
  741.02        2980.25           1633          51.00       213.17
  741.05        2980.50           1636          47.00       195.73
  741.08        2980.75           1639          47.00       195.73
  741.10        2981.00           1643          54.00       226.24
  741.13        2981.25           1646          55.00       230.60
  741.16        2981.50           1649          43.00       178.29
  741.19        2981.75           1653          43.00       178.29
  741.21        2982.00           1656          49.00       204.45
  741.24        2982.25           1659          49.00       204.45
  741.27        2982.50           1663          41.00       169.57
  741.30        2982.75           1666          43.00       178.29
  741.32        2983.00           1669          52.00       217.53
  741.35        2983.25           1673          43.00       178.29
  741.38        2983.50           1676          46.00       191.37
  741.40        2983.75           1679          55.00       230.60
  741.43        2984.00           1683          52.00       217.53
HS scan finished at 12:21:44
end
************************************************************
  HS Scan of 
************************************************************
Integration time is 0.2294 seconds per sample
dh161017Izana 28.3081 16.4992 2.911481pr770
************************************************************
Dead Time -------------------------  3E-08 
Number of Cycles Used -------------  4 
Starting Wavelength (Angstroms) ---  2950 
Final Wavelength (Angstoms) -------  2984 
Wavelength Increment (Angstroms) --  .25 
Filter Wheel #1 Position ---------- (1) Ground quartz diffuser (ND=2.32)
Filter Wheel #2 Position ---------- (1) Neutral Density 0.494



************************************************************
HS scan start time = 12:38:22
Dark Count =  2 


Time (GMT)  Wavelength (Ang)  Step Number  Raw Counts  Counts/Second

  758.82        2950.00           1229         124.00       531.83
  758.92        2950.25           1232         128.00       549.27
  758.95        2950.50           1236         117.00       501.32
  758.98        2950.75           1239         112.00       479.52
  759.00        2951.00           1242         127.00       544.91
  759.03        2951.25           1246         127.00       544.91
  759.06        2951.50           1249         117.00       501.32
  759.08        2951.75           1252         121.00       518.75
  759.11        2952.00           1255         128.00       549.27
  759.14        2952.25           1259         118.00       505.67
  759.17        2952.50           1262         131.00       562.35
  759.20        2952.75           1265         125.00       536.19
  759.22        2953.00           1269         120.00       514.39
  759.25        2953.25           1272         119.00       510.03
  759.28        2953.50           1275         113.00       483.88
  759.31        2953.75           1279         110.00       470.80
  759.33        2954.00           1282         119.00       510.03
  759.36        2954.25           1285         124.00       531.83
  759.39        2954.50           1289         126.00       540.55
  759.42        2954.75           1292         117.00       501.32
  759.45        2955.00           1295         123.00       527.47
  759.47        2955.25           1299         122.00       523.11
  759.50        2955.50           1302         105.00       449.00
  759.53        2955.75           1305         124.00       531.83
  759.55        2956.00           1309         123.00       527.47
  759.58        2956.25           1312         124.00       531.83
  759.61        2956.50           1315         120.00       514.39
  759.64        2956.75           1319         118.00       505.67
  759.68        2957.00           1322         114.00       488.24
  759.72        2957.25           1325         117.00       501.32
  759.77        2957.50           1329         131.00       562.35
  759.82        2957.75           1332         142.00       610.30
  759.87        2958.00           1335         140.00       601.58
  759.92        2958.25           1339         170.00       732.36
  759.95        2958.50           1342         541.00      2349.77
  759.98        2958.75           1345        1591.00      6928.21
  760.01        2959.00           1349        4001.00     17441.56
  760.06        2959.25           1352        6016.00     26236.86
  760.11        2959.50           1355        8178.00     35678.98
  760.14        2959.75           1359       11286.00     49261.94
  760.16        2960.00           1362       13913.00     60751.43
  760.20        2960.25           1365       16173.00     70642.15
  760.24        2960.50           1369       18797.00     82133.25
  760.26        2960.75           1372       20932.00     91488.78
  760.29        2961.00           1375       23274.00    101757.40
  760.32        2961.25           1379       26029.00    113845.00
  760.35        2961.50           1382       28455.00    124496.40
  760.37        2961.75           1385       30688.00    134306.40
  760.40        2962.00           1389       33159.00    145168.80
  760.43        2962.25           1392       35548.00    155677.40
  760.46        2962.50           1395       37894.00    166003.40
  760.48        2962.75           1399       40775.00    178692.90
  760.51        2963.00           1402       42863.00    187895.80
  760.54        2963.25           1405       44615.00    195621.60
  760.57        2963.50           1409       46512.00    203990.90
  760.59        2963.75           1412       46915.00    205769.40
  760.62        2964.00           1415       47307.00    207499.50
  760.65        2964.25           1419       47632.00    208934.10
  760.68        2964.50           1422       47305.00    207490.70
  760.71        2964.75           1425       46751.00    205045.60
  760.73        2965.00           1429       45183.00    198127.10
  760.76        2965.25           1432       43420.00    190351.60
  760.79        2965.50           1435       41088.00    180072.20
  760.82        2965.75           1439       38310.00    167835.10
  760.84        2966.00           1442       36602.00    160315.80
  760.87        2966.25           1445       34600.00    151506.60
  760.90        2966.50           1449       32023.00    140174.10
  760.93        2966.75           1452       29642.00    129710.40
  760.95        2967.00           1455       27212.00    119038.10
  760.98        2967.25           1459       23842.00    104248.80
  761.01        2967.50           1462       21613.00     94474.01
  761.04        2967.75           1465       19831.00     86663.56
  761.06        2968.00           1469       16884.00     73755.00
  761.10        2968.25           1472       14643.00     63945.58
  761.13        2968.50           1475       12405.00     54155.05
  761.16        2968.75           1479        9593.00     41861.60
  761.19        2969.00           1482        7710.00     33634.62
  761.21        2969.25           1485        5539.00     24154.38
  761.24        2969.50           1489        3111.00     13558.26
  761.27        2969.75           1492        1377.00      5994.98
  761.30        2970.00           1495         488.00      2118.70
  761.32        2970.25           1499         172.00       741.08
  761.35        2970.50           1502         150.00       645.17
  761.38        2970.75           1505         135.00       579.78
  761.41        2971.00           1509         142.00       610.30
  761.43        2971.25           1512         124.00       531.83
  761.46        2971.50           1515         122.00       523.11
  761.49        2971.75           1519         108.00       462.08
  761.52        2972.00           1522          99.00       422.85
  761.54        2972.25           1525         112.00       479.52
  761.57        2972.50           1529         111.00       475.16
  761.60        2972.75           1532         113.00       483.88
  761.63        2973.00           1536          97.00       414.13
  761.65        2973.25           1539         119.00       510.03
  761.68        2973.50           1542         112.00       479.52
  761.71        2973.75           1546         116.00       496.96
  761.74        2974.00           1549         114.00       488.24
  761.76        2974.25           1552         109.00       466.44
  761.79        2974.50           1556         105.00       449.00
  761.82        2974.75           1559         109.00       466.44
  761.85        2975.00           1562         102.00       435.93
  761.87        2975.25           1566         111.00       475.16
  761.90        2975.50           1569         109.00       466.44
  761.93        2975.75           1572         106.00       453.36
  761.96        2976.00           1576         110.00       470.80
  761.98        2976.25           1579         110.00       470.80
  762.01        2976.50           1582         118.00       505.67
  762.04        2976.75           1586         113.00       483.88
  762.07        2977.00           1589         111.00       475.16
  762.09        2977.25           1592         100.00       427.21
  762.12        2977.50           1596          98.00       418.49
  762.15        2977.75           1599         105.00       449.00
  762.18        2978.00           1602          92.00       392.33
  762.20        2978.25           1606         102.00       435.93
  762.23        2978.50           1609         101.00       431.57
  762.26        2978.75           1612          99.00       422.85
  762.29        2979.00           1616          94.00       401.05
  762.31        2979.25           1619          95.00       405.41
  762.34        2979.50           1623         101.00       431.57
  762.37        2979.75           1626         106.00       453.36
  762.40        2980.00           1629         103.00       440.28
  762.42        2980.25           1633         110.00       470.80
  762.45        2980.50           1636         112.00       479.52
  762.48        2980.75           1639         108.00       462.08
  762.51        2981.00           1643         101.00       431.57
  762.53        2981.25           1646         107.00       457.72
  762.56        2981.50           1649         101.00       431.57
  762.59        2981.75           1653          91.00       387.97
  762.61        2982.00           1656          97.00       414.13
  762.64        2982.25           1659          96.00       409.77
  762.67        2982.50           1663         104.00       444.64
  762.70        2982.75           1666          94.00       401.05
  762.72        2983.00           1669         108.00       462.08
  762.75        2983.25           1673         104.00       444.64
  762.78        2983.50           1676         102.00       435.93
  762.81        2983.75           1679          93.00       396.69
  762.83        2984.00           1683          92.00       392.33
HS scan finished at 12:43:08
end
