************************************************************
  HS Scan of 
************************************************************
Integration time is 0.2294 seconds per sample
dh181017Izana 28.3081 16.4992 2.428648pr770
************************************************************
Dead Time -------------------------  3E-08 
Number of Cycles Used -------------  4 
Starting Wavelength (Angstroms) ---  2950 
Final Wavelength (Angstoms) -------  2984 
Wavelength Increment (Angstroms) --  .25 
Filter Wheel #1 Position ---------- (1) Ground quartz diffuser (ND=2.32)
Filter Wheel #2 Position ---------- (1) Neutral Density 0.494



************************************************************
HS scan start time = 21:02:02
Dark Count =  .1 


Time (GMT)  Wavelength (Ang)  Step Number  Raw Counts  Counts/Second

 1262.48        2950.00           1229           0.00         2.00
 1262.58        2950.25           1232           0.00         2.00
 1262.61        2950.50           1236           0.00         2.00
 1262.64        2950.75           1239           1.00         3.92
 1262.66        2951.00           1242           0.00         2.00
 1262.69        2951.25           1246           0.00         2.00
 1262.72        2951.50           1249           0.00         2.00
 1262.75        2951.75           1252           0.00         2.00
 1262.77        2952.00           1255           1.00         3.92
 1262.80        2952.25           1259           0.00         2.00
 1262.83        2952.50           1262           0.00         2.00
 1262.86        2952.75           1265           0.00         2.00
 1262.88        2953.00           1269           0.00         2.00
 1262.91        2953.25           1272           0.00         2.00
 1262.94        2953.50           1275           0.00         2.00
 1262.97        2953.75           1279           0.00         2.00
 1263.00        2954.00           1282           0.00         2.00
 1263.03        2954.25           1285           1.00         3.92
 1263.06        2954.50           1289           0.00         2.00
 1263.09        2954.75           1292           0.00         2.00
 1263.11        2955.00           1295           0.00         2.00
 1263.14        2955.25           1299           0.00         2.00
 1263.17        2955.50           1302           0.00         2.00
 1263.20        2955.75           1305           0.00         2.00
 1263.23        2956.00           1309           0.00         2.00
 1263.26        2956.25           1312           0.00         2.00
 1263.28        2956.50           1315           0.00         2.00
 1263.31        2956.75           1319           0.00         2.00
 1263.34        2957.00           1322           0.00         2.00
 1263.37        2957.25           1325           0.00         2.00
 1263.39        2957.50           1329           0.00         2.00
 1263.42        2957.75           1332           0.00         2.00
 1263.45        2958.00           1335           0.00         2.00
 1263.48        2958.25           1339           1.00         3.92
 1263.50        2958.50           1342           0.00         2.00
 1263.53        2958.75           1345           0.00         2.00
 1263.56        2959.00           1349           0.00         2.00
 1263.59        2959.25           1352           0.00         2.00
 1263.61        2959.50           1355           0.00         2.00
 1263.64        2959.75           1359           1.00         3.92
 1263.67        2960.00           1362           0.00         2.00
 1263.70        2960.25           1365           0.00         2.00
 1263.72        2960.50           1369           0.00         2.00
 1263.75        2960.75           1372           0.00         2.00
 1263.78        2961.00           1375           0.00         2.00
 1263.81        2961.25           1379           0.00         2.00
 1263.83        2961.50           1382           0.00         2.00
 1263.86        2961.75           1385           0.00         2.00
 1263.89        2962.00           1389           0.00         2.00
 1263.92        2962.25           1392           0.00         2.00
 1263.95        2962.50           1395           0.00         2.00
 1263.98        2962.75           1399           0.00         2.00
 1264.02        2963.00           1402           0.00         2.00
 1264.05        2963.25           1405           0.00         2.00
 1264.07        2963.50           1409           0.00         2.00
 1264.10        2963.75           1412           0.00         2.00
 1264.13        2964.00           1415           0.00         2.00
 1264.16        2964.25           1419           0.00         2.00
 1264.18        2964.50           1422           0.00         2.00
 1264.21        2964.75           1425           0.00         2.00
 1264.24        2965.00           1429           0.00         2.00
 1264.27        2965.25           1432           0.00         2.00
 1264.29        2965.50           1435           0.00         2.00
 1264.32        2965.75           1439           0.00         2.00
 1264.35        2966.00           1442           0.00         2.00
 1264.38        2966.25           1445           0.00         2.00
 1264.41        2966.50           1449           0.00         2.00
 1264.43        2966.75           1452           0.00         2.00
 1264.46        2967.00           1455           0.00         2.00
 1264.49        2967.25           1459           0.00         2.00
 1264.52        2967.50           1462           0.00         2.00
 1264.54        2967.75           1465           0.00         2.00
 1264.57        2968.00           1469           0.00         2.00
 1264.60        2968.25           1472           0.00         2.00
 1264.63        2968.50           1475           0.00         2.00
 1264.65        2968.75           1479           0.00         2.00
 1264.68        2969.00           1482           0.00         2.00
 1264.71        2969.25           1485           1.00         3.92
 1264.74        2969.50           1489           0.00         2.00
 1264.76        2969.75           1492           0.00         2.00
 1264.79        2970.00           1495           0.00         2.00
 1264.82        2970.25           1499           0.00         2.00
 1264.85        2970.50           1502           0.00         2.00
 1264.88        2970.75           1505           0.00         2.00
 1264.91        2971.00           1509           0.00         2.00
 1264.93        2971.25           1512           1.00         3.92
 1264.96        2971.50           1515           0.00         2.00
 1264.99        2971.75           1519           0.00         2.00
 1265.02        2972.00           1522           0.00         2.00
 1265.05        2972.25           1525           0.00         2.00
 1265.08        2972.50           1529           0.00         2.00
 1265.11        2972.75           1532           0.00         2.00
 1265.14        2973.00           1536           0.00         2.00
 1265.16        2973.25           1539           0.00         2.00
 1265.19        2973.50           1542           0.00         2.00
 1265.22        2973.75           1546           0.00         2.00
 1265.25        2974.00           1549           0.00         2.00
 1265.27        2974.25           1552           0.00         2.00
 1265.30        2974.50           1556           0.00         2.00
 1265.33        2974.75           1559           0.00         2.00
 1265.36        2975.00           1562           0.00         2.00
 1265.38        2975.25           1566           0.00         2.00
 1265.41        2975.50           1569           0.00         2.00
 1265.44        2975.75           1572           0.00         2.00
 1265.47        2976.00           1576           0.00         2.00
 1265.49        2976.25           1579           1.00         3.92
 1265.52        2976.50           1582           0.00         2.00
 1265.55        2976.75           1586           0.00         2.00
 1265.58        2977.00           1589           0.00         2.00
 1265.60        2977.25           1592           0.00         2.00
 1265.63        2977.50           1596           0.00         2.00
 1265.66        2977.75           1599           0.00         2.00
 1265.69        2978.00           1602           0.00         2.00
 1265.71        2978.25           1606           0.00         2.00
 1265.74        2978.50           1609           0.00         2.00
 1265.77        2978.75           1612           0.00         2.00
 1265.79        2979.00           1616           0.00         2.00
 1265.82        2979.25           1619           0.00         2.00
 1265.85        2979.50           1623           0.00         2.00
 1265.88        2979.75           1626           0.00         2.00
 1265.91        2980.00           1629           1.00         3.92
 1265.94        2980.25           1633           0.00         2.00
 1265.97        2980.50           1636           0.00         2.00
 1265.99        2980.75           1639           0.00         2.00
 1266.02        2981.00           1643           0.00         2.00
 1266.05        2981.25           1646           1.00         3.92
 1266.08        2981.50           1649           0.00         2.00
 1266.10        2981.75           1653           0.00         2.00
 1266.13        2982.00           1656           0.00         2.00
 1266.16        2982.25           1659           0.00         2.00
 1266.19        2982.50           1663           1.00         3.92
 1266.21        2982.75           1666           0.00         2.00
 1266.24        2983.00           1669           0.00         2.00
 1266.28        2983.25           1673           0.00         2.00
 1266.31        2983.50           1676           1.00         3.92
 1266.33        2983.75           1679           0.00         2.00
 1266.36        2984.00           1683           0.00         2.00
HS scan finished at 21:06:40
end
************************************************************
  HS Scan of 
************************************************************
Integration time is 0.2294 seconds per sample
dh181017Izana 28.3081 16.4992 2.428648pr770
************************************************************
Dead Time -------------------------  3E-08 
Number of Cycles Used -------------  4 
Starting Wavelength (Angstroms) ---  2950 
Final Wavelength (Angstoms) -------  2984 
Wavelength Increment (Angstroms) --  .25 
Filter Wheel #1 Position ---------- (1) Ground quartz diffuser (ND=2.32)
Filter Wheel #2 Position ---------- (1) Neutral Density 0.494



************************************************************
HS scan start time = 21:22:21
Dark Count =  .1 


Time (GMT)  Wavelength (Ang)  Step Number  Raw Counts  Counts/Second

 1282.79        2950.00           1229         134.00       583.71
 1282.89        2950.25           1232         127.00       553.19
 1282.92        2950.50           1236         117.00       509.60
 1282.95        2950.75           1239         128.00       557.55
 1282.98        2951.00           1242         130.00       566.27
 1283.01        2951.25           1246         133.00       579.35
 1283.03        2951.50           1249         126.00       548.83
 1283.06        2951.75           1252         135.00       588.07
 1283.09        2952.00           1255         129.00       561.91
 1283.12        2952.25           1259         128.00       557.55
 1283.15        2952.50           1262         127.00       553.19
 1283.17        2952.75           1265         122.00       531.39
 1283.20        2953.00           1269         126.00       548.83
 1283.23        2953.25           1272         126.00       548.83
 1283.25        2953.50           1275         126.00       548.83
 1283.28        2953.75           1279         119.00       518.32
 1283.31        2954.00           1282         131.00       570.63
 1283.34        2954.25           1285         125.00       544.47
 1283.36        2954.50           1289         123.00       535.75
 1283.39        2954.75           1292         127.00       553.19
 1283.42        2955.00           1295         120.00       522.68
 1283.45        2955.25           1299         129.00       561.91
 1283.48        2955.50           1302         122.00       531.39
 1283.51        2955.75           1305         122.00       531.39
 1283.54        2956.00           1309         123.00       535.75
 1283.57        2956.25           1312         135.00       588.07
 1283.60        2956.50           1315         130.00       566.27
 1283.62        2956.75           1319         123.00       535.75
 1283.65        2957.00           1322         113.00       492.16
 1283.68        2957.25           1325         125.00       544.47
 1283.71        2957.50           1329         129.00       561.91
 1283.73        2957.75           1332         119.00       518.32
 1283.77        2958.00           1335         126.00       548.83
 1283.80        2958.25           1339         127.00       553.19
 1283.83        2958.50           1342         121.00       527.04
 1283.86        2958.75           1345         118.00       513.96
 1283.89        2959.00           1349         121.00       527.04
 1283.92        2959.25           1352         113.00       492.16
 1283.95        2959.50           1355         113.00       492.16
 1283.98        2959.75           1359         131.00       570.63
 1284.00        2960.00           1362         118.00       513.96
 1284.03        2960.25           1365         125.00       544.47
 1284.06        2960.50           1369         136.00       592.43
 1284.09        2960.75           1372         125.00       544.47
 1284.12        2961.00           1375         130.00       566.27
 1284.15        2961.25           1379         139.00       605.50
 1284.18        2961.50           1382         202.00       880.15
 1284.21        2961.75           1385         631.00      2750.44
 1284.24        2962.00           1389        2253.00      9823.73
 1284.27        2962.25           1392        3783.00     16498.57
 1284.30        2962.50           1395        5460.00     23817.80
 1284.32        2962.75           1399        8106.00     35372.74
 1284.35        2963.00           1402       10218.00     44601.49
 1284.38        2963.25           1405       12414.00     54202.72
 1284.41        2963.50           1409       14721.00     64295.22
 1284.43        2963.75           1412       16344.00     71399.06
 1284.46        2964.00           1415       18121.00     79180.46
 1284.49        2964.25           1419       20802.00     90927.30
 1284.52        2964.50           1422       22829.00     99814.14
 1284.55        2964.75           1425       24666.00    107872.10
 1284.57        2965.00           1429       26964.00    117957.70
 1284.60        2965.25           1432       28964.00    126740.40
 1284.63        2965.50           1435       30912.00    135299.20
 1284.66        2965.75           1439       33323.00    145898.30
 1284.68        2966.00           1442       35380.00    154946.60
 1284.71        2966.25           1445       37038.00    162243.30
 1284.74        2966.50           1449       39045.00    171080.20
 1284.77        2966.75           1452       40008.00    175322.10
 1284.80        2967.00           1455       40694.00    178344.40
 1284.82        2967.25           1459       40595.00    177908.20
 1284.85        2967.50           1462       40666.00    178221.10
 1284.88        2967.75           1465       40553.00    177723.20
 1284.91        2968.00           1469       39630.00    173656.90
 1284.93        2968.25           1472       38453.00    168473.10
 1284.96        2968.50           1475       37055.00    162318.10
 1284.99        2968.75           1479       34720.00    152042.80
 1285.02        2969.00           1482       32883.00    143963.50
 1285.05        2969.25           1485       31211.00    136613.30
 1285.07        2969.50           1489       28847.00    126226.40
 1285.10        2969.75           1492       27126.00    118668.90
 1285.13        2970.00           1495       24999.00    109333.20
 1285.16        2970.25           1499       22248.00     97266.41
 1285.19        2970.50           1502       20246.00     88490.50
 1285.22        2970.75           1505       18369.00     80266.72
 1285.25        2971.00           1509       15987.00     69836.22
 1285.28        2971.25           1512       14136.00     61735.42
 1285.31        2971.50           1515       12240.00     53441.76
 1285.33        2971.75           1519        9754.00     42573.53
 1285.36        2972.00           1522        8060.00     35171.79
 1285.39        2972.25           1525        6308.00     27520.10
 1285.42        2972.50           1529        4051.00     17668.04
 1285.44        2972.75           1532        2413.00     10521.63
 1285.47        2973.00           1536         777.00      3387.01
 1285.50        2973.25           1539         317.00      1381.49
 1285.53        2973.50           1542         154.00       670.89
 1285.56        2973.75           1546         138.00       601.14
 1285.59        2974.00           1549         131.00       570.63
 1285.62        2974.25           1552         121.00       527.04
 1285.65        2974.50           1556         124.00       540.11
 1285.68        2974.75           1559         118.00       513.96
 1285.70        2975.00           1562         111.00       483.44
 1285.73        2975.25           1566         110.00       479.08
 1285.76        2975.50           1569         111.00       483.44
 1285.79        2975.75           1572         111.00       483.44
 1285.82        2976.00           1576         110.00       479.08
 1285.84        2976.25           1579         120.00       522.68
 1285.87        2976.50           1582         107.00       466.00
 1285.90        2976.75           1586         116.00       505.24
 1285.93        2977.00           1589         116.00       505.24
 1285.96        2977.25           1592         106.00       461.65
 1285.99        2977.50           1596         111.00       483.44
 1286.02        2977.75           1599         110.00       479.08
 1286.05        2978.00           1602         111.00       483.44
 1286.07        2978.25           1606         118.00       513.96
 1286.10        2978.50           1609          97.00       422.41
 1286.13        2978.75           1612         114.00       496.52
 1286.16        2979.00           1616         106.00       461.65
 1286.18        2979.25           1619         110.00       479.08
 1286.21        2979.50           1623         106.00       461.65
 1286.24        2979.75           1626         116.00       505.24
 1286.27        2980.00           1629         100.00       435.49
 1286.30        2980.25           1633          99.00       431.13
 1286.33        2980.50           1636         112.00       487.80
 1286.36        2980.75           1639         104.00       452.93
 1286.39        2981.00           1643         111.00       483.44
 1286.41        2981.25           1646         101.00       439.85
 1286.45        2981.50           1649         108.00       470.36
 1286.48        2981.75           1653         102.00       444.21
 1286.51        2982.00           1656         106.00       461.65
 1286.53        2982.25           1659         108.00       470.36
 1286.56        2982.50           1663         108.00       470.36
 1286.59        2982.75           1666          99.00       431.13
 1286.62        2983.00           1669         107.00       466.00
 1286.64        2983.25           1673         108.00       470.36
 1286.67        2983.50           1676          97.00       422.41
 1286.71        2983.75           1679         104.00       452.93
 1286.73        2984.00           1683         107.00       466.00
HS scan finished at 21:27:02
end
************************************************************
  HS Scan of 
************************************************************
Integration time is 0.2294 seconds per sample
dh191017Izana 28.3081 16.4992 2.535944pr770
************************************************************
Dead Time -------------------------  3E-08 
Number of Cycles Used -------------  4 
Starting Wavelength (Angstroms) ---  2950 
Final Wavelength (Angstoms) -------  2984 
Wavelength Increment (Angstroms) --  .25 
Filter Wheel #1 Position ---------- (1) Ground quartz diffuser (ND=2.32)
Filter Wheel #2 Position ---------- (1) Neutral Density 0.494



************************************************************
HS scan start time = 00:44:30
Dark Count =  .2 


Time (GMT)  Wavelength (Ang)  Step Number  Raw Counts  Counts/Second

   44.96        2950.00           1229         117.00       509.16
   45.06        2950.25           1232         130.00       565.83
   45.09        2950.50           1236         125.00       544.04
   45.12        2950.75           1239         131.00       570.19
   45.15        2951.00           1242         120.00       522.24
   45.18        2951.25           1246         128.00       557.11
   45.20        2951.50           1249         119.00       517.88
   45.23        2951.75           1252         125.00       544.04
   45.27        2952.00           1255         129.00       561.47
   45.30        2952.25           1259         128.00       557.11
   45.33        2952.50           1262         130.00       565.83
   45.36        2952.75           1265         123.00       535.32
   45.39        2953.00           1269         125.00       544.04
   45.42        2953.25           1272         131.00       570.19
   45.45        2953.50           1275         125.00       544.04
   45.48        2953.75           1279         125.00       544.04
   45.51        2954.00           1282         120.00       522.24
   45.54        2954.25           1285         127.00       552.76
   45.57        2954.50           1289         126.00       548.40
   45.60        2954.75           1292         113.00       491.72
   45.62        2955.00           1295         123.00       535.32
   45.65        2955.25           1299         122.00       530.96
   45.68        2955.50           1302         129.00       561.47
   45.71        2955.75           1305         123.00       535.32
   45.73        2956.00           1309         121.00       526.60
   45.76        2956.25           1312         127.00       552.76
   45.79        2956.50           1315         121.00       526.60
   45.82        2956.75           1319         118.00       513.52
   45.84        2957.00           1322         123.00       535.32
   45.87        2957.25           1325         120.00       522.24
   45.90        2957.50           1329         129.00       561.47
   45.93        2957.75           1332         123.00       535.32
   45.97        2958.00           1335         123.00       535.32
   46.00        2958.25           1339         120.00       522.24
   46.03        2958.50           1342         122.00       530.96
   46.05        2958.75           1345         125.00       544.04
   46.08        2959.00           1349         108.00       469.93
   46.11        2959.25           1352         121.00       526.60
   46.14        2959.50           1355         118.00       513.52
   46.16        2959.75           1359         120.00       522.24
   46.20        2960.00           1362         127.00       552.76
   46.23        2960.25           1365         114.00       496.08
   46.26        2960.50           1369         126.00       548.40
   46.29        2960.75           1372         122.00       530.96
   46.31        2961.00           1375         141.00       613.79
   46.34        2961.25           1379         148.00       644.30
   46.37        2961.50           1382         215.00       936.38
   46.40        2961.75           1385         724.00      3155.49
   46.42        2962.00           1389        2226.00      9705.53
   46.45        2962.25           1392        3927.00     17126.50
   46.48        2962.50           1395        6345.00     27681.22
   46.51        2962.75           1399       10162.00     44356.28
   46.54        2963.00           1402       12982.00     56686.56
   46.56        2963.25           1405       15417.00     67340.79
   46.59        2963.50           1409       18854.00     82390.85
   46.62        2963.75           1412       21379.00     93456.09
   46.65        2964.00           1415       24118.00    105467.50
   46.68        2964.25           1419       28039.00    122677.40
   46.71        2964.50           1422       30390.00    133004.80
   46.74        2964.75           1425       32629.00    142846.30
   46.77        2965.00           1429       36406.00    159461.10
   46.80        2965.25           1432       39243.00    171951.90
   46.82        2965.50           1435       41516.00    181966.30
   46.85        2965.75           1439       45072.00    197645.40
   46.88        2966.00           1442       48026.00    210681.40
   46.91        2966.25           1445       50293.00    220692.60
   46.93        2966.50           1449       53169.00    233401.90
   46.96        2966.75           1452       54776.00    240507.70
   46.99        2967.00           1455       54611.00    239777.90
   47.02        2967.25           1459       55064.00    241781.40
   47.05        2967.50           1462       55234.00    242533.40
   47.08        2967.75           1465       55090.00    241896.40
   47.11        2968.00           1469       54005.00    237098.10
   47.14        2968.25           1472       52060.00    228500.00
   47.17        2968.50           1475       49877.00    218855.10
   47.19        2968.75           1479       47049.00    206368.70
   47.22        2969.00           1482       44670.00    195872.10
   47.25        2969.25           1485       42113.00    184597.50
   47.28        2969.50           1489       38995.00    170859.60
   47.31        2969.75           1492       36114.00    158176.00
   47.33        2970.00           1495       33871.00    148307.90
   47.36        2970.25           1499       30639.00    134099.00
   47.39        2970.50           1502       28121.00    123037.50
   47.42        2970.75           1505       25730.00    112540.60
   47.45        2971.00           1509       22098.00     96608.28
   47.48        2971.25           1512       19579.00     85567.24
   47.51        2971.50           1515       16991.00     74231.40
   47.54        2971.75           1519       13619.00     59473.07
   47.56        2972.00           1522       11283.00     49256.69
   47.59        2972.25           1525        8767.00     38260.11
   47.62        2972.50           1529        5465.00     23839.19
   47.65        2972.75           1532        3086.00     13457.05
   47.67        2973.00           1536        1410.00      6146.73
   47.70        2973.25           1539         554.00      2414.30
   47.73        2973.50           1542         226.00       984.34
   47.76        2973.75           1546         154.00       670.46
   47.79        2974.00           1549         142.00       618.15
   47.81        2974.25           1552         136.00       591.99
   47.84        2974.50           1556         127.00       552.76
   47.87        2974.75           1559         132.00       574.55
   47.90        2975.00           1562         119.00       517.88
   47.93        2975.25           1566         117.00       509.16
   47.96        2975.50           1569         111.00       483.01
   47.99        2975.75           1572         111.00       483.01
   48.02        2976.00           1576         116.00       504.80
   48.04        2976.25           1579         111.00       483.01
   48.07        2976.50           1582         120.00       522.24
   48.10        2976.75           1586         108.00       469.93
   48.13        2977.00           1589         110.00       478.65
   48.16        2977.25           1592         119.00       517.88
   48.18        2977.50           1596         112.00       487.37
   48.21        2977.75           1599         100.00       435.05
   48.25        2978.00           1602         115.00       500.44
   48.28        2978.25           1606         115.00       500.44
   48.30        2978.50           1609         102.00       443.77
   48.33        2978.75           1612         116.00       504.80
   48.36        2979.00           1616         117.00       509.16
   48.39        2979.25           1619         101.00       439.41
   48.41        2979.50           1623         106.00       461.21
   48.44        2979.75           1626         107.00       465.57
   48.47        2980.00           1629         104.00       452.49
   48.50        2980.25           1633         108.00       469.93
   48.53        2980.50           1636         109.00       474.29
   48.55        2980.75           1639         110.00       478.65
   48.58        2981.00           1643         104.00       452.49
   48.61        2981.25           1646         118.00       513.52
   48.64        2981.50           1649         109.00       474.29
   48.66        2981.75           1653         100.00       435.05
   48.69        2982.00           1656         103.00       448.13
   48.72        2982.25           1659         111.00       483.01
   48.74        2982.50           1663         102.00       443.77
   48.78        2982.75           1666         110.00       478.65
   48.81        2983.00           1669          89.00       387.10
   48.84        2983.25           1673         105.00       456.85
   48.87        2983.50           1676         113.00       491.72
   48.90        2983.75           1679         105.00       456.85
   48.92        2984.00           1683         106.00       461.21
HS scan finished at 00:49:13
end
