************************************************************
  HS Scan of 
************************************************************
Integration time is 0.2294 seconds per sample
dh171017Izana 28.3081 16.4992 2.589593pr770
************************************************************
Dead Time -------------------------  3E-08 
Number of Cycles Used -------------  4 
Starting Wavelength (Angstroms) ---  2950 
Final Wavelength (Angstoms) -------  2984 
Wavelength Increment (Angstroms) --  .25 
Filter Wheel #1 Position ---------- (1) Ground quartz diffuser (ND=2.32)
Filter Wheel #2 Position ---------- (1) Neutral Density 0.494



************************************************************
HS scan start time = 22:29:36
Dark Count =  .1 


Time (GMT)  Wavelength (Ang)  Step Number  Raw Counts  Counts/Second

 1350.04        2950.00           1229           0.00         2.00
 1350.15        2950.25           1232           0.00         2.00
 1350.19        2950.50           1236           0.00         2.00
 1350.22        2950.75           1239           0.00         2.00
 1350.26        2951.00           1242           0.00         2.00
 1350.30        2951.25           1246           1.00         3.92
 1350.34        2951.50           1249           0.00         2.00
 1350.37        2951.75           1252           0.00         2.00
 1350.41        2952.00           1255           0.00         2.00
 1350.44        2952.25           1259           0.00         2.00
 1350.47        2952.50           1262           0.00         2.00
 1350.50        2952.75           1265           0.00         2.00
 1350.53        2953.00           1269           1.00         3.92
 1350.56        2953.25           1272           0.00         2.00
 1350.59        2953.50           1275           0.00         2.00
 1350.61        2953.75           1279           0.00         2.00
 1350.64        2954.00           1282           0.00         2.00
 1350.67        2954.25           1285           0.00         2.00
 1350.70        2954.50           1289           0.00         2.00
 1350.72        2954.75           1292           0.00         2.00
 1350.75        2955.00           1295           1.00         3.92
 1350.78        2955.25           1299           0.00         2.00
 1350.81        2955.50           1302           0.00         2.00
 1350.83        2955.75           1305           0.00         2.00
 1350.86        2956.00           1309           1.00         3.92
 1350.89        2956.25           1312           0.00         2.00
 1350.92        2956.50           1315           0.00         2.00
 1350.94        2956.75           1319           0.00         2.00
 1350.97        2957.00           1322           0.00         2.00
 1351.00        2957.25           1325           0.00         2.00
 1351.03        2957.50           1329           0.00         2.00
 1351.05        2957.75           1332           0.00         2.00
 1351.08        2958.00           1335           0.00         2.00
 1351.11        2958.25           1339           0.00         2.00
 1351.14        2958.50           1342           0.00         2.00
 1351.16        2958.75           1345           0.00         2.00
 1351.19        2959.00           1349           0.00         2.00
 1351.22        2959.25           1352           0.00         2.00
 1351.25        2959.50           1355           0.00         2.00
 1351.28        2959.75           1359           0.00         2.00
 1351.31        2960.00           1362           0.00         2.00
 1351.34        2960.25           1365           0.00         2.00
 1351.36        2960.50           1369           0.00         2.00
 1351.39        2960.75           1372           0.00         2.00
 1351.42        2961.00           1375           0.00         2.00
 1351.45        2961.25           1379           0.00         2.00
 1351.47        2961.50           1382           0.00         2.00
 1351.50        2961.75           1385           1.00         3.92
 1351.53        2962.00           1389           0.00         2.00
 1351.56        2962.25           1392           0.00         2.00
 1351.58        2962.50           1395           0.00         2.00
 1351.61        2962.75           1399           0.00         2.00
 1351.64        2963.00           1402           0.00         2.00
 1351.67        2963.25           1405           0.00         2.00
 1351.69        2963.50           1409           0.00         2.00
 1351.72        2963.75           1412           1.00         3.92
 1351.75        2964.00           1415           0.00         2.00
 1351.78        2964.25           1419           0.00         2.00
 1351.80        2964.50           1422           0.00         2.00
 1351.83        2964.75           1425           1.00         3.92
 1351.86        2965.00           1429           0.00         2.00
 1351.89        2965.25           1432           0.00         2.00
 1351.91        2965.50           1435           0.00         2.00
 1351.94        2965.75           1439           0.00         2.00
 1351.97        2966.00           1442           0.00         2.00
 1352.00        2966.25           1445           0.00         2.00
 1352.03        2966.50           1449           0.00         2.00
 1352.06        2966.75           1452           1.00         3.92
 1352.09        2967.00           1455           0.00         2.00
 1352.11        2967.25           1459           0.00         2.00
 1352.14        2967.50           1462           1.00         3.92
 1352.18        2967.75           1465           0.00         2.00
 1352.21        2968.00           1469           0.00         2.00
 1352.23        2968.25           1472           0.00         2.00
 1352.26        2968.50           1475           0.00         2.00
 1352.29        2968.75           1479           0.00         2.00
 1352.32        2969.00           1482           0.00         2.00
 1352.34        2969.25           1485           0.00         2.00
 1352.37        2969.50           1489           0.00         2.00
 1352.40        2969.75           1492           0.00         2.00
 1352.43        2970.00           1495           0.00         2.00
 1352.45        2970.25           1499           0.00         2.00
 1352.48        2970.50           1502           0.00         2.00
 1352.51        2970.75           1505           0.00         2.00
 1352.54        2971.00           1509           0.00         2.00
 1352.57        2971.25           1512           1.00         3.92
 1352.60        2971.50           1515           0.00         2.00
 1352.62        2971.75           1519           0.00         2.00
 1352.65        2972.00           1522           0.00         2.00
 1352.68        2972.25           1525           1.00         3.92
 1352.71        2972.50           1529           0.00         2.00
 1352.73        2972.75           1532           0.00         2.00
 1352.76        2973.00           1536           0.00         2.00
 1352.79        2973.25           1539           0.00         2.00
 1352.82        2973.50           1542           0.00         2.00
 1352.84        2973.75           1546           0.00         2.00
 1352.87        2974.00           1549           1.00         3.92
 1352.90        2974.25           1552           0.00         2.00
 1352.93        2974.50           1556           0.00         2.00
 1352.95        2974.75           1559           0.00         2.00
 1352.98        2975.00           1562           0.00         2.00
 1353.01        2975.25           1566           0.00         2.00
 1353.04        2975.50           1569           0.00         2.00
 1353.07        2975.75           1572           0.00         2.00
 1353.10        2976.00           1576           0.00         2.00
 1353.12        2976.25           1579           0.00         2.00
 1353.15        2976.50           1582           0.00         2.00
 1353.18        2976.75           1586           0.00         2.00
 1353.21        2977.00           1589           0.00         2.00
 1353.23        2977.25           1592           0.00         2.00
 1353.26        2977.50           1596           0.00         2.00
 1353.29        2977.75           1599           0.00         2.00
 1353.32        2978.00           1602           0.00         2.00
 1353.34        2978.25           1606           0.00         2.00
 1353.37        2978.50           1609           0.00         2.00
 1353.41        2978.75           1612           0.00         2.00
 1353.44        2979.00           1616           0.00         2.00
 1353.46        2979.25           1619           0.00         2.00
 1353.49        2979.50           1623           0.00         2.00
 1353.52        2979.75           1626           0.00         2.00
 1353.55        2980.00           1629           0.00         2.00
 1353.57        2980.25           1633           0.00         2.00
 1353.60        2980.50           1636           0.00         2.00
 1353.63        2980.75           1639           0.00         2.00
 1353.66        2981.00           1643           0.00         2.00
 1353.68        2981.25           1646           0.00         2.00
 1353.71        2981.50           1649           0.00         2.00
 1353.74        2981.75           1653           0.00         2.00
 1353.77        2982.00           1656           0.00         2.00
 1353.79        2982.25           1659           0.00         2.00
 1353.82        2982.50           1663           0.00         2.00
 1353.85        2982.75           1666           0.00         2.00
 1353.88        2983.00           1669           0.00         2.00
 1353.90        2983.25           1673           0.00         2.00
 1353.93        2983.50           1676           1.00         3.92
 1353.96        2983.75           1679           0.00         2.00
 1353.98        2984.00           1683           0.00         2.00
HS scan finished at 22:34:17
end
