************************************************************
  HS Scan of (1) Internal mercury lamp
************************************************************
Integration time is 0.2294 seconds per sample
dh311018Senai 1.6385-103.6656 3.394313pr1000
************************************************************
Dead Time -------------------------  2.8E-08 
Number of Cycles Used -------------  4 
Starting Wavelength (Angstroms) ---  2950 
Final Wavelength (Angstoms) -------  2984 
Wavelength Increment (Angstroms) --  .25 
Filter Wheel #1 Position ---------- (1) Ground quartz diffuser (ND=2.32)
Filter Wheel #2 Position ---------- (1) Neutral Density 0.494



************************************************************
HS scan start time = 22:28:49
Dark Count =  .4 


Time (GMT)  Wavelength (Ang)  Step Number  Raw Counts  Counts/Second

 1349.27        2950.00           1232         108.00       469.06
 1349.37        2950.25           1236         114.00       495.21
 1349.40        2950.50           1239         120.00       521.37
 1349.43        2950.75           1242         105.00       455.98
 1349.46        2951.00           1246         108.00       469.06
 1349.48        2951.25           1249         102.00       442.90
 1349.51        2951.50           1252         107.00       464.70
 1349.54        2951.75           1256         105.00       455.98
 1349.57        2952.00           1259         105.00       455.98
 1349.60        2952.25           1262         110.00       477.77
 1349.63        2952.50           1265         109.00       473.42
 1349.65        2952.75           1269         110.00       477.77
 1349.68        2953.00           1272         108.00       469.06
 1349.71        2953.25           1275         102.00       442.90
 1349.74        2953.50           1279         107.00       464.70
 1349.77        2953.75           1282         114.00       495.21
 1349.79        2954.00           1285         102.00       442.90
 1349.82        2954.25           1289         108.00       469.06
 1349.85        2954.50           1292         108.00       469.06
 1349.88        2954.75           1295         103.00       447.26
 1349.91        2955.00           1299         100.00       434.18
 1349.94        2955.25           1302         109.00       473.42
 1349.96        2955.50           1305         101.00       438.54
 1349.99        2955.75           1309         103.00       447.26
 1350.02        2956.00           1312         103.00       447.26
 1350.05        2956.25           1315         116.00       503.93
 1350.08        2956.50           1318          98.00       425.46
 1350.10        2956.75           1322         115.00       499.57
 1350.13        2957.00           1325         104.00       451.62
 1350.16        2957.25           1328         109.00       473.42
 1350.19        2957.50           1332         103.00       447.26
 1350.22        2957.75           1335         103.00       447.26
 1350.25        2958.00           1338         102.00       442.90
 1350.27        2958.25           1342         102.00       442.90
 1350.30        2958.50           1345          98.00       425.46
 1350.33        2958.75           1348         104.00       451.62
 1350.36        2959.00           1352         104.00       451.62
 1350.39        2959.25           1355         107.00       464.70
 1350.42        2959.50           1358          96.00       416.74
 1350.44        2959.75           1362         111.00       482.13
 1350.47        2960.00           1365          97.00       421.10
 1350.50        2960.25           1368         114.00       495.21
 1350.53        2960.50           1372         116.00       503.93
 1350.56        2960.75           1375         128.00       556.24
 1350.58        2961.00           1378         139.00       604.20
 1350.61        2961.25           1382         218.00       948.59
 1350.64        2961.50           1385         838.00      3651.64
 1350.67        2961.75           1388        2146.00      9355.55
 1350.70        2962.00           1391        4679.00     20406.60
 1350.73        2962.25           1395        9013.00     39331.00
 1350.75        2962.50           1398       12618.00     55087.53
 1350.78        2962.75           1401       16297.00     71181.83
 1350.81        2963.00           1405       20378.00     89051.77
 1350.84        2963.25           1408       24302.00    106251.10
 1350.87        2963.50           1411       28627.00    125227.30
 1350.90        2963.75           1415       33387.00    146135.60
 1350.92        2964.00           1418       37463.00    164058.80
 1350.95        2964.25           1421       41406.00    181414.40
 1350.98        2964.50           1425       46133.00    202243.20
 1351.01        2964.75           1428       50004.00    219318.30
 1351.04        2965.00           1431       53667.00    235491.00
 1351.07        2965.25           1435       58767.00    258032.80
 1351.10        2965.50           1438       61975.00    272226.70
 1351.12        2965.75           1441       64963.00    285457.40
 1351.15        2966.00           1445       69127.00    303911.70
 1351.18        2966.25           1448       72723.00    319864.20
 1351.21        2966.50           1451       75538.00    332362.00
 1351.24        2966.75           1455       76701.00    337528.00
 1351.27        2967.00           1458       76981.00    338772.00
 1351.29        2967.25           1461       76944.00    338607.60
 1351.32        2967.50           1465       76689.00    337474.70
 1351.35        2967.75           1468       76333.00    335893.20
 1351.38        2968.00           1471       74434.00    327459.50
 1351.41        2968.25           1475       71414.00    314055.60
 1351.44        2968.50           1478       68454.00    300927.80
 1351.47        2968.75           1481       65124.00    286170.50
 1351.49        2969.00           1485       60668.00    266442.50
 1351.52        2969.25           1488       56973.00    250100.20
 1351.55        2969.50           1491       52759.00    231480.70
 1351.58        2969.75           1495       47446.00    208033.00
 1351.61        2970.00           1498       44161.00    193550.90
 1351.64        2970.25           1501       40273.00    176425.60
 1351.66        2970.50           1505       35943.00    157372.90
 1351.69        2970.75           1508       31949.00    139816.60
 1351.72        2971.00           1511       28105.00    122936.00
 1351.75        2971.25           1515       24213.00    105860.80
 1351.78        2971.50           1518       20981.00     91693.71
 1351.81        2971.75           1521       17126.00     74810.43
 1351.83        2972.00           1525       12670.00     55314.90
 1351.86        2972.25           1528        8677.00     37863.14
 1351.89        2972.50           1531        4890.00     21327.47
 1351.92        2972.75           1535        1705.00      7432.24
 1351.95        2973.00           1538         606.00      2640.13
 1351.98        2973.25           1541         262.00      1140.40
 1352.01        2973.50           1544         174.00       756.77
 1352.03        2973.75           1548         148.00       643.43
 1352.06        2974.00           1551         139.00       604.20
 1352.09        2974.25           1554         134.00       582.40
 1352.12        2974.50           1558         132.00       573.68
 1352.15        2974.75           1561         116.00       503.93
 1352.17        2975.00           1564         100.00       434.18
 1352.20        2975.25           1568         102.00       442.90
 1352.23        2975.50           1571          95.00       412.38
 1352.26        2975.75           1574         102.00       442.90
 1352.29        2976.00           1578         102.00       442.90
 1352.31        2976.25           1581          97.00       421.10
 1352.34        2976.50           1584          88.00       381.87
 1352.37        2976.75           1588          94.00       408.03
 1352.40        2977.00           1591         105.00       455.98
 1352.43        2977.25           1595         100.00       434.18
 1352.45        2977.50           1598          91.00       394.95
 1352.48        2977.75           1601          91.00       394.95
 1352.51        2978.00           1605         100.00       434.18
 1352.54        2978.25           1608         104.00       451.62
 1352.57        2978.50           1611          89.00       386.23
 1352.60        2978.75           1615          93.00       403.67
 1352.63        2979.00           1618         100.00       434.18
 1352.65        2979.25           1621         103.00       447.26
 1352.68        2979.50           1625          93.00       403.67
 1352.71        2979.75           1628         105.00       455.98
 1352.74        2980.00           1631         100.00       434.18
 1352.77        2980.25           1635          97.00       421.10
 1352.79        2980.50           1638          95.00       412.38
 1352.82        2980.75           1641         104.00       451.62
 1352.85        2981.00           1645          90.00       390.59
 1352.88        2981.25           1648          94.00       408.03
 1352.91        2981.50           1651          99.00       429.82
 1352.93        2981.75           1655          97.00       421.10
 1352.96        2982.00           1658          91.00       394.95
 1352.99        2982.25           1661          96.00       416.74
 1353.02        2982.50           1665          92.00       399.31
 1353.05        2982.75           1668          94.00       408.03
 1353.07        2983.00           1671          97.00       421.10
 1353.10        2983.25           1675          83.00       360.07
 1353.13        2983.50           1678          91.00       394.95
 1353.16        2983.75           1681          94.00       408.03
 1353.19        2984.00           1685          89.00       386.23
HS scan finished at 22:33:29
end
