************************************************************
  HS Scan of (1) Internal mercury lamp
************************************************************
Integration time is 0.2294 seconds per sample
dh301018Senai 1.6385-103.6656 3.823498pr1000
************************************************************
Dead Time -------------------------  2.8E-08 
Number of Cycles Used -------------  4 
Starting Wavelength (Angstroms) ---  2950 
Final Wavelength (Angstoms) -------  2984 
Wavelength Increment (Angstroms) --  .25 
Filter Wheel #1 Position ---------- (1) Ground quartz diffuser (ND=2.32)
Filter Wheel #2 Position ---------- (1) Neutral Density 0.494



************************************************************
HS scan start time = 06:24:29
Dark Count =  1.4 


Time (GMT)  Wavelength (Ang)  Step Number  Raw Counts  Counts/Second

  384.93        2950.00           1232          84.00       360.07
  385.03        2950.25           1236          78.00       333.92
  385.05        2950.50           1239          82.00       351.35
  385.08        2950.75           1242          82.00       351.35
  385.11        2951.00           1246          80.00       342.64
  385.14        2951.25           1249          79.00       338.28
  385.17        2951.50           1252          75.00       320.84
  385.19        2951.75           1256          74.00       316.48
  385.22        2952.00           1259          91.00       390.59
  385.25        2952.25           1262          87.00       373.15
  385.28        2952.50           1265          81.00       347.00
  385.31        2952.75           1269          81.00       347.00
  385.33        2953.00           1272          81.00       347.00
  385.36        2953.25           1275          82.00       351.35
  385.39        2953.50           1279          72.00       307.76
  385.42        2953.75           1282          78.00       333.92
  385.45        2954.00           1285          81.00       347.00
  385.47        2954.25           1289          81.00       347.00
  385.50        2954.50           1292          83.00       355.71
  385.53        2954.75           1295          79.00       338.28
  385.56        2955.00           1299          91.00       390.59
  385.59        2955.25           1302          84.00       360.07
  385.61        2955.50           1305          76.00       325.20
  385.64        2955.75           1309          81.00       347.00
  385.67        2956.00           1312          76.00       325.20
  385.70        2956.25           1315          79.00       338.28
  385.73        2956.50           1318          85.00       364.43
  385.75        2956.75           1322          85.00       364.43
  385.78        2957.00           1325          73.00       312.12
  385.81        2957.25           1328          85.00       364.43
  385.84        2957.50           1332          83.00       355.71
  385.87        2957.75           1335          77.00       329.56
  385.90        2958.00           1338          74.00       316.48
  385.92        2958.25           1342          81.00       347.00
  385.95        2958.50           1345          83.00       355.71
  385.98        2958.75           1348          84.00       360.07
  386.01        2959.00           1352          81.00       347.00
  386.04        2959.25           1355          91.00       390.59
  386.06        2959.50           1358          74.00       316.48
  386.09        2959.75           1362          72.00       307.76
  386.12        2960.00           1365          85.00       364.43
  386.15        2960.25           1368          85.00       364.43
  386.17        2960.50           1372          88.00       377.51
  386.20        2960.75           1375          93.00       399.31
  386.23        2961.00           1378         117.00       503.93
  386.26        2961.25           1382         172.00       743.69
  386.29        2961.50           1385         889.00      3869.64
  386.31        2961.75           1388        2742.00     11950.82
  386.34        2962.00           1391        5040.00     21977.78
  386.37        2962.25           1395        8620.00     37609.77
  386.40        2962.50           1398       11980.00     52293.60
  386.43        2962.75           1401       15506.00     67715.88
  386.46        2963.00           1405       20419.00     89227.00
  386.48        2963.25           1408       23785.00    103979.70
  386.51        2963.50           1411       27172.00    118836.80
  386.54        2963.75           1415       31750.00    138937.90
  386.57        2964.00           1418       35716.00    156370.20
  386.60        2964.25           1421       39180.00    171609.90
  386.63        2964.50           1425       43791.00    191916.10
  386.65        2964.75           1428       47440.00    208002.20
  386.68        2965.00           1431       51496.00    225899.50
  386.71        2965.25           1435       55875.00    245242.40
  386.74        2965.50           1438       59309.00    260425.70
  386.77        2965.75           1441       62597.00    274975.60
  386.79        2966.00           1445       66756.00    293397.00
  386.82        2966.25           1448       69591.00    305964.90
  386.85        2966.50           1451       71435.00    314144.30
  386.88        2966.75           1455       72576.00    319207.40
  386.91        2967.00           1458       72754.00    319997.40
  386.94        2967.25           1461       72891.00    320605.40
  386.96        2967.50           1465       72721.00    319850.90
  386.99        2967.75           1468       71877.00    316105.50
  387.02        2968.00           1471       70057.00    308031.60
  387.05        2968.25           1475       66500.00    292262.50
  387.08        2968.50           1478       63193.00    277614.30
  387.11        2968.75           1481       59892.00    263004.70
  387.13        2969.00           1485       56542.00    248190.50
  387.16        2969.25           1488       52901.00    232103.40
  387.19        2969.50           1491       49852.00    218643.10
  387.22        2969.75           1495       45522.00    199545.10
  387.25        2970.00           1498       41614.00    182326.00
  387.27        2970.25           1501       37851.00    165761.50
  387.30        2970.50           1505       33015.00    144496.30
  387.33        2970.75           1508       29893.00    130781.40
  387.36        2971.00           1511       26587.00    116269.80
  387.39        2971.25           1515       22070.00     96461.59
  387.42        2971.50           1518       18556.00     81066.98
  387.45        2971.75           1521       15541.00     67869.05
  387.47        2972.00           1525       11808.00     51541.64
  387.50        2972.25           1528        8450.00     36867.16
  387.53        2972.50           1531        5169.00     22540.81
  387.56        2972.75           1535        1293.00      5631.23
  387.58        2973.00           1538         336.00      1458.65
  387.61        2973.25           1541         179.00       774.21
  387.64        2973.50           1544         138.00       595.48
  387.67        2973.75           1548         132.00       569.32
  387.70        2974.00           1551         118.00       508.29
  387.72        2974.25           1554         118.00       508.29
  387.75        2974.50           1558          93.00       399.31
  387.78        2974.75           1561          87.00       373.15
  387.81        2975.00           1564          85.00       364.43
  387.84        2975.25           1568          80.00       342.64
  387.87        2975.50           1571          80.00       342.64
  387.89        2975.75           1574          84.00       360.07
  387.92        2976.00           1578          79.00       338.28
  387.95        2976.25           1581          74.00       316.48
  387.98        2976.50           1584          80.00       342.64
  388.01        2976.75           1588          78.00       333.92
  388.04        2977.00           1591          80.00       342.64
  388.06        2977.25           1595          71.00       303.40
  388.09        2977.50           1598          77.00       329.56
  388.12        2977.75           1601          78.00       333.92
  388.15        2978.00           1605          79.00       338.28
  388.18        2978.25           1608          71.00       303.40
  388.20        2978.50           1611          74.00       316.48
  388.23        2978.75           1615          71.00       303.40
  388.26        2979.00           1618          82.00       351.35
  388.29        2979.25           1621          78.00       333.92
  388.32        2979.50           1625          77.00       329.56
  388.34        2979.75           1628          79.00       338.28
  388.37        2980.00           1631          71.00       303.40
  388.40        2980.25           1635          69.00       294.68
  388.43        2980.50           1638          79.00       338.28
  388.46        2980.75           1641          74.00       316.48
  388.48        2981.00           1645          74.00       316.48
  388.51        2981.25           1648          76.00       325.20
  388.54        2981.50           1651          76.00       325.20
  388.57        2981.75           1655          79.00       338.28
  388.60        2982.00           1658          77.00       329.56
  388.62        2982.25           1661          73.00       312.12
  388.65        2982.50           1665          67.00       285.97
  388.68        2982.75           1668          68.00       290.32
  388.71        2983.00           1671          75.00       320.84
  388.74        2983.25           1675          74.00       316.48
  388.76        2983.50           1678          66.00       281.61
  388.79        2983.75           1681          75.00       320.84
  388.82        2984.00           1685          75.00       320.84
HS scan finished at 06:29:07
end
************************************************************
  HS Scan of (1) Internal mercury lamp
************************************************************
Integration time is 0.2294 seconds per sample
dh301018Senai 1.6385-103.6656 3.555258pr1000
************************************************************
Dead Time -------------------------  2.8E-08 
Number of Cycles Used -------------  4 
Starting Wavelength (Angstroms) ---  2950 
Final Wavelength (Angstoms) -------  2984 
Wavelength Increment (Angstroms) --  .25 
Filter Wheel #1 Position ---------- (1) Ground quartz diffuser (ND=2.32)
Filter Wheel #2 Position ---------- (1) Neutral Density 0.494



************************************************************
HS scan start time = 11:35:09
Dark Count =  .7 


Time (GMT)  Wavelength (Ang)  Step Number  Raw Counts  Counts/Second

  695.60        2950.00           1232          98.00       424.16
  695.70        2950.25           1236          97.00       419.80
  695.73        2950.50           1239         103.00       445.95
  695.76        2950.75           1242         106.00       459.03
  695.78        2951.00           1246         108.00       467.75
  695.81        2951.25           1249         106.00       459.03
  695.84        2951.50           1252          96.00       415.44
  695.87        2951.75           1256         102.00       441.59
  695.90        2952.00           1259         105.00       454.67
  695.92        2952.25           1262         105.00       454.67
  695.95        2952.50           1265         110.00       476.47
  695.98        2952.75           1269         106.00       459.03
  696.01        2953.00           1272         110.00       476.47
  696.04        2953.25           1275          99.00       428.51
  696.07        2953.50           1279         113.00       489.54
  696.09        2953.75           1282         107.00       463.39
  696.12        2954.00           1285          97.00       419.80
  696.15        2954.25           1289          98.00       424.16
  696.18        2954.50           1292         106.00       459.03
  696.21        2954.75           1295          95.00       411.08
  696.24        2955.00           1299         102.00       441.59
  696.26        2955.25           1302         100.00       432.87
  696.29        2955.50           1305          97.00       419.80
  696.32        2955.75           1309         104.00       450.31
  696.35        2956.00           1312          95.00       411.08
  696.38        2956.25           1315         100.00       432.87
  696.40        2956.50           1318         101.00       437.23
  696.43        2956.75           1322         104.00       450.31
  696.46        2957.00           1325          98.00       424.16
  696.49        2957.25           1328          97.00       419.80
  696.52        2957.50           1332          99.00       428.51
  696.55        2957.75           1335         116.00       502.62
  696.57        2958.00           1338         100.00       432.87
  696.60        2958.25           1342          90.00       389.28
  696.63        2958.50           1345          96.00       415.44
  696.66        2958.75           1348          96.00       415.44
  696.69        2959.00           1352         105.00       454.67
  696.71        2959.25           1355          94.00       406.72
  696.74        2959.50           1358          97.00       419.80
  696.77        2959.75           1362          95.00       411.08
  696.80        2960.00           1365         110.00       476.47
  696.83        2960.25           1368          98.00       424.16
  696.85        2960.50           1372          97.00       419.80
  696.88        2960.75           1375         112.00       485.19
  696.91        2961.00           1378         140.00       607.25
  696.94        2961.25           1382         223.00       969.08
  696.97        2961.50           1385         876.00      3816.01
  697.00        2961.75           1388        2227.00      9707.52
  697.03        2962.00           1391        4886.00     21308.70
  697.05        2962.25           1395        9394.00     40994.28
  697.08        2962.50           1398       12978.00     56660.44
  697.11        2962.75           1401       16463.00     71907.06
  697.14        2963.00           1405       20360.00     88971.60
  697.17        2963.25           1408       24397.00    106666.40
  697.19        2963.50           1411       28347.00    123996.90
  697.22        2963.75           1415       33966.00    148679.10
  697.25        2964.00           1418       37638.00    164827.40
  697.28        2964.25           1421       41120.00    180153.60
  697.31        2964.50           1425       45423.00    199111.80
  697.34        2964.75           1428       49297.00    216197.20
  697.36        2965.00           1431       53274.00    233753.80
  697.39        2965.25           1435       57769.00    253618.10
  697.42        2965.50           1438       61700.00    271008.20
  697.45        2965.75           1441       65796.00    289146.30
  697.48        2966.00           1445       70122.00    308323.00
  697.51        2966.25           1448       73877.00    324985.20
  697.53        2966.50           1451       75780.00    333435.50
  697.56        2966.75           1455       76537.00    336798.10
  697.59        2967.00           1458       76620.00    337166.80
  697.62        2967.25           1461       76307.00    335776.30
  697.65        2967.50           1465       76534.00    336784.70
  697.68        2967.75           1468       75664.00    332920.30
  697.70        2968.00           1471       73618.00    323835.50
  697.73        2968.25           1475       69738.00    306619.90
  697.76        2968.50           1478       66324.00    291485.70
  697.79        2968.75           1481       63088.00    277152.50
  697.82        2969.00           1485       58468.00    256709.10
  697.85        2969.25           1488       54946.00    241140.10
  697.87        2969.50           1491       51016.00    223783.70
  697.90        2969.75           1495       46518.00    203939.40
  697.93        2970.00           1498       43788.00    191905.90
  697.96        2970.25           1501       40271.00    176415.50
  697.99        2970.50           1505       35366.00    154834.20
  698.02        2970.75           1508       31645.00    138479.70
  698.04        2971.00           1511       28177.00    123250.70
  698.07        2971.25           1515       23073.00    100861.20
  698.10        2971.50           1518       19750.00     86299.39
  698.13        2971.75           1521       16763.00     73220.15
  698.16        2972.00           1525       12246.00     53459.65
  698.19        2972.25           1528        8456.00     36896.43
  698.22        2972.50           1531        4837.00     21094.85
  698.24        2972.75           1535        1937.00      8442.71
  698.27        2973.00           1538         689.00      3000.69
  698.30        2973.25           1541         232.00      1008.31
  698.33        2973.50           1544         170.00       738.03
  698.36        2973.75           1548         137.00       594.17
  698.39        2974.00           1551         124.00       537.50
  698.41        2974.25           1554         120.00       520.06
  698.44        2974.50           1558         106.00       459.03
  698.47        2974.75           1561         100.00       432.87
  698.50        2975.00           1564         103.00       445.95
  698.52        2975.25           1568          88.00       380.56
  698.55        2975.50           1571          94.00       406.72
  698.58        2975.75           1574          99.00       428.51
  698.61        2976.00           1578         100.00       432.87
  698.64        2976.25           1581          79.00       341.33
  698.67        2976.50           1584          95.00       411.08
  698.69        2976.75           1588          94.00       406.72
  698.72        2977.00           1591         102.00       441.59
  698.75        2977.25           1595          87.00       376.20
  698.78        2977.50           1598         102.00       441.59
  698.81        2977.75           1601          93.00       402.36
  698.84        2978.00           1605         101.00       437.23
  698.86        2978.25           1608          88.00       380.56
  698.89        2978.50           1611         100.00       432.87
  698.92        2978.75           1615          92.00       398.00
  698.95        2979.00           1618          84.00       363.12
  698.97        2979.25           1621          96.00       415.44
  699.00        2979.50           1625          94.00       406.72
  699.03        2979.75           1628          96.00       415.44
  699.06        2980.00           1631          84.00       363.12
  699.09        2980.25           1635          94.00       406.72
  699.12        2980.50           1638          85.00       367.48
  699.14        2980.75           1641          89.00       384.92
  699.17        2981.00           1645          87.00       376.20
  699.20        2981.25           1648          85.00       367.48
  699.23        2981.50           1651          97.00       419.80
  699.26        2981.75           1655          90.00       389.28
  699.29        2982.00           1658          88.00       380.56
  699.31        2982.25           1661          90.00       389.28
  699.34        2982.50           1665          97.00       419.80
  699.37        2982.75           1668          85.00       367.48
  699.40        2983.00           1671          82.00       354.41
  699.43        2983.25           1675          93.00       402.36
  699.45        2983.50           1678          85.00       367.48
  699.48        2983.75           1681          82.00       354.41
  699.51        2984.00           1685          80.00       345.69
HS scan finished at 11:39:48
end
