************************************************************
  HS Scan of (1) Internal mercury lamp
************************************************************
Integration time is 0.2294 seconds per sample
dh031118Kota Bharu 6.16371-102.3 3.50161pr1000
************************************************************
Dead Time -------------------------  2.8E-08 
Number of Cycles Used -------------  4 
Starting Wavelength (Angstroms) ---  2950 
Final Wavelength (Angstoms) -------  2984 
Wavelength Increment (Angstroms) --  .25 
Filter Wheel #1 Position ---------- (1) Ground quartz diffuser (ND=2.32)
Filter Wheel #2 Position ---------- (1) Neutral Density 0.494



************************************************************
HS scan start time = 11:44:35
Dark Count =  .5 


Time (GMT)  Wavelength (Ang)  Step Number  Raw Counts  Counts/Second

  705.04        2950.00           1232         100.00       433.75
  705.14        2950.25           1236          92.00       398.87
  705.17        2950.50           1239         106.00       459.90
  705.19        2950.75           1242         108.00       468.62
  705.22        2951.00           1246         112.00       486.06
  705.25        2951.25           1249          99.00       429.39
  705.28        2951.50           1252         101.00       438.10
  705.31        2951.75           1256         103.00       446.82
  705.34        2952.00           1259         105.00       455.54
  705.36        2952.25           1262          82.00       355.28
  705.39        2952.50           1265          96.00       416.31
  705.42        2952.75           1269         109.00       472.98
  705.45        2953.00           1272         101.00       438.10
  705.48        2953.25           1275          94.00       407.59
  705.51        2953.50           1279         106.00       459.90
  705.53        2953.75           1282          98.00       425.03
  705.56        2954.00           1285          88.00       381.43
  705.59        2954.25           1289         105.00       455.54
  705.62        2954.50           1292         104.00       451.18
  705.65        2954.75           1295         111.00       481.70
  705.68        2955.00           1299          94.00       407.59
  705.70        2955.25           1302         113.00       490.42
  705.73        2955.50           1305         106.00       459.90
  705.76        2955.75           1309         100.00       433.75
  705.79        2956.00           1312          98.00       425.03
  705.82        2956.25           1315         104.00       451.18
  705.85        2956.50           1318         102.00       442.46
  705.88        2956.75           1322          99.00       429.39
  705.90        2957.00           1325         100.00       433.75
  705.93        2957.25           1328         110.00       477.34
  705.96        2957.50           1332         100.00       433.75
  705.99        2957.75           1335         101.00       438.10
  706.02        2958.00           1338          95.00       411.95
  706.04        2958.25           1342         100.00       433.75
  706.07        2958.50           1345         102.00       442.46
  706.10        2958.75           1348          96.00       416.31
  706.13        2959.00           1352          95.00       411.95
  706.16        2959.25           1355         101.00       438.10
  706.19        2959.50           1358          99.00       429.39
  706.22        2959.75           1362          97.00       420.67
  706.24        2960.00           1365         107.00       464.26
  706.27        2960.25           1368          95.00       411.95
  706.30        2960.50           1372         109.00       472.98
  706.33        2960.75           1375         126.00       547.09
  706.36        2961.00           1378         134.00       581.96
  706.39        2961.25           1382         190.00       826.09
  706.41        2961.50           1385         826.00      3598.88
  706.44        2961.75           1388        2413.00     10519.66
  706.47        2962.00           1391        5237.00     22841.55
  706.50        2962.25           1395        9763.00     42607.48
  706.53        2962.50           1398       13522.00     59040.42
  706.56        2962.75           1401       17289.00     75523.53
  706.59        2963.00           1405       22321.00     97565.65
  706.62        2963.25           1408       26326.00    115128.60
  706.64        2963.50           1411       30136.00    131852.50
  706.67        2963.75           1415       35533.00    155569.40
  706.70        2964.00           1418       38844.00    170135.10
  706.73        2964.25           1421       41970.00    183897.90
  706.76        2964.50           1425       46792.00    205148.40
  706.79        2964.75           1428       50310.00    220668.30
  706.82        2965.00           1431       53951.00    236745.10
  706.85        2965.25           1435       59269.00    260252.70
  706.87        2965.50           1438       62224.00    273328.40
  706.90        2965.75           1441       65457.00    287645.30
  706.93        2966.00           1445       70174.00    308554.50
  706.96        2966.25           1448       74021.00    325625.50
  706.99        2966.50           1451       76252.00    335533.00
  707.02        2966.75           1455       77500.00    341077.50
  707.05        2967.00           1458       77620.00    341610.80
  707.07        2967.25           1461       77639.00    341695.20
  707.10        2967.50           1465       77745.00    342166.20
  707.13        2967.75           1468       76659.00    337341.00
  707.16        2968.00           1471       74845.00    329284.00
  707.19        2968.25           1475       70661.00    310714.60
  707.22        2968.50           1478       67227.00    295488.30
  707.25        2968.75           1481       64161.00    281904.70
  707.27        2969.00           1485       59114.00    259567.10
  707.30        2969.25           1488       55563.00    243867.50
  707.33        2969.50           1491       52081.00    228486.30
  707.36        2969.75           1495       48112.00    210970.20
  707.39        2970.00           1498       44817.00    196441.60
  707.42        2970.25           1501       41241.00    180687.40
  707.44        2970.50           1505       35721.00    156396.10
  707.47        2970.75           1508       31812.00    139214.20
  707.50        2971.00           1511       28082.00    122834.60
  707.53        2971.25           1515       23617.00    103247.10
  707.56        2971.50           1518       19868.00     86817.16
  707.59        2971.75           1521       16475.00     71960.46
  707.62        2972.00           1525       11716.00     51143.37
  707.65        2972.25           1528        8145.00     35538.84
  707.67        2972.50           1531        5047.00     22012.26
  707.70        2972.75           1535        1843.00      8033.63
  707.73        2973.00           1538         689.00      3001.56
  707.76        2973.25           1541         253.00      1100.73
  707.79        2973.50           1544         157.00       682.23
  707.82        2973.75           1548         146.00       634.27
  707.84        2974.00           1551         134.00       581.96
  707.88        2974.25           1554         132.00       573.24
  707.90        2974.50           1558         114.00       494.78
  707.93        2974.75           1561          97.00       420.67
  707.96        2975.00           1564          96.00       416.31
  707.99        2975.25           1568         106.00       459.90
  708.02        2975.50           1571         103.00       446.82
  708.04        2975.75           1574          83.00       359.64
  708.07        2976.00           1578         108.00       468.62
  708.10        2976.25           1581         106.00       459.90
  708.13        2976.50           1584          98.00       425.03
  708.16        2976.75           1588          99.00       429.39
  708.19        2977.00           1591          95.00       411.95
  708.21        2977.25           1595         100.00       433.75
  708.24        2977.50           1598          93.00       403.23
  708.27        2977.75           1601          94.00       407.59
  708.30        2978.00           1605          90.00       390.15
  708.33        2978.25           1608          96.00       416.31
  708.36        2978.50           1611          93.00       403.23
  708.39        2978.75           1615          93.00       403.23
  708.41        2979.00           1618          97.00       420.67
  708.44        2979.25           1621         108.00       468.62
  708.47        2979.50           1625          99.00       429.39
  708.50        2979.75           1628          94.00       407.59
  708.53        2980.00           1631          96.00       416.31
  708.56        2980.25           1635          96.00       416.31
  708.58        2980.50           1638          92.00       398.87
  708.61        2980.75           1641          80.00       346.56
  708.64        2981.00           1645          84.00       364.00
  708.67        2981.25           1648          92.00       398.87
  708.70        2981.50           1651          93.00       403.23
  708.73        2981.75           1655          83.00       359.64
  708.76        2982.00           1658          88.00       381.43
  708.78        2982.25           1661          97.00       420.67
  708.81        2982.50           1665          87.00       377.07
  708.84        2982.75           1668          90.00       390.15
  708.87        2983.00           1671          81.00       350.92
  708.90        2983.25           1675          91.00       394.51
  708.93        2983.50           1678          89.00       385.79
  708.95        2983.75           1681          89.00       385.79
  708.98        2984.00           1685          92.00       398.87
HS scan finished at 11:49:17
end
