************************************************************
  HS Scan of (1) Internal mercury lamp
************************************************************
Integration time is 0.2294 seconds per sample
dh301018Senai 1.6385-103.6656 3.394313pr1000
************************************************************
Dead Time -------------------------  2.8E-08 
Number of Cycles Used -------------  4 
Starting Wavelength (Angstroms) ---  2950 
Final Wavelength (Angstoms) -------  2984 
Wavelength Increment (Angstroms) --  .25 
Filter Wheel #1 Position ---------- (1) Ground quartz diffuser (ND=2.32)
Filter Wheel #2 Position ---------- (1) Neutral Density 0.494



************************************************************
HS scan start time = 22:28:56
Dark Count =  .4 


Time (GMT)  Wavelength (Ang)  Step Number  Raw Counts  Counts/Second

 1349.39        2950.00           1232         105.00       455.98
 1349.49        2950.25           1236          99.00       429.82
 1349.52        2950.50           1239         106.00       460.34
 1349.54        2950.75           1242          97.00       421.10
 1349.57        2951.00           1246         109.00       473.42
 1349.60        2951.25           1249          97.00       421.10
 1349.63        2951.50           1252         110.00       477.77
 1349.66        2951.75           1256         108.00       469.06
 1349.69        2952.00           1259         113.00       490.85
 1349.71        2952.25           1262          98.00       425.46
 1349.74        2952.50           1265         109.00       473.42
 1349.77        2952.75           1269          99.00       429.82
 1349.80        2953.00           1272         106.00       460.34
 1349.83        2953.25           1275         105.00       455.98
 1349.86        2953.50           1279         112.00       486.49
 1349.88        2953.75           1282         103.00       447.26
 1349.91        2954.00           1285         111.00       482.13
 1349.94        2954.25           1289         102.00       442.90
 1349.97        2954.50           1292          99.00       429.82
 1350.00        2954.75           1295         113.00       490.85
 1350.03        2955.00           1299         105.00       455.98
 1350.05        2955.25           1302         117.00       508.29
 1350.08        2955.50           1305         107.00       464.70
 1350.11        2955.75           1309         100.00       434.18
 1350.14        2956.00           1312          97.00       421.10
 1350.17        2956.25           1315         107.00       464.70
 1350.20        2956.50           1318         112.00       486.49
 1350.23        2956.75           1322         118.00       512.65
 1350.25        2957.00           1325         101.00       438.54
 1350.28        2957.25           1328         109.00       473.42
 1350.31        2957.50           1332         115.00       499.57
 1350.34        2957.75           1335         112.00       486.49
 1350.37        2958.00           1338         105.00       455.98
 1350.40        2958.25           1342         107.00       464.70
 1350.42        2958.50           1345         102.00       442.90
 1350.45        2958.75           1348         100.00       434.18
 1350.48        2959.00           1352         102.00       442.90
 1350.51        2959.25           1355          97.00       421.10
 1350.54        2959.50           1358         113.00       490.85
 1350.57        2959.75           1362         109.00       473.42
 1350.59        2960.00           1365         104.00       451.62
 1350.62        2960.25           1368         116.00       503.93
 1350.65        2960.50           1372         124.00       538.81
 1350.68        2960.75           1375         126.00       547.52
 1350.71        2961.00           1378         128.00       556.24
 1350.74        2961.25           1382         189.00       822.16
 1350.76        2961.50           1385         787.00      3429.27
 1350.79        2961.75           1388        2134.00      9303.21
 1350.82        2962.00           1391        4453.00     19420.32
 1350.85        2962.25           1395        8962.00     39108.19
 1350.88        2962.50           1398       12349.00     53911.31
 1350.91        2962.75           1401       16147.00     70525.35
 1350.94        2963.00           1405       21207.00     92683.99
 1350.96        2963.25           1408       25010.00    109356.10
 1350.99        2963.50           1411       29008.00    126900.00
 1351.02        2963.75           1415       34148.00    149480.50
 1351.05        2964.00           1418       37877.00    165880.30
 1351.08        2964.25           1421       41589.00    182220.30
 1351.11        2964.50           1425       46023.00    201758.20
 1351.14        2964.75           1428       49151.00    215554.30
 1351.16        2965.00           1431       52667.00    231074.40
 1351.19        2965.25           1435       57380.00    251899.50
 1351.22        2965.50           1438       60954.00    267708.00
 1351.25        2965.75           1441       64686.00    284230.40
 1351.28        2966.00           1445       68700.00    302018.40
 1351.31        2966.25           1448       72293.00    317955.90
 1351.33        2966.50           1451       74812.00    329138.00
 1351.36        2966.75           1455       76366.00    336039.80
 1351.39        2967.00           1458       76462.00    336466.20
 1351.42        2967.25           1461       76541.00    336817.20
 1351.45        2967.50           1465       76726.00    337639.10
 1351.48        2967.75           1468       76294.00    335720.00
 1351.50        2968.00           1471       74485.00    327686.00
 1351.53        2968.25           1475       71454.00    314233.10
 1351.56        2968.50           1478       68007.00    298946.10
 1351.59        2968.75           1481       63889.00    280700.60
 1351.62        2969.00           1485       59179.00    259855.10
 1351.65        2969.25           1488       55641.00    244212.60
 1351.68        2969.50           1491       52197.00    228999.00
 1351.70        2969.75           1495       47204.00    206965.70
 1351.73        2970.00           1498       44093.00    193251.20
 1351.76        2970.25           1501       40799.00    178741.50
 1351.79        2970.50           1505       36298.00    158934.20
 1351.82        2970.75           1508       32620.00    142764.90
 1351.85        2971.00           1511       29074.00    127189.70
 1351.88        2971.25           1515       23751.00    103835.00
 1351.90        2971.50           1518       20014.00     87457.14
 1351.93        2971.75           1521       16656.00     72753.11
 1351.96        2972.00           1525       12133.00     52966.90
 1351.99        2972.25           1528        8897.00     38824.22
 1352.02        2972.50           1531        5336.00     23274.10
 1352.05        2972.75           1535        1725.00      7519.46
 1352.07        2973.00           1538         582.00      2535.49
 1352.10        2973.25           1541         254.00      1105.53
 1352.13        2973.50           1544         168.00       730.62
 1352.16        2973.75           1548         159.00       691.38
 1352.19        2974.00           1551         145.00       630.35
 1352.22        2974.25           1554         125.00       543.16
 1352.25        2974.50           1558         124.00       538.81
 1352.27        2974.75           1561         107.00       464.70
 1352.30        2975.00           1564         105.00       455.98
 1352.33        2975.25           1568         104.00       451.62
 1352.36        2975.50           1571         106.00       460.34
 1352.39        2975.75           1574          95.00       412.38
 1352.42        2976.00           1578         102.00       442.90
 1352.45        2976.25           1581         100.00       434.18
 1352.47        2976.50           1584         106.00       460.34
 1352.50        2976.75           1588         102.00       442.90
 1352.53        2977.00           1591          94.00       408.03
 1352.56        2977.25           1595          99.00       429.82
 1352.59        2977.50           1598         105.00       455.98
 1352.62        2977.75           1601          95.00       412.38
 1352.64        2978.00           1605         100.00       434.18
 1352.67        2978.25           1608         103.00       447.26
 1352.70        2978.50           1611         103.00       447.26
 1352.73        2978.75           1615          94.00       408.03
 1352.76        2979.00           1618          99.00       429.82
 1352.79        2979.25           1621          91.00       394.95
 1352.81        2979.50           1625          96.00       416.74
 1352.84        2979.75           1628         100.00       434.18
 1352.87        2980.00           1631          89.00       386.23
 1352.90        2980.25           1635          92.00       399.31
 1352.93        2980.50           1638         100.00       434.18
 1352.96        2980.75           1641          91.00       394.95
 1352.98        2981.00           1645          95.00       412.38
 1353.01        2981.25           1648          88.00       381.87
 1353.04        2981.50           1651          95.00       412.38
 1353.07        2981.75           1655          86.00       373.15
 1353.10        2982.00           1658          99.00       429.82
 1353.13        2982.25           1661          90.00       390.59
 1353.15        2982.50           1665          96.00       416.74
 1353.18        2982.75           1668          94.00       408.03
 1353.21        2983.00           1671          94.00       408.03
 1353.24        2983.25           1675          88.00       381.87
 1353.27        2983.50           1678          97.00       421.10
 1353.30        2983.75           1681          91.00       394.95
 1353.32        2984.00           1685          92.00       399.31
HS scan finished at 22:33:37
end
************************************************************
  HS Scan of (1) Internal mercury lamp
************************************************************
Integration time is 0.2294 seconds per sample
dh311018Senai 1.6385-103.6656 3.555258pr1000
************************************************************
Dead Time -------------------------  2.8E-08 
Number of Cycles Used -------------  4 
Starting Wavelength (Angstroms) ---  2950 
Final Wavelength (Angstoms) -------  2984 
Wavelength Increment (Angstroms) --  .25 
Filter Wheel #1 Position ---------- (1) Ground quartz diffuser (ND=2.32)
Filter Wheel #2 Position ---------- (1) Neutral Density 0.494



************************************************************
HS scan start time = 11:36:14
Dark Count =  .3 


Time (GMT)  Wavelength (Ang)  Step Number  Raw Counts  Counts/Second

  696.69        2950.00           1232         110.00       478.21
  696.79        2950.25           1236         103.00       447.70
  696.82        2950.50           1239         108.00       469.49
  696.84        2950.75           1242         107.00       465.13
  696.87        2951.00           1246          99.00       430.26
  696.90        2951.25           1249         100.00       434.62
  696.93        2951.50           1252         106.00       460.77
  696.96        2951.75           1256         111.00       482.57
  696.99        2952.00           1259         108.00       469.49
  697.01        2952.25           1262         107.00       465.13
  697.04        2952.50           1265         107.00       465.13
  697.07        2952.75           1269         107.00       465.13
  697.10        2953.00           1272          99.00       430.26
  697.13        2953.25           1275          95.00       412.82
  697.16        2953.50           1279         105.00       456.41
  697.18        2953.75           1282         106.00       460.77
  697.21        2954.00           1285         105.00       456.41
  697.24        2954.25           1289         100.00       434.62
  697.27        2954.50           1292         100.00       434.62
  697.30        2954.75           1295         105.00       456.41
  697.33        2955.00           1299         111.00       482.57
  697.35        2955.25           1302         100.00       434.62
  697.38        2955.50           1305          96.00       417.18
  697.41        2955.75           1309          96.00       417.18
  697.44        2956.00           1312         109.00       473.85
  697.47        2956.25           1315         107.00       465.13
  697.49        2956.50           1318         105.00       456.41
  697.52        2956.75           1322         104.00       452.05
  697.55        2957.00           1325         110.00       478.21
  697.58        2957.25           1328         100.00       434.62
  697.61        2957.50           1332          96.00       417.18
  697.63        2957.75           1335         107.00       465.13
  697.66        2958.00           1338         100.00       434.62
  697.69        2958.25           1342         106.00       460.77
  697.72        2958.50           1345         103.00       447.70
  697.75        2958.75           1348         105.00       456.41
  697.78        2959.00           1352          99.00       430.26
  697.81        2959.25           1355         106.00       460.77
  697.83        2959.50           1358          96.00       417.18
  697.86        2959.75           1362          98.00       425.90
  697.89        2960.00           1365         100.00       434.62
  697.92        2960.25           1368         117.00       508.73
  697.95        2960.50           1372         122.00       530.52
  697.98        2960.75           1375         120.00       521.80
  698.00        2961.00           1378         146.00       635.15
  698.03        2961.25           1382         190.00       826.96
  698.06        2961.50           1385         883.00      3848.28
  698.09        2961.75           1388        2453.00     10695.01
  698.12        2962.00           1391        5425.00     23663.02
  698.15        2962.25           1395       10229.00     44644.71
  698.17        2962.50           1398       13630.00     59513.65
  698.20        2962.75           1401       17562.00     76719.55
  698.23        2963.00           1405       22370.00     97781.29
  698.26        2963.25           1408       26719.00    116853.80
  698.29        2963.50           1411       30318.00    132652.70
  698.32        2963.75           1415       34701.00    151912.00
  698.34        2964.00           1418       38012.00    166474.70
  698.37        2964.25           1421       41869.00    183453.90
  698.40        2964.50           1425       46449.00    203636.90
  698.43        2964.75           1428       50233.00    220329.40
  698.46        2965.00           1431       53808.00    236114.30
  698.49        2965.25           1435       58493.00    256821.50
  698.51        2965.50           1438       62057.00    272590.10
  698.54        2965.75           1441       65778.00    289068.30
  698.57        2966.00           1445       70351.00    309340.50
  698.60        2966.25           1448       73852.00    324876.00
  698.63        2966.50           1451       75461.00    332020.50
  698.66        2966.75           1455       77059.00    339119.00
  698.68        2967.00           1458       77337.00    340354.20
  698.71        2967.25           1461       77242.00    339932.00
  698.74        2967.50           1465       76996.00    338839.10
  698.77        2967.75           1468       75765.00    333370.70
  698.80        2968.00           1471       73765.00    324489.80
  698.82        2968.25           1475       70480.00    309912.60
  698.85        2968.50           1478       66746.00    293357.50
  698.88        2968.75           1481       62813.00    275936.70
  698.91        2969.00           1485       58309.00    256007.70
  698.94        2969.25           1488       55143.00    242012.40
  698.97        2969.50           1491       51964.00    227970.60
  699.00        2969.75           1495       47575.00    208602.40
  699.02        2970.00           1498       44164.00    193564.60
  699.05        2970.25           1501       40102.00    175673.20
  699.08        2970.50           1505       34771.00    152219.80
  699.11        2970.75           1508       31519.00    137927.90
  699.14        2971.00           1511       28117.00    122989.10
  699.17        2971.25           1515       23459.00    102555.20
  699.19        2971.50           1518       19561.00     85473.28
  699.22        2971.75           1521       15756.00     68814.69
  699.25        2972.00           1525       11731.00     51209.82
  699.28        2972.25           1528        8709.00     38003.37
  699.31        2972.50           1531        5412.00     23606.27
  699.34        2972.75           1535        1881.00      8200.23
  699.36        2973.00           1538         494.00      2152.27
  699.39        2973.25           1541         209.00       909.79
  699.42        2973.50           1544         159.00       691.82
  699.45        2973.75           1548         145.00       630.79
  699.48        2974.00           1551         126.00       547.96
  699.51        2974.25           1554         112.00       486.93
  699.53        2974.50           1558         109.00       473.85
  699.56        2974.75           1561         101.00       438.98
  699.59        2975.00           1564          97.00       421.54
  699.62        2975.25           1568          97.00       421.54
  699.65        2975.50           1571         102.00       443.34
  699.67        2975.75           1574          91.00       395.38
  699.70        2976.00           1578          95.00       412.82
  699.73        2976.25           1581          95.00       412.82
  699.76        2976.50           1584          92.00       399.74
  699.79        2976.75           1588          96.00       417.18
  699.82        2977.00           1591         100.00       434.62
  699.85        2977.25           1595         102.00       443.34
  699.87        2977.50           1598          88.00       382.31
  699.90        2977.75           1601          90.00       391.02
  699.93        2978.00           1605         101.00       438.98
  699.96        2978.25           1608         104.00       452.05
  699.99        2978.50           1611         105.00       456.41
  700.01        2978.75           1615          95.00       412.82
  700.04        2979.00           1618          93.00       404.10
  700.07        2979.25           1621          92.00       399.74
  700.10        2979.50           1625          94.00       408.46
  700.13        2979.75           1628          93.00       404.10
  700.16        2980.00           1631          92.00       399.74
  700.18        2980.25           1635         101.00       438.98
  700.21        2980.50           1638          98.00       425.90
  700.24        2980.75           1641          93.00       404.10
  700.27        2981.00           1645          91.00       395.38
  700.30        2981.25           1648          97.00       421.54
  700.32        2981.50           1651          91.00       395.38
  700.35        2981.75           1655          81.00       351.79
  700.38        2982.00           1658          85.00       369.23
  700.41        2982.25           1661          86.00       373.59
  700.44        2982.50           1665          93.00       404.10
  700.47        2982.75           1668          89.00       386.67
  700.49        2983.00           1671          89.00       386.67
  700.52        2983.25           1675          94.00       408.46
  700.55        2983.50           1678          86.00       373.59
  700.58        2983.75           1681          92.00       399.74
  700.61        2984.00           1685          88.00       382.31
HS scan finished at 11:40:54
end
