************************************************************
  HS Scan of (1) Internal mercury lamp
************************************************************
Integration time is 0.2294 seconds per sample
dh031118Kota Bharu 6.16371-102.3 3.340665pr1000
************************************************************
Dead Time -------------------------  2.8E-08 
Number of Cycles Used -------------  4 
Starting Wavelength (Angstroms) ---  2950 
Final Wavelength (Angstoms) -------  2984 
Wavelength Increment (Angstroms) --  .25 
Filter Wheel #1 Position ---------- (1) Ground quartz diffuser (ND=2.32)
Filter Wheel #2 Position ---------- (1) Neutral Density 0.494



************************************************************
HS scan start time = 22:38:59
Dark Count =  .3 


Time (GMT)  Wavelength (Ang)  Step Number  Raw Counts  Counts/Second

 1359.43        2950.00           1232         106.00       460.77
 1359.53        2950.25           1236         110.00       478.21
 1359.56        2950.50           1239         108.00       469.49
 1359.59        2950.75           1242         108.00       469.49
 1359.61        2951.00           1246         109.00       473.85
 1359.64        2951.25           1249         109.00       473.85
 1359.67        2951.50           1252         111.00       482.57
 1359.70        2951.75           1256         116.00       504.37
 1359.73        2952.00           1259         114.00       495.65
 1359.76        2952.25           1262         110.00       478.21
 1359.79        2952.50           1265         114.00       495.65
 1359.81        2952.75           1269         110.00       478.21
 1359.84        2953.00           1272         110.00       478.21
 1359.87        2953.25           1275         108.00       469.49
 1359.90        2953.50           1279         106.00       460.77
 1359.93        2953.75           1282         109.00       473.85
 1359.96        2954.00           1285         117.00       508.73
 1359.99        2954.25           1289         111.00       482.57
 1360.02        2954.50           1292         118.00       513.08
 1360.04        2954.75           1295         108.00       469.49
 1360.07        2955.00           1299         111.00       482.57
 1360.10        2955.25           1302         101.00       438.98
 1360.13        2955.50           1305         104.00       452.05
 1360.16        2955.75           1309         107.00       465.13
 1360.19        2956.00           1312         112.00       486.93
 1360.22        2956.25           1315         120.00       521.80
 1360.25        2956.50           1318         112.00       486.93
 1360.27        2956.75           1322         115.00       500.01
 1360.30        2957.00           1325         111.00       482.57
 1360.33        2957.25           1328         104.00       452.05
 1360.36        2957.50           1332         102.00       443.34
 1360.39        2957.75           1335         117.00       508.73
 1360.42        2958.00           1338         111.00       482.57
 1360.45        2958.25           1342         111.00       482.57
 1360.47        2958.50           1345         102.00       443.34
 1360.50        2958.75           1348         108.00       469.49
 1360.53        2959.00           1352         107.00       465.13
 1360.56        2959.25           1355         107.00       465.13
 1360.59        2959.50           1358         109.00       473.85
 1360.62        2959.75           1362         102.00       443.34
 1360.65        2960.00           1365         103.00       447.70
 1360.68        2960.25           1368         112.00       486.93
 1360.70        2960.50           1372         120.00       521.80
 1360.73        2960.75           1375         126.00       547.96
 1360.76        2961.00           1378         142.00       617.71
 1360.79        2961.25           1382         213.00       927.23
 1360.82        2961.50           1385         905.00      3944.20
 1360.85        2961.75           1388        2761.00     12038.49
 1360.88        2962.00           1391        5713.00     24920.17
 1360.91        2962.25           1395        9869.00     43071.53
 1360.94        2962.50           1398       12971.00     56631.58
 1360.96        2962.75           1401       16193.00     70727.12
 1360.99        2963.00           1405       21681.00     94761.56
 1361.02        2963.25           1408       25987.00    113642.20
 1361.05        2963.50           1411       29794.00    130351.50
 1361.08        2963.75           1415       34516.00    151098.70
 1361.11        2964.00           1418       37684.00    165031.50
 1361.14        2964.25           1421       41346.00    181150.60
 1361.17        2964.50           1425       46579.00    204210.10
 1361.19        2964.75           1428       50170.00    220051.30
 1361.22        2965.00           1431       54135.00    237558.80
 1361.25        2965.25           1435       59194.00    259921.90
 1361.28        2965.50           1438       63111.00    277256.10
 1361.31        2965.75           1441       66501.00    292271.80
 1361.34        2966.00           1445       70964.00    312059.60
 1361.37        2966.25           1448       74589.00    328148.20
 1361.40        2966.50           1451       76082.00    334778.70
 1361.43        2966.75           1455       76891.00    338372.60
 1361.45        2967.00           1458       77323.00    340292.00
 1361.48        2967.25           1461       76942.00    338599.20
 1361.51        2967.50           1465       76862.00    338243.70
 1361.54        2967.75           1468       75727.00    333201.90
 1361.57        2968.00           1471       73916.00    325160.20
 1361.60        2968.25           1475       69875.00    307229.30
 1361.63        2968.50           1478       66549.00    292484.50
 1361.66        2968.75           1481       63084.00    277136.50
 1361.68        2969.00           1485       58293.00    255937.00
 1361.71        2969.25           1488       55119.00    241906.30
 1361.74        2969.50           1491       52074.00    228456.30
 1361.77        2969.75           1495       47609.00    208752.40
 1361.80        2970.00           1498       44284.00    194093.40
 1361.83        2970.25           1501       40395.00    176963.20
 1361.86        2970.50           1505       35085.00    153600.30
 1361.89        2970.75           1508       31253.00    136759.40
 1361.91        2971.00           1511       27325.00    119513.00
 1361.94        2971.25           1515       23141.00    101161.00
 1361.97        2971.50           1518       19627.00     85762.37
 1362.00        2971.75           1521       15900.00     69444.85
 1362.03        2972.00           1525       11178.00     48792.42
 1362.06        2972.25           1528        8536.00     37247.63
 1362.09        2972.50           1531        5328.00     23239.62
 1362.12        2972.75           1535        1669.00      7275.68
 1362.14        2973.00           1538         523.00      2278.70
 1362.17        2973.25           1541         212.00       922.87
 1362.20        2973.50           1544         171.00       744.13
 1362.23        2973.75           1548         157.00       683.10
 1362.26        2974.00           1551         141.00       613.35
 1362.29        2974.25           1554         130.00       565.40
 1362.32        2974.50           1558         119.00       517.44
 1362.34        2974.75           1561         106.00       460.77
 1362.37        2975.00           1564         109.00       473.85
 1362.40        2975.25           1568         106.00       460.77
 1362.43        2975.50           1571          98.00       425.90
 1362.46        2975.75           1574         100.00       434.62
 1362.49        2976.00           1578         110.00       478.21
 1362.52        2976.25           1581          97.00       421.54
 1362.55        2976.50           1584         100.00       434.62
 1362.58        2976.75           1588         103.00       447.70
 1362.61        2977.00           1591         100.00       434.62
 1362.63        2977.25           1595          97.00       421.54
 1362.66        2977.50           1598         100.00       434.62
 1362.69        2977.75           1601          94.00       408.46
 1362.72        2978.00           1605         100.00       434.62
 1362.75        2978.25           1608          93.00       404.10
 1362.78        2978.50           1611          97.00       421.54
 1362.81        2978.75           1615          95.00       412.82
 1362.83        2979.00           1618          97.00       421.54
 1362.86        2979.25           1621          92.00       399.74
 1362.89        2979.50           1625          91.00       395.38
 1362.92        2979.75           1628         105.00       456.41
 1362.95        2980.00           1631          91.00       395.38
 1362.98        2980.25           1635          94.00       408.46
 1363.01        2980.50           1638          99.00       430.26
 1363.03        2980.75           1641          95.00       412.82
 1363.06        2981.00           1645          88.00       382.31
 1363.09        2981.25           1648          92.00       399.74
 1363.12        2981.50           1651          90.00       391.02
 1363.15        2981.75           1655          94.00       408.46
 1363.18        2982.00           1658         107.00       465.13
 1363.20        2982.25           1661          98.00       425.90
 1363.23        2982.50           1665          94.00       408.46
 1363.26        2982.75           1668          93.00       404.10
 1363.29        2983.00           1671          89.00       386.67
 1363.32        2983.25           1675          95.00       412.82
 1363.35        2983.50           1678          92.00       399.74
 1363.38        2983.75           1681         102.00       443.34
 1363.41        2984.00           1685          90.00       391.02
HS scan finished at 22:43:42
end
************************************************************
  HS Scan of (1) Internal mercury lamp
************************************************************
Integration time is 0.2294 seconds per sample
dh041118Kota Bharu 6.16371-102.3 3.555258pr1000
************************************************************
Dead Time -------------------------  2.8E-08 
Number of Cycles Used -------------  4 
Starting Wavelength (Angstroms) ---  2950 
Final Wavelength (Angstoms) -------  2984 
Wavelength Increment (Angstroms) --  .25 
Filter Wheel #1 Position ---------- (1) Ground quartz diffuser (ND=2.32)
Filter Wheel #2 Position ---------- (1) Neutral Density 0.494



************************************************************
HS scan start time = 11:33:32
Dark Count =  .2 


Time (GMT)  Wavelength (Ang)  Step Number  Raw Counts  Counts/Second

  693.98        2950.00           1232          90.00       391.46
  694.08        2950.25           1236         102.00       443.77
  694.11        2950.50           1239          87.00       378.38
  694.14        2950.75           1242          94.00       408.90
  694.17        2951.00           1246          86.00       374.02
  694.19        2951.25           1249          89.00       387.10
  694.22        2951.50           1252          93.00       404.54
  694.25        2951.75           1256          92.00       400.18
  694.28        2952.00           1259          93.00       404.54
  694.31        2952.25           1262          98.00       426.33
  694.33        2952.50           1265          89.00       387.10
  694.36        2952.75           1269          93.00       404.54
  694.39        2953.00           1272          87.00       378.38
  694.42        2953.25           1275          90.00       391.46
  694.45        2953.50           1279          90.00       391.46
  694.47        2953.75           1282          95.00       413.26
  694.50        2954.00           1285         103.00       448.13
  694.53        2954.25           1289          95.00       413.26
  694.56        2954.50           1292          87.00       378.38
  694.59        2954.75           1295          88.00       382.74
  694.62        2955.00           1299          92.00       400.18
  694.64        2955.25           1302          92.00       400.18
  694.67        2955.50           1305          88.00       382.74
  694.70        2955.75           1309          90.00       391.46
  694.73        2956.00           1312          91.00       395.82
  694.76        2956.25           1315          97.00       421.98
  694.78        2956.50           1318          80.00       347.87
  694.81        2956.75           1322          80.00       347.87
  694.84        2957.00           1325          95.00       413.26
  694.87        2957.25           1328          88.00       382.74
  694.90        2957.50           1332          98.00       426.33
  694.92        2957.75           1335          94.00       408.90
  694.95        2958.00           1338          96.00       417.62
  694.98        2958.25           1342          94.00       408.90
  695.01        2958.50           1345          96.00       417.62
  695.04        2958.75           1348          96.00       417.62
  695.07        2959.00           1352          90.00       391.46
  695.09        2959.25           1355          94.00       408.90
  695.12        2959.50           1358          94.00       408.90
  695.15        2959.75           1362          98.00       426.33
  695.18        2960.00           1365          97.00       421.98
  695.21        2960.25           1368          95.00       413.26
  695.24        2960.50           1372         110.00       478.65
  695.26        2960.75           1375         124.00       539.68
  695.29        2961.00           1378         140.00       609.43
  695.32        2961.25           1382         177.00       770.72
  695.35        2961.50           1385         816.00      3556.59
  695.38        2961.75           1388        2480.00     10813.21
  695.40        2962.00           1391        5534.00     24139.24
  695.43        2962.25           1395       10065.00     43928.46
  695.46        2962.50           1398       12805.00     55906.11
  695.49        2962.75           1401       16085.00     70254.90
  695.52        2963.00           1405       20792.00     90866.47
  695.55        2963.25           1408       24815.00    108501.80
  695.57        2963.50           1411       29009.00    126905.30
  695.60        2963.75           1415       33710.00    147556.10
  695.63        2964.00           1418       36937.00    161745.70
  695.66        2964.25           1421       40520.00    177513.90
  695.69        2964.50           1425       45378.00    198915.60
  695.72        2964.75           1428       49443.00    216843.60
  695.75        2965.00           1431       52799.00    231658.20
  695.77        2965.25           1435       56999.00    250216.00
  695.80        2965.50           1438       60658.00    266399.10
  695.83        2965.75           1441       64259.00    282340.10
  695.86        2966.00           1445       68972.00    303225.30
  695.89        2966.25           1448       71846.00    315973.20
  695.92        2966.50           1451       74704.00    328659.30
  695.94        2966.75           1455       76014.00    334477.10
  695.97        2967.00           1458       76159.00    335121.20
  696.00        2967.25           1461       75969.00    334277.20
  696.03        2967.50           1465       75841.00    333708.70
  696.06        2967.75           1468       74717.00    328717.00
  696.09        2968.00           1471       72759.00    320024.90
  696.12        2968.25           1475       69924.00    307447.00
  696.14        2968.50           1478       66718.00    293233.90
  696.17        2968.75           1481       63097.00    277194.50
  696.20        2969.00           1485       57648.00    253085.30
  696.23        2969.25           1488       54024.00    237068.90
  696.26        2969.50           1491       50707.00    222421.90
  696.28        2969.75           1495       46483.00    203787.30
  696.32        2970.00           1498       43154.00    189114.70
  696.35        2970.25           1501       39549.00    173239.30
  696.38        2970.50           1505       34212.00    149762.70
  696.41        2970.75           1508       31300.00    136966.30
  696.43        2971.00           1511       28159.00    123173.90
  696.46        2971.25           1515       23738.00    103778.90
  696.49        2971.50           1518       20553.00     89819.33
  696.52        2971.75           1521       16464.00     71913.63
  696.55        2972.00           1525       12091.00     52784.15
  696.58        2972.25           1528        8590.00     37483.96
  696.61        2972.50           1531        4885.00     21306.52
  696.64        2972.75           1535        1650.00      7193.25
  696.66        2973.00           1538         493.00      2148.34
  696.69        2973.25           1541         199.00       866.63
  696.72        2973.50           1544         149.00       648.66
  696.75        2973.75           1548         146.00       635.58
  696.78        2974.00           1551         127.00       552.75
  696.81        2974.25           1554         121.00       526.60
  696.83        2974.50           1558          97.00       421.98
  696.86        2974.75           1561         100.00       435.05
  696.89        2975.00           1564          94.00       408.90
  696.92        2975.25           1568          92.00       400.18
  696.95        2975.50           1571          96.00       417.62
  696.97        2975.75           1574          85.00       369.66
  697.00        2976.00           1578          83.00       360.95
  697.03        2976.25           1581          91.00       395.82
  697.06        2976.50           1584          80.00       347.87
  697.09        2976.75           1588          83.00       360.95
  697.12        2977.00           1591          92.00       400.18
  697.14        2977.25           1595         102.00       443.77
  697.17        2977.50           1598          94.00       408.90
  697.20        2977.75           1601          86.00       374.02
  697.23        2978.00           1605          81.00       352.23
  697.26        2978.25           1608          82.00       356.59
  697.28        2978.50           1611          89.00       387.10
  697.31        2978.75           1615          84.00       365.30
  697.34        2979.00           1618          86.00       374.02
  697.37        2979.25           1621          84.00       365.30
  697.40        2979.50           1625          94.00       408.90
  697.42        2979.75           1628          90.00       391.46
  697.45        2980.00           1631          86.00       374.02
  697.48        2980.25           1635          81.00       352.23
  697.51        2980.50           1638          81.00       352.23
  697.54        2980.75           1641          84.00       365.30
  697.57        2981.00           1645          87.00       378.38
  697.59        2981.25           1648          77.00       334.79
  697.62        2981.50           1651          83.00       360.95
  697.65        2981.75           1655          81.00       352.23
  697.68        2982.00           1658          81.00       352.23
  697.71        2982.25           1661          89.00       387.10
  697.74        2982.50           1665          79.00       343.51
  697.76        2982.75           1668          88.00       382.74
  697.79        2983.00           1671          83.00       360.95
  697.82        2983.25           1675          90.00       391.46
  697.85        2983.50           1678          77.00       334.79
  697.88        2983.75           1681          80.00       347.87
  697.90        2984.00           1685          79.00       343.51
HS scan finished at 11:38:12
end
