************************************************************
  HS Scan of (1) Internal mercury lamp
************************************************************
Integration time is 0.2294 seconds per sample
dh041118Kota Bharu 6.16371-102.3 3.287017pr1000
************************************************************
Dead Time -------------------------  2.8E-08 
Number of Cycles Used -------------  4 
Starting Wavelength (Angstroms) ---  2950 
Final Wavelength (Angstoms) -------  2984 
Wavelength Increment (Angstroms) --  .25 
Filter Wheel #1 Position ---------- (1) Ground quartz diffuser (ND=2.32)
Filter Wheel #2 Position ---------- (1) Neutral Density 0.494



************************************************************
HS scan start time = 22:38:48
Dark Count =  .2 


Time (GMT)  Wavelength (Ang)  Step Number  Raw Counts  Counts/Second

 1359.26        2950.00           1232         120.00       522.24
 1359.36        2950.25           1236         115.00       500.44
 1359.39        2950.50           1239         114.00       496.08
 1359.41        2950.75           1242         110.00       478.65
 1359.44        2951.00           1246         111.00       483.01
 1359.47        2951.25           1249         116.00       504.80
 1359.50        2951.50           1252         115.00       500.44
 1359.53        2951.75           1256         109.00       474.29
 1359.55        2952.00           1259         114.00       496.08
 1359.58        2952.25           1262         110.00       478.65
 1359.61        2952.50           1265         107.00       465.57
 1359.64        2952.75           1269         117.00       509.16
 1359.67        2953.00           1272         120.00       522.24
 1359.70        2953.25           1275         110.00       478.65
 1359.72        2953.50           1279         122.00       530.96
 1359.75        2953.75           1282         103.00       448.13
 1359.78        2954.00           1285         114.00       496.08
 1359.81        2954.25           1289         114.00       496.08
 1359.84        2954.50           1292         117.00       509.16
 1359.86        2954.75           1295         107.00       465.57
 1359.89        2955.00           1299         109.00       474.29
 1359.92        2955.25           1302         115.00       500.44
 1359.95        2955.50           1305         114.00       496.08
 1359.98        2955.75           1309         110.00       478.65
 1360.01        2956.00           1312         106.00       461.21
 1360.03        2956.25           1315         110.00       478.65
 1360.06        2956.50           1318         108.00       469.93
 1360.09        2956.75           1322         116.00       504.80
 1360.12        2957.00           1325         113.00       491.72
 1360.15        2957.25           1328         112.00       487.36
 1360.17        2957.50           1332         111.00       483.01
 1360.20        2957.75           1335         110.00       478.65
 1360.23        2958.00           1338         117.00       509.16
 1360.26        2958.25           1342         109.00       474.29
 1360.29        2958.50           1345         117.00       509.16
 1360.31        2958.75           1348         108.00       469.93
 1360.34        2959.00           1352          98.00       426.33
 1360.37        2959.25           1355         117.00       509.16
 1360.40        2959.50           1358         115.00       500.44
 1360.43        2959.75           1362         107.00       465.57
 1360.46        2960.00           1365         107.00       465.57
 1360.48        2960.25           1368         117.00       509.16
 1360.51        2960.50           1372         134.00       583.27
 1360.54        2960.75           1375         125.00       544.04
 1360.57        2961.00           1378         149.00       648.66
 1360.60        2961.25           1382         233.00      1014.85
 1360.62        2961.50           1385        1043.00      4546.35
 1360.65        2961.75           1388        2848.00     12418.44
 1360.68        2962.00           1391        5466.00     23842.42
 1360.71        2962.25           1395        9311.00     40633.83
 1360.74        2962.50           1398       12707.00     55477.57
 1360.77        2962.75           1401       16552.00     72298.79
 1360.80        2963.00           1405       21688.00     94792.69
 1360.82        2963.25           1408       25674.00    112269.60
 1360.85        2963.50           1411       29816.00    130448.60
 1360.88        2963.75           1415       34751.00    152132.30
 1360.91        2964.00           1418       38602.00    169071.40
 1360.94        2964.25           1421       42155.00    184714.00
 1360.97        2964.50           1425       47256.00    207196.00
 1360.99        2964.75           1428       50795.00    222810.30
 1361.02        2965.00           1431       53960.00    236786.20
 1361.05        2965.25           1435       57860.00    254022.70
 1361.08        2965.50           1438       61694.00    270983.80
 1361.11        2965.75           1441       65061.00    285892.30
 1361.14        2966.00           1445       70022.00    307881.60
 1361.16        2966.25           1448       73382.00    322790.10
 1361.19        2966.50           1451       75424.00    331856.60
 1361.22        2966.75           1455       76517.00    336711.50
 1361.25        2967.00           1458       76740.00    337702.10
 1361.28        2967.25           1461       76815.00    338035.30
 1361.31        2967.50           1465       76699.00    337520.00
 1361.33        2967.75           1468       75993.00    334383.80
 1361.36        2968.00           1471       74553.00    327988.80
 1361.39        2968.25           1475       70749.00    311106.30
 1361.42        2968.50           1478       68011.00    298964.70
 1361.45        2968.75           1481       64068.00    281494.20
 1361.48        2969.00           1485       58777.00    258077.90
 1361.50        2969.25           1488       55056.00    241628.40
 1361.53        2969.50           1491       51809.00    227286.70
 1361.56        2969.75           1495       47466.00    208122.10
 1361.59        2970.00           1498       43575.00    190969.60
 1361.62        2970.25           1501       39727.00    174022.90
 1361.65        2970.50           1505       35320.00    154634.10
 1361.67        2970.75           1508       32041.00    140221.70
 1361.70        2971.00           1511       28223.00    123454.80
 1361.73        2971.25           1515       23360.00    102121.60
 1361.76        2971.50           1518       19415.00     84834.24
 1361.79        2971.75           1521       15493.00     67664.25
 1361.82        2972.00           1525       11119.00     48534.97
 1361.85        2972.25           1528        7958.00     34723.37
 1361.87        2972.50           1531        4678.00     20403.11
 1361.90        2972.75           1535        1377.00      6002.75
 1361.93        2973.00           1538         432.00      1882.40
 1361.96        2973.25           1541         200.00       870.99
 1361.99        2973.50           1544         173.00       753.29
 1362.01        2973.75           1548         154.00       670.46
 1362.04        2974.00           1551         147.00       639.94
 1362.07        2974.25           1554         136.00       591.99
 1362.10        2974.50           1558         123.00       535.32
 1362.13        2974.75           1561         109.00       474.29
 1362.16        2975.00           1564         108.00       469.93
 1362.18        2975.25           1568         108.00       469.93
 1362.21        2975.50           1571         111.00       483.01
 1362.24        2975.75           1574         107.00       465.57
 1362.27        2976.00           1578         108.00       469.93
 1362.30        2976.25           1581         107.00       465.57
 1362.33        2976.50           1584         104.00       452.49
 1362.35        2976.75           1588         106.00       461.21
 1362.38        2977.00           1591         109.00       474.29
 1362.41        2977.25           1595         101.00       439.41
 1362.44        2977.50           1598         107.00       465.57
 1362.46        2977.75           1601         108.00       469.93
 1362.49        2978.00           1605         109.00       474.29
 1362.52        2978.25           1608          99.00       430.69
 1362.55        2978.50           1611         101.00       439.41
 1362.58        2978.75           1615         108.00       469.93
 1362.61        2979.00           1618         106.00       461.21
 1362.63        2979.25           1621         101.00       439.41
 1362.66        2979.50           1625         100.00       435.05
 1362.69        2979.75           1628          91.00       395.82
 1362.72        2980.00           1631          98.00       426.33
 1362.75        2980.25           1635          98.00       426.33
 1362.78        2980.50           1638          95.00       413.26
 1362.80        2980.75           1641         103.00       448.13
 1362.83        2981.00           1645          96.00       417.62
 1362.86        2981.25           1648          92.00       400.18
 1362.89        2981.50           1651          99.00       430.69
 1362.92        2981.75           1655         101.00       439.41
 1362.94        2982.00           1658          94.00       408.90
 1362.97        2982.25           1661          97.00       421.98
 1363.00        2982.50           1665          98.00       426.33
 1363.03        2982.75           1668          96.00       417.62
 1363.06        2983.00           1671         112.00       487.36
 1363.09        2983.25           1675          92.00       400.18
 1363.11        2983.50           1678          98.00       426.33
 1363.14        2983.75           1681          92.00       400.18
 1363.17        2984.00           1685         101.00       439.41
HS scan finished at 22:43:28
end
************************************************************
  HS Scan of (1) Internal mercury lamp
************************************************************
Integration time is 0.2294 seconds per sample
dh051118Kota Bharu 6.16371-102.3 3.287017pr1000
************************************************************
Dead Time -------------------------  2.8E-08 
Number of Cycles Used -------------  4 
Starting Wavelength (Angstroms) ---  2950 
Final Wavelength (Angstoms) -------  2984 
Wavelength Increment (Angstroms) --  .25 
Filter Wheel #1 Position ---------- (1) Ground quartz diffuser (ND=2.32)
Filter Wheel #2 Position ---------- (1) Neutral Density 0.494



************************************************************
HS scan start time = 12:50:19
Dark Count =  .3 


Time (GMT)  Wavelength (Ang)  Step Number  Raw Counts  Counts/Second

  770.76        2950.00           1232         112.00       486.93
  770.86        2950.25           1236         109.00       473.85
  770.89        2950.50           1239         112.00       486.93
  770.91        2950.75           1242         115.00       500.01
  770.94        2951.00           1246         122.00       530.52
  770.97        2951.25           1249         112.00       486.93
  771.00        2951.50           1252         118.00       513.08
  771.03        2951.75           1256         110.00       478.21
  771.06        2952.00           1259         114.00       495.65
  771.08        2952.25           1262         119.00       517.44
  771.11        2952.50           1265         115.00       500.01
  771.14        2952.75           1269         104.00       452.05
  771.17        2953.00           1272         110.00       478.21
  771.20        2953.25           1275         112.00       486.93
  771.23        2953.50           1279         113.00       491.29
  771.25        2953.75           1282         119.00       517.44
  771.28        2954.00           1285         122.00       530.52
  771.31        2954.25           1289         115.00       500.01
  771.34        2954.50           1292         115.00       500.01
  771.37        2954.75           1295         107.00       465.13
  771.39        2955.00           1299         122.00       530.52
  771.42        2955.25           1302         108.00       469.49
  771.45        2955.50           1305         122.00       530.52
  771.48        2955.75           1309         116.00       504.37
  771.51        2956.00           1312         104.00       452.05
  771.54        2956.25           1315         112.00       486.93
  771.56        2956.50           1318         113.00       491.29
  771.59        2956.75           1322         112.00       486.93
  771.62        2957.00           1325         111.00       482.57
  771.65        2957.25           1328         119.00       517.44
  771.68        2957.50           1332         124.00       539.24
  771.70        2957.75           1335         108.00       469.49
  771.73        2958.00           1338         112.00       486.93
  771.76        2958.25           1342         109.00       473.85
  771.79        2958.50           1345         119.00       517.44
  771.82        2958.75           1348         106.00       460.77
  771.85        2959.00           1352         105.00       456.41
  771.87        2959.25           1355         116.00       504.37
  771.90        2959.50           1358         115.00       500.01
  771.93        2959.75           1362         112.00       486.93
  771.96        2960.00           1365         115.00       500.01
  771.99        2960.25           1368         127.00       552.32
  772.01        2960.50           1372         122.00       530.52
  772.04        2960.75           1375         136.00       591.55
  772.07        2961.00           1378         147.00       639.51
  772.10        2961.25           1382         215.00       935.94
  772.13        2961.50           1385         957.00      4170.93
  772.15        2961.75           1388        2929.00     12771.35
  772.18        2962.00           1391        5379.00     23462.23
  772.21        2962.25           1395        9035.00     39427.55
  772.24        2962.50           1398       12637.00     55171.05
  772.27        2962.75           1401       16152.00     70547.68
  772.30        2963.00           1405       21538.00     94134.89
  772.32        2963.25           1408       25416.00    111137.40
  772.35        2963.50           1411       28605.00    125131.20
  772.38        2963.75           1415       33359.00    146012.90
  772.41        2964.00           1418       37093.00    162431.50
  772.44        2964.25           1421       40960.00    179450.90
  772.47        2964.50           1425       45709.00    200374.30
  772.49        2964.75           1428       49709.00    218016.90
  772.52        2965.00           1431       53372.00    234188.40
  772.55        2965.25           1435       57963.00    254477.70
  772.58        2965.50           1438       61918.00    271974.80
  772.61        2965.75           1441       65331.00    287088.00
  772.64        2966.00           1445       69624.00    306116.10
  772.66        2966.25           1448       72928.00    320774.50
  772.69        2966.50           1451       74736.00    328800.90
  772.72        2966.75           1455       75817.00    333601.70
  772.75        2967.00           1458       75908.00    334005.90
  772.78        2967.25           1461       76124.00    334965.30
  772.80        2967.50           1465       75800.00    333526.10
  772.83        2967.75           1468       74918.00    329609.10
  772.86        2968.00           1471       73030.00    321227.20
  772.89        2968.25           1475       69267.00    304533.00
  772.92        2968.50           1478       66124.00    290601.30
  772.95        2968.75           1481       62181.00    273139.00
  772.98        2969.00           1485       58127.00    255202.90
  773.00        2969.25           1488       55426.00    243262.90
  773.03        2969.50           1491       51793.00    227215.60
  773.06        2969.75           1495       47511.00    208320.10
  773.09        2970.00           1498       43473.00    190519.70
  773.12        2970.25           1501       39729.00    174031.20
  773.15        2970.50           1505       34962.00    153059.50
  773.18        2970.75           1508       31093.00    136056.60
  773.20        2971.00           1511       27628.00    120842.80
  773.23        2971.25           1515       22935.00    100258.00
  773.26        2971.50           1518       19275.00     84220.61
  773.29        2971.75           1521       16094.00     70293.85
  773.32        2972.00           1525       12181.00     53177.21
  773.34        2972.25           1528        8735.00     38116.95
  773.37        2972.50           1531        5226.00     22794.41
  773.40        2972.75           1535        1478.00      6442.75
  773.43        2973.00           1538         444.00      1934.28
  773.46        2973.25           1541         205.00       892.35
  773.49        2973.50           1544         169.00       735.41
  773.51        2973.75           1548         146.00       635.15
  773.54        2974.00           1551         144.00       626.43
  773.57        2974.25           1554         133.00       578.48
  773.60        2974.50           1558         126.00       547.96
  773.63        2974.75           1561         108.00       469.49
  773.65        2975.00           1564         107.00       465.13
  773.68        2975.25           1568         107.00       465.13
  773.71        2975.50           1571         101.00       438.98
  773.74        2975.75           1574         105.00       456.41
  773.77        2976.00           1578         107.00       465.13
  773.79        2976.25           1581         106.00       460.77
  773.82        2976.50           1584          99.00       430.26
  773.85        2976.75           1588          96.00       417.18
  773.88        2977.00           1591         100.00       434.62
  773.91        2977.25           1595         104.00       452.05
  773.94        2977.50           1598          94.00       408.46
  773.96        2977.75           1601         109.00       473.85
  773.99        2978.00           1605          95.00       412.82
  774.02        2978.25           1608          99.00       430.26
  774.05        2978.50           1611          92.00       399.74
  774.08        2978.75           1615          99.00       430.26
  774.10        2979.00           1618         108.00       469.49
  774.13        2979.25           1621         100.00       434.62
  774.16        2979.50           1625          93.00       404.10
  774.19        2979.75           1628         104.00       452.05
  774.22        2980.00           1631         102.00       443.34
  774.24        2980.25           1635          99.00       430.26
  774.27        2980.50           1638         107.00       465.13
  774.30        2980.75           1641         108.00       469.49
  774.33        2981.00           1645         101.00       438.98
  774.36        2981.25           1648          97.00       421.54
  774.39        2981.50           1651         101.00       438.98
  774.41        2981.75           1655          98.00       425.90
  774.44        2982.00           1658         104.00       452.05
  774.47        2982.25           1661          90.00       391.02
  774.50        2982.50           1665          99.00       430.26
  774.53        2982.75           1668         105.00       456.41
  774.56        2983.00           1671         101.00       438.98
  774.58        2983.25           1675          93.00       404.10
  774.61        2983.50           1678          98.00       425.90
  774.64        2983.75           1681          97.00       421.54
  774.67        2984.00           1685          91.00       395.38
HS scan finished at 12:54:58
end
