************************************************************
  HS Scan of (1) Internal mercury lamp
************************************************************
Integration time is 0.2294 seconds per sample
dh051118Kota Bharu 6.16371-102.3 3.287017pr1000
************************************************************
Dead Time -------------------------  2.8E-08 
Number of Cycles Used -------------  4 
Starting Wavelength (Angstroms) ---  2950 
Final Wavelength (Angstoms) -------  2984 
Wavelength Increment (Angstroms) --  .25 
Filter Wheel #1 Position ---------- (1) Ground quartz diffuser (ND=2.32)
Filter Wheel #2 Position ---------- (1) Neutral Density 0.494



************************************************************
HS scan start time = 22:38:51
Dark Count =  .3 


Time (GMT)  Wavelength (Ang)  Step Number  Raw Counts  Counts/Second

 1359.30        2950.00           1232         112.00       486.93
 1359.40        2950.25           1236         102.00       443.34
 1359.43        2950.50           1239         110.00       478.21
 1359.46        2950.75           1242         110.00       478.21
 1359.49        2951.00           1246         106.00       460.77
 1359.51        2951.25           1249         112.00       486.93
 1359.54        2951.50           1252         117.00       508.73
 1359.57        2951.75           1256         112.00       486.93
 1359.60        2952.00           1259         103.00       447.70
 1359.63        2952.25           1262         104.00       452.05
 1359.66        2952.50           1265         112.00       486.93
 1359.68        2952.75           1269         109.00       473.85
 1359.71        2953.00           1272         116.00       504.37
 1359.74        2953.25           1275          99.00       430.26
 1359.77        2953.50           1279         111.00       482.57
 1359.80        2953.75           1282         110.00       478.21
 1359.83        2954.00           1285         110.00       478.21
 1359.85        2954.25           1289         100.00       434.62
 1359.88        2954.50           1292         125.00       543.60
 1359.91        2954.75           1295         109.00       473.85
 1359.94        2955.00           1299         124.00       539.24
 1359.97        2955.25           1302         103.00       447.70
 1360.00        2955.50           1305         102.00       443.34
 1360.02        2955.75           1309         108.00       469.49
 1360.05        2956.00           1312         114.00       495.65
 1360.08        2956.25           1315         112.00       486.93
 1360.11        2956.50           1318         111.00       482.57
 1360.13        2956.75           1322         122.00       530.52
 1360.16        2957.00           1325         108.00       469.49
 1360.19        2957.25           1328         106.00       460.77
 1360.22        2957.50           1332         108.00       469.49
 1360.25        2957.75           1335         109.00       473.85
 1360.28        2958.00           1338         112.00       486.93
 1360.30        2958.25           1342         112.00       486.93
 1360.33        2958.50           1345         109.00       473.85
 1360.36        2958.75           1348         110.00       478.21
 1360.39        2959.00           1352         105.00       456.41
 1360.42        2959.25           1355         106.00       460.77
 1360.45        2959.50           1358         101.00       438.98
 1360.47        2959.75           1362         108.00       469.49
 1360.50        2960.00           1365         115.00       500.01
 1360.53        2960.25           1368         123.00       534.88
 1360.56        2960.50           1372         118.00       513.08
 1360.59        2960.75           1375         132.00       574.12
 1360.61        2961.00           1378         143.00       622.07
 1360.64        2961.25           1382         223.00       970.82
 1360.67        2961.50           1385         953.00      4153.49
 1360.70        2961.75           1388        2792.00     12173.72
 1360.73        2962.00           1391        5757.00     25112.25
 1360.76        2962.25           1395       10428.00     45514.38
 1360.78        2962.50           1398       13827.00     60375.31
 1360.81        2962.75           1401       17401.00     76014.71
 1360.84        2963.00           1405       22928.00    100227.30
 1360.87        2963.25           1408       26796.00    117191.70
 1360.90        2963.50           1411       29979.00    131163.90
 1360.93        2963.75           1415       34403.00    150601.90
 1360.95        2964.00           1418       37947.00    166188.70
 1360.98        2964.25           1421       41458.00    181643.80
 1361.01        2964.50           1425       46675.00    204633.40
 1361.04        2964.75           1428       50018.00    219380.50
 1361.07        2965.00           1431       53555.00    234996.70
 1361.10        2965.25           1435       58364.00    256251.00
 1361.12        2965.50           1438       61860.00    271718.10
 1361.15        2965.75           1441       65701.00    288727.10
 1361.18        2966.00           1445       69905.00    307362.30
 1361.21        2966.25           1448       72790.00    320162.00
 1361.24        2966.50           1451       74994.00    329946.60
 1361.27        2966.75           1455       76365.00    336035.80
 1361.29        2967.00           1458       76815.00    338034.90
 1361.32        2967.25           1461       76589.00    337030.90
 1361.35        2967.50           1465       76115.00    334925.30
 1361.38        2967.75           1468       75273.00    331185.60
 1361.41        2968.00           1471       73301.00    322430.10
 1361.44        2968.25           1475       69083.00    303717.10
 1361.46        2968.50           1478       65783.00    289090.50
 1361.49        2968.75           1481       62551.00    274776.90
 1361.52        2969.00           1485       58233.00    255671.70
 1361.55        2969.25           1488       55128.00    241946.10
 1361.58        2969.50           1491       51690.00    226760.90
 1361.61        2969.75           1495       47219.00    207032.30
 1361.64        2970.00           1498       43239.00    189488.80
 1361.66        2970.25           1501       39333.00    172288.20
 1361.69        2970.50           1505       35116.00    153736.60
 1361.72        2970.75           1508       31258.00    136781.40
 1361.75        2971.00           1511       27552.00    120509.30
 1361.78        2971.25           1515       22975.00    100433.30
 1361.81        2971.50           1518       19061.00     83283.35
 1361.83        2971.75           1521       15732.00     68709.66
 1361.86        2972.00           1525       11631.00     50772.65
 1361.89        2972.25           1528        8417.00     36727.81
 1361.92        2972.50           1531        5553.00     24221.74
 1361.95        2972.75           1535        1606.00      7000.94
 1361.97        2973.00           1538         465.00      2025.83
 1362.00        2973.25           1541         198.00       861.83
 1362.03        2973.50           1544         166.00       722.33
 1362.06        2973.75           1548         151.00       656.94
 1362.09        2974.00           1551         132.00       574.12
 1362.12        2974.25           1554         129.00       561.04
 1362.14        2974.50           1558         127.00       552.32
 1362.17        2974.75           1561         116.00       504.37
 1362.20        2975.00           1564         109.00       473.85
 1362.23        2975.25           1568         114.00       495.65
 1362.26        2975.50           1571         110.00       478.21
 1362.29        2975.75           1574         107.00       465.13
 1362.31        2976.00           1578         100.00       434.62
 1362.34        2976.25           1581         105.00       456.41
 1362.37        2976.50           1584         105.00       456.41
 1362.40        2976.75           1588         102.00       443.34
 1362.43        2977.00           1591          99.00       430.26
 1362.46        2977.25           1595         107.00       465.13
 1362.48        2977.50           1598         101.00       438.98
 1362.51        2977.75           1601         110.00       478.21
 1362.54        2978.00           1605          95.00       412.82
 1362.57        2978.25           1608         100.00       434.62
 1362.60        2978.50           1611          94.00       408.46
 1362.62        2978.75           1615         103.00       447.70
 1362.65        2979.00           1618          95.00       412.82
 1362.68        2979.25           1621          93.00       404.10
 1362.71        2979.50           1625          92.00       399.74
 1362.74        2979.75           1628         100.00       434.62
 1362.77        2980.00           1631          92.00       399.74
 1362.79        2980.25           1635         100.00       434.62
 1362.82        2980.50           1638         102.00       443.34
 1362.85        2980.75           1641          96.00       417.18
 1362.88        2981.00           1645         102.00       443.34
 1362.91        2981.25           1648          90.00       391.02
 1362.94        2981.50           1651          99.00       430.26
 1362.96        2981.75           1655         103.00       447.70
 1362.99        2982.00           1658          94.00       408.46
 1363.02        2982.25           1661          95.00       412.82
 1363.05        2982.50           1665          94.00       408.46
 1363.07        2982.75           1668          98.00       425.90
 1363.10        2983.00           1671         101.00       438.98
 1363.13        2983.25           1675         101.00       438.98
 1363.16        2983.50           1678          94.00       408.46
 1363.19        2983.75           1681         104.00       452.05
 1363.22        2984.00           1685         100.00       434.62
HS scan finished at 22:43:31
end
