************************************************************
  HS Scan of (1) Internal mercury lamp
************************************************************
Integration time is 0.2294 seconds per sample
dh221117Delft 51.997-4.386 3.233369pr1000
************************************************************
Dead Time -------------------------  3E-08 
Number of Cycles Used -------------  4 
Starting Wavelength (Angstroms) ---  2950 
Final Wavelength (Angstoms) -------  2984 
Wavelength Increment (Angstroms) --  .25 
Filter Wheel #1 Position ---------- (1) Ground quartz diffuser (ND=2.32)
Filter Wheel #2 Position ---------- (1) Neutral Density 0.494



************************************************************
HS scan start time = 07:48:39
Dark Count =  .3 


Time (GMT)  Wavelength (Ang)  Step Number  Raw Counts  Counts/Second

  469.10        2950.00           1229          87.00       377.95
  469.20        2950.25           1232          97.00       421.54
  469.23        2950.50           1236          97.00       421.54
  469.26        2950.75           1239          97.00       421.54
  469.29        2951.00           1242         101.00       438.98
  469.32        2951.25           1246         103.00       447.70
  469.35        2951.50           1249         105.00       456.41
  469.38        2951.75           1252         104.00       452.05
  469.41        2952.00           1255         101.00       438.98
  469.44        2952.25           1259          94.00       408.46
  469.47        2952.50           1262          97.00       421.54
  469.50        2952.75           1265          97.00       421.54
  469.53        2953.00           1269         101.00       438.98
  469.56        2953.25           1272         101.00       438.98
  469.59        2953.50           1275         101.00       438.98
  469.62        2953.75           1279         105.00       456.41
  469.64        2954.00           1282         104.00       452.05
  469.67        2954.25           1285         106.00       460.77
  469.70        2954.50           1289          94.00       408.46
  469.73        2954.75           1292         104.00       452.05
  469.76        2955.00           1295         104.00       452.05
  469.79        2955.25           1299         100.00       434.62
  469.82        2955.50           1302          96.00       417.18
  469.85        2955.75           1305         102.00       443.34
  469.88        2956.00           1309         101.00       438.98
  469.91        2956.25           1312         103.00       447.70
  469.94        2956.50           1315          98.00       425.90
  469.97        2956.75           1319          93.00       404.10
  470.00        2957.00           1322          99.00       430.26
  470.03        2957.25           1325          96.00       417.18
  470.06        2957.50           1329          98.00       425.90
  470.09        2957.75           1332          96.00       417.18
  470.12        2958.00           1335         106.00       460.77
  470.15        2958.25           1339          99.00       430.26
  470.18        2958.50           1342          95.00       412.82
  470.20        2958.75           1345          97.00       421.54
  470.23        2959.00           1349          94.00       408.46
  470.26        2959.25           1352         100.00       434.62
  470.29        2959.50           1355         100.00       434.62
  470.32        2959.75           1359         100.00       434.62
  470.35        2960.00           1362          96.00       417.18
  470.38        2960.25           1365          97.00       421.54
  470.41        2960.50           1369         103.00       447.70
  470.44        2960.75           1372         105.00       456.41
  470.47        2961.00           1375         119.00       517.44
  470.50        2961.25           1379         138.00       600.27
  470.53        2961.50           1382         179.00       779.01
  470.56        2961.75           1385         605.00      2636.22
  470.59        2962.00           1389        2724.00     11877.38
  470.62        2962.25           1392        5481.00     23908.60
  470.65        2962.50           1395        8228.00     35904.83
  470.68        2962.75           1399       11776.00     51411.85
  470.71        2963.00           1402       14927.00     65195.83
  470.74        2963.25           1405       18485.00     80773.96
  470.77        2963.50           1409       23334.00    102028.00
  470.80        2963.75           1412       26771.00    117109.50
  470.83        2964.00           1415       29675.00    129862.90
  470.86        2964.25           1419       33430.00    146368.00
  470.88        2964.50           1422       37177.00    162854.30
  470.92        2964.75           1425       40449.00    177264.10
  470.95        2965.00           1429       44692.00    195968.70
  470.98        2965.25           1432       48401.00    212336.60
  471.00        2965.50           1435       51817.00    227425.70
  471.03        2965.75           1439       55517.00    243784.70
  471.06        2966.00           1442       58747.00    258079.00
  471.09        2966.25           1445       61847.00    271809.40
  471.12        2966.50           1449       65808.00    289370.00
  471.15        2966.75           1452       67180.00    295456.90
  471.18        2967.00           1455       67418.00    296513.00
  471.21        2967.25           1459       68119.00    299624.10
  471.24        2967.50           1462       67971.00    298967.20
  471.27        2967.75           1465       67662.00    297595.80
  471.30        2968.00           1469       66247.00    291317.40
  471.33        2968.25           1472       64495.00    283546.90
  471.36        2968.50           1475       61628.00    270839.10
  471.39        2968.75           1479       58057.00    255024.30
  471.42        2969.00           1482       54838.00    240781.40
  471.45        2969.25           1485       51502.00    226033.70
  471.48        2969.50           1489       48171.00    211321.10
  471.51        2969.75           1492       45475.00    199422.80
  471.54        2970.00           1495       42555.00    186545.40
  471.57        2970.25           1499       38169.00    167221.70
  471.60        2970.50           1502       34890.00    152789.90
  471.63        2970.75           1505       31561.00    138150.70
  471.66        2971.00           1509       26619.00    116442.20
  471.69        2971.25           1512       23696.00    103615.80
  471.72        2971.50           1515       20942.00     91540.06
  471.75        2971.75           1519       16712.00     73009.35
  471.78        2972.00           1522       13480.00     58864.55
  471.81        2972.25           1525       10374.00     45282.49
  471.84        2972.50           1529        7250.00     31632.88
  471.87        2972.75           1532        4391.00     19150.93
  471.89        2973.00           1536        1454.00      6338.17
  471.92        2973.25           1539         464.00      2021.48
  471.95        2973.50           1542         186.00       809.52
  471.98        2973.75           1546         149.00       648.23
  472.01        2974.00           1549         142.00       617.71
  472.04        2974.25           1552         144.00       626.43
  472.07        2974.50           1556         115.00       500.01
  472.10        2974.75           1559         111.00       482.57
  472.13        2975.00           1562          98.00       425.90
  472.16        2975.25           1566          96.00       417.18
  472.19        2975.50           1569          93.00       404.10
  472.22        2975.75           1572          97.00       421.54
  472.25        2976.00           1576          95.00       412.82
  472.28        2976.25           1579          89.00       386.67
  472.31        2976.50           1582          91.00       395.38
  472.34        2976.75           1586          90.00       391.02
  472.37        2977.00           1589          89.00       386.67
  472.40        2977.25           1592          96.00       417.18
  472.43        2977.50           1596          95.00       412.82
  472.46        2977.75           1599          91.00       395.38
  472.49        2978.00           1602          95.00       412.82
  472.51        2978.25           1606          95.00       412.82
  472.54        2978.50           1609          93.00       404.10
  472.57        2978.75           1612          96.00       417.18
  472.60        2979.00           1616          88.00       382.31
  472.63        2979.25           1619         103.00       447.70
  472.66        2979.50           1623          95.00       412.82
  472.69        2979.75           1626          84.00       364.87
  472.72        2980.00           1629          92.00       399.74
  472.75        2980.25           1633          86.00       373.59
  472.78        2980.50           1636          88.00       382.31
  472.81        2980.75           1639          92.00       399.74
  472.84        2981.00           1643          98.00       425.90
  472.87        2981.25           1646          95.00       412.82
  472.90        2981.50           1649          88.00       382.31
  472.93        2981.75           1653          81.00       351.79
  472.96        2982.00           1656          83.00       360.51
  472.99        2982.25           1659          86.00       373.59
  473.02        2982.50           1663          93.00       404.10
  473.05        2982.75           1666          98.00       425.90
  473.07        2983.00           1669          88.00       382.31
  473.10        2983.25           1673          91.00       395.38
  473.13        2983.50           1676          83.00       360.51
  473.16        2983.75           1679          93.00       404.10
  473.19        2984.00           1683          89.00       386.67
HS scan finished at 07:53:30
end
