************************************************************
  CZ Scan of (1) Internal mercury lamp
************************************************************
Integration time is 0.2294 seconds per sample
dh240117Santa_Cruz 28.4633 16.2557 3.25pr1014.0
************************************************************
Dead Time -------------------------  3.6E-08 
Number of Cycles Used -------------  4 
Starting Wavelength (Angstroms) ---  2950 
Final Wavelength (Angstoms) -------  2984 
Wavelength Increment (Angstroms) --  .25 
Filter Wheel #1 Position ---------- (1) Ground quartz diffuser (ND=2.32)
Filter Wheel #2 Position ---------- (1) Neutral Density 0.494



************************************************************
CZ scan start time = 11:31:15
Dark Count =  .7 


Time (GMT)  Wavelength (Ang)  Step Number  Raw Counts  Counts/Second

  692.02        2950.00           1985         168.00       729.31
  692.20        2950.25           1988         157.00       681.36
  692.23        2950.50           1992         167.00       724.95
  692.26        2950.75           1996         168.00       729.31
  692.29        2951.00           1999         175.00       759.83
  692.32        2951.25           2003         168.00       729.31
  692.35        2951.50           2006         175.00       759.83
  692.38        2951.75           2010         165.00       716.23
  692.41        2952.00           2013         182.00       790.35
  692.44        2952.25           2017         189.00       820.86
  692.47        2952.50           2020         173.00       751.11
  692.50        2952.75           2024         189.00       820.86
  692.53        2953.00           2027         180.00       781.63
  692.57        2953.25           2031         185.00       803.42
  692.60        2953.50           2034         180.00       781.63
  692.63        2953.75           2038         190.00       825.22
  692.66        2954.00           2042         200.00       868.82
  692.69        2954.25           2045         183.00       794.70
  692.72        2954.50           2049         198.00       860.10
  692.75        2954.75           2052         188.00       816.50
  692.78        2955.00           2056         190.00       825.22
  692.81        2955.25           2059         203.00       881.89
  692.84        2955.50           2063         206.00       894.97
  692.87        2955.75           2066         201.00       873.17
  692.90        2956.00           2070         210.00       912.41
  692.93        2956.25           2074         209.00       908.05
  692.96        2956.50           2077         211.00       916.77
  692.99        2956.75           2081         227.00       986.52
  693.02        2957.00           2084         223.00       969.08
  693.05        2957.25           2088         218.00       947.29
  693.09        2957.50           2091         231.00      1003.96
  693.12        2957.75           2095         229.00       995.24
  693.15        2958.00           2098         234.00      1017.04
  693.18        2958.25           2102         221.00       960.36
  693.21        2958.50           2105         282.00      1226.30
  693.24        2958.75           2109         280.00      1217.58
  693.27        2959.00           2113         277.00      1204.50
  693.30        2959.25           2116         259.00      1126.03
  693.33        2959.50           2120         279.00      1213.22
  693.36        2959.75           2123         269.00      1169.62
  693.39        2960.00           2127         288.00      1252.45
  693.42        2960.25           2130         284.00      1235.02
  693.45        2960.50           2134         305.00      1326.57
  693.48        2960.75           2137         320.00      1391.96
  693.51        2961.00           2141         357.00      1553.27
  693.54        2961.25           2145         570.00      2481.91
  693.57        2961.50           2148        1165.00      5076.34
  693.61        2961.75           2152        3375.00     14717.04
  693.64        2962.00           2155        5812.00     25355.74
  693.67        2962.25           2159        8721.00     38065.64
  693.70        2962.50           2162       11166.00     48757.26
  693.73        2962.75           2166       14369.00     62775.98
  693.76        2963.00           2169       16721.00     73079.11
  693.79        2963.25           2173       19979.00     87363.69
  693.82        2963.50           2177       23387.00    102321.70
  693.85        2963.75           2180       25968.00    113660.70
  693.88        2964.00           2184       29400.00    128752.80
  693.91        2964.25           2187       31693.00    138845.30
  693.94        2964.50           2191       35385.00    155110.90
  693.97        2964.75           2194       38097.00    167071.20
  694.00        2965.00           2198       41694.00    182950.40
  694.03        2965.25           2201       44026.00    193254.80
  694.06        2965.50           2205       47460.00    208442.80
  694.09        2965.75           2209       50795.00    223208.80
  694.13        2966.00           2212       52315.00    229944.00
  694.16        2966.25           2216       53530.00    235330.10
  694.19        2966.50           2219       53561.00    235467.50
  694.22        2966.75           2223       53804.00    236545.00
  694.25        2967.00           2226       53788.00    236474.10
  694.28        2967.25           2230       53556.00    235445.40
  694.31        2967.50           2233       53339.00    234483.30
  694.34        2967.75           2237       51763.00    227497.70
  694.37        2968.00           2241       49707.00    218389.90
  694.40        2968.25           2244       48054.00    211071.60
  694.43        2968.50           2248       45058.00    197817.40
  694.46        2968.75           2251       42410.00    186113.40
  694.49        2969.00           2255       39138.00    171664.90
  694.52        2969.25           2258       36240.00    158880.40
  694.55        2969.50           2262       33179.00    145389.80
  694.58        2969.75           2265       30430.00    133285.40
  694.61        2970.00           2269       26826.00    117432.20
  694.64        2970.25           2273       23445.00    102576.40
  694.68        2970.50           2276       20941.00     91584.38
  694.71        2970.75           2280       17929.00     78373.84
  694.74        2971.00           2283       16106.00     70384.30
  694.77        2971.25           2287       13060.00     57045.11
  694.80        2971.50           2290       10419.00     45489.87
  694.83        2971.75           2294        6971.00     30418.21
  694.86        2972.00           2297        4766.00     20788.44
  694.89        2972.25           2301        1840.00      8020.19
  694.92        2972.50           2305         612.00      2665.03
  694.95        2972.75           2308         402.00      1749.46
  694.98        2973.00           2312         342.00      1487.87
  695.01        2973.25           2315         313.00      1361.44
  695.04        2973.50           2319         317.00      1378.88
  695.07        2973.75           2322         318.00      1383.24
  695.10        2974.00           2326         301.00      1309.13
  695.13        2974.25           2329         268.00      1165.26
  695.16        2974.50           2333         269.00      1169.62
  695.20        2974.75           2337         289.00      1256.81
  695.23        2975.00           2340         270.00      1173.98
  695.26        2975.25           2344         260.00      1130.39
  695.29        2975.50           2347         238.00      1034.48
  695.32        2975.75           2351         294.00      1278.61
  695.35        2976.00           2354         252.00      1095.51
  695.38        2976.25           2358         233.00      1012.68
  695.41        2976.50           2362         222.00       964.72
  695.44        2976.75           2365         204.00       886.25
  695.47        2977.00           2369         221.00       960.36
  695.50        2977.25           2372         238.00      1034.48
  695.53        2977.50           2376         217.00       942.93
  695.56        2977.75           2379         218.00       947.29
  695.59        2978.00           2383         236.00      1025.76
  695.62        2978.25           2387         214.00       929.85
  695.65        2978.50           2390         207.00       899.33
  695.68        2978.75           2394         193.00       838.30
  695.72        2979.00           2397         196.00       851.38
  695.75        2979.25           2401         185.00       803.42
  695.78        2979.50           2404         194.00       842.66
  695.81        2979.75           2408         185.00       803.42
  695.84        2980.00           2411         179.00       777.27
  695.87        2980.25           2415         175.00       759.83
  695.90        2980.50           2419         177.00       768.55
  695.93        2980.75           2422         171.00       742.39
  695.96        2981.00           2426         172.00       746.75
  695.99        2981.25           2429         183.00       794.70
  696.02        2981.50           2433         164.00       711.88
  696.05        2981.75           2436         170.00       738.03
  696.08        2982.00           2440         148.00       642.12
  696.11        2982.25           2444         168.00       729.31
  696.14        2982.50           2447         165.00       716.23
  696.17        2982.75           2451         173.00       751.11
  696.20        2983.00           2454         164.00       711.88
  696.24        2983.25           2458         164.00       711.88
  696.27        2983.50           2461         177.00       768.55
  696.30        2983.75           2465         155.00       672.64
  696.33        2984.00           2469         153.00       663.92
CZ scan finished at 11:36:33
end
