************************************************************
  CZ Scan of (1) Internal mercury lamp
************************************************************
Integration time is 0.2294 seconds per sample
dh100619Santa_Cruz 28.4633 16.2557 3.52pr1014.0
************************************************************
Dead Time -------------------------  4E-08 
Number of Cycles Used -------------  4 
Starting Wavelength (Angstroms) ---  2950 
Final Wavelength (Angstoms) -------  2984 
Wavelength Increment (Angstroms) --  .25 
Filter Wheel #1 Position ---------- (1) Ground quartz diffuser (ND=2.32)
Filter Wheel #2 Position ---------- (1) Neutral Density 0.494



************************************************************
CZ scan start time = 11:00:55
Dark Count =  7.5 


Time (GMT)  Wavelength (Ang)  Step Number  Raw Counts  Counts/Second

  661.68        2950.00           1985         113.00       459.90
  661.86        2950.25           1988         105.00       425.03
  661.89        2950.50           1992         157.00       651.72
  661.92        2950.75           1996         118.00       481.70
  661.95        2951.00           1999         120.00       490.42
  661.98        2951.25           2003         107.00       433.75
  662.02        2951.50           2006         155.00       643.00
  662.05        2951.75           2010         113.00       459.90
  662.08        2952.00           2013         125.00       512.22
  662.11        2952.25           2017         138.00       568.89
  662.14        2952.50           2020         116.00       472.98
  662.17        2952.75           2024         121.00       494.78
  662.20        2953.00           2027         137.00       564.53
  662.23        2953.25           2031         138.00       568.89
  662.26        2953.50           2034         115.00       468.62
  662.29        2953.75           2038         133.00       547.09
  662.32        2954.00           2042         159.00       660.44
  662.35        2954.25           2045         132.00       542.73
  662.38        2954.50           2049         136.00       560.17
  662.41        2954.75           2052         152.00       629.92
  662.44        2955.00           2056         151.00       625.56
  662.47        2955.25           2059         157.00       651.72
  662.50        2955.50           2063         135.00       555.81
  662.54        2955.75           2066         134.00       551.45
  662.57        2956.00           2070         155.00       643.00
  662.60        2956.25           2074         156.00       647.36
  662.63        2956.50           2077         146.00       603.76
  662.66        2956.75           2081         158.00       656.08
  662.69        2957.00           2084         145.00       599.40
  662.72        2957.25           2088         154.00       638.64
  662.75        2957.50           2091         155.00       643.00
  662.78        2957.75           2095         152.00       629.92
  662.81        2958.00           2098         159.00       660.44
  662.84        2958.25           2102         165.00       686.59
  662.87        2958.50           2105         168.00       699.67
  662.90        2958.75           2109         174.00       725.83
  662.93        2959.00           2113         180.00       751.98
  662.96        2959.25           2116         187.00       782.50
  662.99        2959.50           2120         194.00       813.02
  663.02        2959.75           2123         182.00       760.70
  663.06        2960.00           2127         199.00       834.81
  663.09        2960.25           2130         197.00       826.10
  663.12        2960.50           2134         197.00       826.10
  663.15        2960.75           2137         211.00       887.13
  663.18        2961.00           2141         232.00       978.68
  663.21        2961.25           2145         303.00      1288.21
  663.24        2961.50           2148         503.00      2160.17
  663.27        2961.75           2152        1347.00      5840.51
  663.30        2962.00           2155        2611.00     11354.33
  663.33        2962.25           2159        4611.00     20083.70
  663.36        2962.50           2162        6525.00     28443.42
  663.39        2962.75           2166        9110.00     39742.73
  663.42        2963.00           2169       11015.00     48076.24
  663.45        2963.25           2173       13822.00     60365.73
  663.48        2963.50           2177       16753.00     73211.04
  663.51        2963.75           2180       18960.00     82892.10
  663.54        2964.00           2184       21757.00     95171.99
  663.57        2964.25           2187       23537.00    102993.20
  663.61        2964.50           2191       25808.00    112978.90
  663.64        2964.75           2194       27414.00    120045.40
  663.67        2965.00           2198       29978.00    131335.50
  663.70        2965.25           2201       31755.00    139166.20
  663.73        2965.50           2205       34391.00    150791.30
  663.76        2965.75           2209       36633.00    160687.30
  663.79        2966.00           2212       38189.00    167560.00
  663.82        2966.25           2216       39736.00    174396.70
  663.85        2966.50           2219       40035.00    175718.60
  663.88        2966.75           2223       40183.00    176372.90
  663.91        2967.00           2226       40075.00    175895.40
  663.94        2967.25           2230       40202.00    176456.90
  663.97        2967.50           2233       40124.00    176112.00
  664.00        2967.75           2237       39730.00    174370.20
  664.03        2968.00           2241       39266.00    172319.20
  664.06        2968.25           2244       37636.00    165117.00
  664.10        2968.50           2248       35074.00    153805.20
  664.13        2968.75           2251       32754.00    143570.60
  664.16        2969.00           2255       30070.00    131740.80
  664.19        2969.25           2258       28318.00    124024.80
  664.22        2969.50           2262       25832.00    113084.50
  664.25        2969.75           2265       23765.00    103995.40
  664.28        2970.00           2269       21239.00     92896.87
  664.31        2970.25           2273       18357.00     80246.27
  664.34        2970.50           2276       16521.00     72193.79
  664.37        2970.75           2280       13722.00     59927.71
  664.40        2971.00           2283       11977.00     52286.67
  664.43        2971.25           2287        9222.00     40232.53
  664.46        2971.50           2290        7410.00     32310.70
  664.49        2971.75           2294        5146.00     22419.84
  664.52        2972.00           2297        3343.00     14548.57
  664.55        2972.25           2301        1439.00      6241.75
  664.58        2972.50           2305         529.00      2273.53
  664.61        2972.75           2308         337.00      1436.44
  664.65        2973.00           2312         260.00      1100.75
  664.68        2973.25           2315         251.00      1061.51
  664.71        2973.50           2319         236.00       996.12
  664.74        2973.75           2322         195.00       817.38
  664.77        2974.00           2326         200.00       839.17
  664.80        2974.25           2329         185.00       773.78
  664.83        2974.50           2333         196.00       821.74
  664.86        2974.75           2337         200.00       839.17
  664.89        2975.00           2340         191.00       799.94
  664.92        2975.25           2344         187.00       782.50
  664.95        2975.50           2347         172.00       717.11
  664.98        2975.75           2351         182.00       760.70
  665.01        2976.00           2354         160.00       664.80
  665.04        2976.25           2358         157.00       651.72
  665.07        2976.50           2362         159.00       660.44
  665.10        2976.75           2365         153.00       634.28
  665.13        2977.00           2369         158.00       656.08
  665.17        2977.25           2372         166.00       690.95
  665.20        2977.50           2376         149.00       616.84
  665.23        2977.75           2379         160.00       664.80
  665.26        2978.00           2383         152.00       629.92
  665.29        2978.25           2387         139.00       573.25
  665.32        2978.50           2390         140.00       577.61
  665.35        2978.75           2394         143.00       590.69
  665.38        2979.00           2397         136.00       560.17
  665.41        2979.25           2401         136.00       560.17
  665.44        2979.50           2404         137.00       564.53
  665.47        2979.75           2408         141.00       581.97
  665.50        2980.00           2411         147.00       608.12
  665.53        2980.25           2415         129.00       529.65
  665.56        2980.50           2419         152.00       629.92
  665.59        2980.75           2422         144.00       595.04
  665.62        2981.00           2426         136.00       560.17
  665.66        2981.25           2429         127.00       520.94
  665.69        2981.50           2433         122.00       499.14
  665.72        2981.75           2436         150.00       621.20
  665.75        2982.00           2440         143.00       590.69
  665.78        2982.25           2444         131.00       538.37
  665.81        2982.50           2447         106.00       429.39
  665.84        2982.75           2451         132.00       542.73
  665.87        2983.00           2454         162.00       673.51
  665.90        2983.25           2458         107.00       433.75
  665.93        2983.50           2461         125.00       512.22
  665.96        2983.75           2465         115.00       468.62
  665.99        2984.00           2469         130.00       534.01
CZ scan finished at 11:06:13
end
