************************************************************
  HS Scan of (1) Internal mercury lamp
************************************************************
Integration time is 0.2294 seconds per sample
dh060117Santa_Cruz 28.4633 16.2557 2.96pr1014.0
************************************************************
Dead Time -------------------------  3.6E-08 
Number of Cycles Used -------------  4 
Starting Wavelength (Angstroms) ---  2950 
Final Wavelength (Angstoms) -------  2984 
Wavelength Increment (Angstroms) --  .25 
Filter Wheel #1 Position ---------- (1) Ground quartz diffuser (ND=2.32)
Filter Wheel #2 Position ---------- (1) Neutral Density 0.494



************************************************************
HS scan start time = 01:43:37
Dark Count =  .5 


Time (GMT)  Wavelength (Ang)  Step Number  Raw Counts  Counts/Second

  104.37        2950.00           1985         170.00       738.90
  104.56        2950.25           1988         157.00       682.23
  104.59        2950.50           1992         159.00       690.95
  104.62        2950.75           1996         176.00       765.06
  104.65        2951.00           1999         178.00       773.78
  104.68        2951.25           2003         175.00       760.70
  104.71        2951.50           2006         169.00       734.54
  104.74        2951.75           2010         184.00       799.94
  104.77        2952.00           2013         190.00       826.09
  104.80        2952.25           2017         183.00       795.58
  104.83        2952.50           2020         183.00       795.58
  104.86        2952.75           2024         179.00       778.14
  104.89        2953.00           2027         183.00       795.58
  104.92        2953.25           2031         204.00       887.13
  104.95        2953.50           2034         193.00       839.17
  104.98        2953.75           2038         185.00       804.30
  105.01        2954.00           2042         196.00       852.25
  105.04        2954.25           2045         200.00       869.69
  105.08        2954.50           2049         204.00       887.13
  105.11        2954.75           2052         202.00       878.41
  105.14        2955.00           2056         204.00       887.13
  105.17        2955.25           2059         196.00       852.25
  105.20        2955.50           2063         209.00       908.92
  105.23        2955.75           2066         208.00       904.56
  105.26        2956.00           2070         213.00       926.36
  105.29        2956.25           2074         212.00       922.00
  105.32        2956.50           2077         273.00      1187.93
  105.35        2956.75           2081         256.00      1113.82
  105.38        2957.00           2084         250.00      1087.66
  105.41        2957.25           2088         247.00      1074.58
  105.44        2957.50           2091         250.00      1087.66
  105.47        2957.75           2095         264.00      1148.70
  105.50        2958.00           2098         242.00      1052.79
  105.53        2958.25           2102         252.00      1096.38
  105.56        2958.50           2105         254.00      1105.10
  105.60        2958.75           2109         257.00      1118.18
  105.63        2959.00           2113         267.00      1161.77
  105.66        2959.25           2116         275.00      1196.65
  105.69        2959.50           2120         261.00      1135.62
  105.72        2959.75           2123         280.00      1218.45
  105.75        2960.00           2127         297.00      1292.56
  105.78        2960.25           2130         318.00      1384.11
  105.81        2960.50           2134         309.00      1344.88
  105.84        2960.75           2137         333.00      1449.51
  105.87        2961.00           2141         321.00      1397.19
  105.90        2961.25           2145         391.00      1702.37
  105.93        2961.50           2148         554.00      2413.03
  105.96        2961.75           2152        1347.00      5870.90
  105.99        2962.00           2155        2789.00     12160.95
  106.02        2962.25           2159        6458.00     28178.09
  106.05        2962.50           2162        9130.00     39854.44
  106.08        2962.75           2166       12661.00     55299.61
  106.12        2963.00           2169       15798.00     69035.79
  106.15        2963.25           2173       19810.00     86623.24
  106.18        2963.50           2177       23221.00    101593.60
  106.21        2963.75           2180       25903.00    113375.90
  106.24        2964.00           2184       29806.00    130540.10
  106.27        2964.25           2187       32195.00    141056.70
  106.30        2964.50           2191       35627.00    156178.60
  106.33        2964.75           2194       38375.00    168298.60
  106.36        2965.00           2198       41985.00    184236.70
  106.39        2965.25           2201       44602.00    195802.10
  106.42        2965.50           2205       48934.00    214968.00
  106.45        2965.75           2209       52733.00    231797.60
  106.48        2966.00           2212       55007.00    241881.30
  106.51        2966.25           2216       57285.00    251990.10
  106.54        2966.50           2219       57725.00    253943.50
  106.57        2966.75           2223       58071.00    255479.80
  106.60        2967.00           2226       58260.00    256319.00
  106.64        2967.25           2230       58078.00    255510.90
  106.67        2967.50           2233       58050.00    255386.50
  106.70        2967.75           2237       57865.00    254565.10
  106.73        2968.00           2241       56990.00    250680.60
  106.76        2968.25           2244       54829.00    241091.70
  106.79        2968.50           2248       50686.00    222726.90
  106.82        2968.75           2251       47584.00    208992.40
  106.85        2969.00           2255       43712.00    191867.80
  106.88        2969.25           2258       41008.00    179921.40
  106.91        2969.50           2262       37415.00    164063.40
  106.94        2969.75           2265       34922.00    153070.90
  106.97        2970.00           2269       31255.00    136917.80
  107.00        2970.25           2273       26989.00    118149.70
  107.03        2970.50           2276       24121.00    105546.30
  107.06        2970.75           2280       20039.00     87627.78
  107.09        2971.00           2283       17287.00     75560.53
  107.12        2971.25           2287       13910.00     60767.06
  107.16        2971.50           2290       11491.00     50179.94
  107.19        2971.75           2294        8519.00     37183.57
  107.22        2972.00           2297        5480.00     23906.79
  107.25        2972.25           2301        2555.00     11140.04
  107.28        2972.50           2305         829.00      3612.07
  107.31        2972.75           2308         454.00      1977.04
  107.34        2973.00           2312         363.00      1580.30
  107.37        2973.25           2315         346.00      1506.18
  107.40        2973.50           2319         367.00      1597.74
  107.43        2973.75           2322         325.00      1414.63
  107.46        2974.00           2326         336.00      1462.59
  107.49        2974.25           2329         317.00      1379.75
  107.52        2974.50           2333         321.00      1397.19
  107.55        2974.75           2337         304.00      1323.08
  107.58        2975.00           2340         301.00      1310.00
  107.61        2975.25           2344         284.00      1235.89
  107.64        2975.50           2347         271.00      1179.21
  107.67        2975.75           2351         280.00      1218.45
  107.71        2976.00           2354         269.00      1170.49
  107.74        2976.25           2358         290.00      1262.05
  107.77        2976.50           2362         229.00       996.11
  107.80        2976.75           2365         246.00      1070.22
  107.83        2977.00           2369         250.00      1087.66
  107.86        2977.25           2372         238.00      1035.35
  107.89        2977.50           2376         251.00      1092.02
  107.92        2977.75           2379         221.00       961.24
  107.95        2978.00           2383         252.00      1096.38
  107.98        2978.25           2387         218.00       948.16
  108.01        2978.50           2390         238.00      1035.35
  108.04        2978.75           2394         212.00       922.00
  108.07        2979.00           2397         216.00       939.44
  108.10        2979.25           2401         236.00      1026.63
  108.13        2979.50           2404         215.00       935.08
  108.16        2979.75           2408         212.00       922.00
  108.19        2980.00           2411         201.00       874.05
  108.23        2980.25           2415         207.00       900.20
  108.26        2980.50           2419         203.00       882.77
  108.29        2980.75           2422         203.00       882.77
  108.32        2981.00           2426         191.00       830.45
  108.35        2981.25           2429         199.00       865.33
  108.38        2981.50           2433         183.00       795.58
  108.41        2981.75           2436         185.00       804.30
  108.44        2982.00           2440         195.00       847.89
  108.47        2982.25           2444         180.00       782.50
  108.50        2982.50           2447         176.00       765.06
  108.53        2982.75           2451         180.00       782.50
  108.56        2983.00           2454         190.00       826.09
  108.59        2983.25           2458         171.00       743.26
  108.62        2983.50           2461         171.00       743.26
  108.65        2983.75           2465         179.00       778.14
  108.68        2984.00           2469         179.00       778.14
HS scan finished at 01:48:54
end
