************************************************************
  HS Scan of (1) Internal mercury lamp
************************************************************
Integration time is 0.2294 seconds per sample
dh130117Santa_Cruz 28.4633 16.2557 2.96pr1014.0
************************************************************
Dead Time -------------------------  3.6E-08 
Number of Cycles Used -------------  4 
Starting Wavelength (Angstroms) ---  2950 
Final Wavelength (Angstoms) -------  2984 
Wavelength Increment (Angstroms) --  .25 
Filter Wheel #1 Position ---------- (1) Ground quartz diffuser (ND=2.32)
Filter Wheel #2 Position ---------- (1) Neutral Density 0.494



************************************************************
HS scan start time = 01:48:01
Dark Count =  .5 


Time (GMT)  Wavelength (Ang)  Step Number  Raw Counts  Counts/Second

  108.77        2950.00           1985         163.00       708.39
  108.95        2950.25           1988         164.00       712.75
  108.98        2950.50           1992         169.00       734.54
  109.01        2950.75           1996         165.00       717.11
  109.04        2951.00           1999         189.00       821.73
  109.07        2951.25           2003         177.00       769.42
  109.10        2951.50           2006         182.00       791.22
  109.13        2951.75           2010         184.00       799.94
  109.17        2952.00           2013         175.00       760.70
  109.20        2952.25           2017         185.00       804.30
  109.23        2952.50           2020         181.00       786.86
  109.26        2952.75           2024         175.00       760.70
  109.29        2953.00           2027         196.00       852.25
  109.32        2953.25           2031         193.00       839.17
  109.35        2953.50           2034         187.00       813.01
  109.38        2953.75           2038         198.00       860.97
  109.41        2954.00           2042         192.00       834.81
  109.44        2954.25           2045         199.00       865.33
  109.47        2954.50           2049         205.00       891.48
  109.50        2954.75           2052         203.00       882.77
  109.53        2955.00           2056         218.00       948.16
  109.56        2955.25           2059         199.00       865.33
  109.59        2955.50           2063         193.00       839.17
  109.62        2955.75           2066         239.00      1039.71
  109.65        2956.00           2070         217.00       943.80
  109.68        2956.25           2074         218.00       948.16
  109.72        2956.50           2077         228.00       991.75
  109.75        2956.75           2081         236.00      1026.63
  109.78        2957.00           2084         252.00      1096.38
  109.81        2957.25           2088         243.00      1057.15
  109.84        2957.50           2091         260.00      1131.26
  109.87        2957.75           2095         248.00      1078.94
  109.90        2958.00           2098         248.00      1078.94
  109.93        2958.25           2102         262.00      1139.98
  109.96        2958.50           2105         263.00      1144.34
  109.99        2958.75           2109         280.00      1218.45
  110.02        2959.00           2113         277.00      1205.37
  110.05        2959.25           2116         277.00      1205.37
  110.08        2959.50           2120         287.00      1248.97
  110.11        2959.75           2123         298.00      1296.92
  110.14        2960.00           2127         305.00      1327.44
  110.17        2960.25           2130         318.00      1384.11
  110.20        2960.50           2134         316.00      1375.40
  110.24        2960.75           2137         333.00      1449.51
  110.27        2961.00           2141         373.00      1623.90
  110.30        2961.25           2145         699.00      3045.23
  110.33        2961.50           2148        1507.00      6568.69
  110.36        2961.75           2152        4281.00     18672.09
  110.39        2962.00           2155        6600.00     28798.37
  110.42        2962.25           2159        9673.00     42228.49
  110.45        2962.50           2162       12451.00     54380.55
  110.48        2962.75           2166       15899.00     69478.28
  110.51        2963.00           2169       18406.00     80465.97
  110.54        2963.25           2173       21833.00     95499.96
  110.57        2963.50           2177       25654.00    112281.60
  110.60        2963.75           2180       28791.00    126074.40
  110.63        2964.00           2184       32141.00    140818.90
  110.66        2964.25           2187       34840.00    152709.50
  110.69        2964.50           2191       38251.00    167751.50
  110.72        2964.75           2194       40909.00    179484.20
  110.76        2965.00           2198       44328.00    194590.80
  110.79        2965.25           2201       46704.00    205098.60
  110.82        2965.50           2205       50316.00    221088.00
  110.85        2965.75           2209       53978.00    237317.50
  110.88        2966.00           2212       55418.00    243704.60
  110.91        2966.25           2216       56705.00    249415.60
  110.94        2966.50           2219       56932.00    250423.20
  110.97        2966.75           2223       57010.00    250769.40
  111.00        2967.00           2226       56826.00    249952.70
  111.03        2967.25           2230       57106.00    251195.50
  111.06        2967.50           2233       56554.00    248745.50
  111.09        2967.75           2237       56006.00    246313.60
  111.12        2968.00           2241       53893.00    236940.60
  111.15        2968.25           2244       51233.00    225150.20
  111.18        2968.50           2248       47340.00    207912.60
  111.21        2968.75           2251       43938.00    192866.70
  111.24        2969.00           2255       40211.00    176402.20
  111.28        2969.25           2258       37652.00    165108.80
  111.31        2969.50           2262       34340.00    150506.00
  111.34        2969.75           2265       31218.00    136754.90
  111.37        2970.00           2269       27843.00    121904.80
  111.40        2970.25           2273       24230.00    106025.10
  111.43        2970.50           2276       21553.00     94271.01
  111.46        2970.75           2280       18032.00     78826.26
  111.49        2971.00           2283       15323.00     66955.00
  111.52        2971.25           2287       11743.00     51282.47
  111.55        2971.50           2290        8872.00     38726.58
  111.58        2971.75           2294        5542.00     24177.53
  111.61        2972.00           2297        3501.00     15267.76
  111.64        2972.25           2301        1332.00      5805.49
  111.67        2972.50           2305         470.00      2046.79
  111.70        2972.75           2308         386.00      1680.57
  111.73        2973.00           2312         346.00      1506.18
  111.77        2973.25           2315         322.00      1401.55
  111.80        2973.50           2319         334.00      1453.87
  111.83        2973.75           2322         305.00      1327.44
  111.86        2974.00           2326         311.00      1353.60
  111.89        2974.25           2329         289.00      1257.69
  111.92        2974.50           2333         303.00      1318.72
  111.95        2974.75           2337         283.00      1231.53
  111.98        2975.00           2340         267.00      1161.77
  112.01        2975.25           2344         274.00      1192.29
  112.04        2975.50           2347         247.00      1074.58
  112.07        2975.75           2351         263.00      1144.34
  112.10        2976.00           2354         262.00      1139.98
  112.13        2976.25           2358         241.00      1048.43
  112.16        2976.50           2362         246.00      1070.22
  112.19        2976.75           2365         255.00      1109.46
  112.22        2977.00           2369         274.00      1192.29
  112.25        2977.25           2372         233.00      1013.55
  112.28        2977.50           2376         218.00       948.16
  112.32        2977.75           2379         213.00       926.36
  112.35        2978.00           2383         223.00       969.96
  112.38        2978.25           2387         207.00       900.20
  112.41        2978.50           2390         208.00       904.56
  112.44        2978.75           2394         218.00       948.16
  112.47        2979.00           2397         212.00       922.00
  112.50        2979.25           2401         203.00       882.77
  112.53        2979.50           2404         199.00       865.33
  112.56        2979.75           2408         205.00       891.48
  112.59        2980.00           2411         202.00       878.41
  112.62        2980.25           2415         189.00       821.73
  112.65        2980.50           2419         192.00       834.81
  112.68        2980.75           2422         193.00       839.17
  112.71        2981.00           2426         186.00       808.65
  112.74        2981.25           2429         179.00       778.14
  112.77        2981.50           2433         178.00       773.78
  112.80        2981.75           2436         171.00       743.26
  112.84        2982.00           2440         182.00       791.22
  112.87        2982.25           2444         176.00       765.06
  112.90        2982.50           2447         169.00       734.54
  112.93        2982.75           2451         178.00       773.78
  112.96        2983.00           2454         176.00       765.06
  112.99        2983.25           2458         171.00       743.26
  113.02        2983.50           2461         167.00       725.83
  113.05        2983.75           2465         170.00       738.90
  113.08        2984.00           2469         169.00       734.54
HS scan finished at 01:53:18
end
