************************************************************
  HS Scan of (1) Internal mercury lamp
************************************************************
Integration time is 0.2294 seconds per sample
dh200117Santa_Cruz 28.4633 16.2557 2.86pr1014.0
************************************************************
Dead Time -------------------------  3.6E-08 
Number of Cycles Used -------------  4 
Starting Wavelength (Angstroms) ---  2950 
Final Wavelength (Angstoms) -------  2984 
Wavelength Increment (Angstroms) --  .25 
Filter Wheel #1 Position ---------- (1) Ground quartz diffuser (ND=2.32)
Filter Wheel #2 Position ---------- (1) Neutral Density 0.494



************************************************************
HS scan start time = 01:50:21
Dark Count =  .5 


Time (GMT)  Wavelength (Ang)  Step Number  Raw Counts  Counts/Second

  111.11        2950.00           1985         165.00       717.11
  111.29        2950.25           1988         163.00       708.39
  111.32        2950.50           1992         157.00       682.23
  111.35        2950.75           1996         174.00       756.34
  111.38        2951.00           1999         168.00       730.18
  111.41        2951.25           2003         171.00       743.26
  111.44        2951.50           2006         177.00       769.42
  111.47        2951.75           2010         164.00       712.75
  111.50        2952.00           2013         166.00       721.47
  111.53        2952.25           2017         172.00       747.62
  111.56        2952.50           2020         185.00       804.30
  111.59        2952.75           2024         192.00       834.81
  111.62        2953.00           2027         187.00       813.01
  111.65        2953.25           2031         175.00       760.70
  111.68        2953.50           2034         186.00       808.65
  111.72        2953.75           2038         195.00       847.89
  111.75        2954.00           2042         199.00       865.33
  111.78        2954.25           2045         190.00       826.09
  111.81        2954.50           2049         196.00       852.25
  111.84        2954.75           2052         198.00       860.97
  111.87        2955.00           2056         200.00       869.69
  111.90        2955.25           2059         190.00       826.09
  111.93        2955.50           2063         188.00       817.37
  111.96        2955.75           2066         212.00       922.00
  111.99        2956.00           2070         217.00       943.80
  112.02        2956.25           2074         222.00       965.60
  112.05        2956.50           2077         214.00       930.72
  112.08        2956.75           2081         226.00       983.03
  112.11        2957.00           2084         227.00       987.39
  112.14        2957.25           2088         210.00       913.28
  112.17        2957.50           2091         227.00       987.39
  112.20        2957.75           2095         228.00       991.75
  112.23        2958.00           2098         231.00      1004.83
  112.26        2958.25           2102         256.00      1113.82
  112.30        2958.50           2105         244.00      1061.51
  112.33        2958.75           2109         296.00      1288.20
  112.36        2959.00           2113         314.00      1366.68
  112.39        2959.25           2116         277.00      1205.37
  112.42        2959.50           2120         272.00      1183.57
  112.45        2959.75           2123         290.00      1262.05
  112.48        2960.00           2127         303.00      1318.72
  112.51        2960.25           2130         303.00      1318.72
  112.54        2960.50           2134         300.00      1305.64
  112.57        2960.75           2137         320.00      1392.83
  112.60        2961.00           2141         337.00      1466.95
  112.63        2961.25           2145         539.00      2347.63
  112.66        2961.50           2148        1042.00      4540.85
  112.69        2961.75           2152        3219.00     14037.17
  112.72        2962.00           2155        5481.00     23911.16
  112.75        2962.25           2159        9110.00     39767.01
  112.78        2962.50           2162       11708.00     51129.34
  112.82        2962.75           2166       15343.00     67042.61
  112.85        2963.00           2169       17566.00     76783.45
  112.88        2963.25           2173       20758.00     90782.26
  112.91        2963.50           2177       24099.00    105449.70
  112.94        2963.75           2180       26829.00    117446.30
  112.97        2964.00           2184       29840.00    130689.70
  113.00        2964.25           2187       32160.00    140902.50
  113.03        2964.50           2191       35743.00    156690.00
  113.06        2964.75           2194       38327.00    168086.80
  113.09        2965.00           2198       41541.00    182275.40
  113.12        2965.25           2201       43999.00    193136.40
  113.15        2965.50           2205       47502.00    208629.50
  113.18        2965.75           2209       50457.00    221712.50
  113.21        2966.00           2212       52349.00    230095.60
  113.24        2966.25           2216       53860.00    236794.20
  113.27        2966.50           2219       54406.00    239215.60
  113.30        2966.75           2223       54295.00    238723.30
  113.34        2967.00           2226       54219.00    238386.20
  113.37        2967.25           2230       54626.00    240191.30
  113.40        2967.50           2233       54348.00    238958.30
  113.43        2967.75           2237       54211.00    238350.70
  113.46        2968.00           2241       52822.00    232192.20
  113.49        2968.25           2244       50980.00    224029.30
  113.52        2968.50           2248       47014.00    206470.10
  113.55        2968.75           2251       44334.00    194617.30
  113.58        2969.00           2255       40649.00    178336.10
  113.61        2969.25           2258       38043.00    166833.80
  113.64        2969.50           2262       35025.00    153524.90
  113.67        2969.75           2265       32853.00    143954.60
  113.70        2970.00           2269       29921.00    131046.20
  113.73        2970.25           2273       25927.00    113481.40
  113.76        2970.50           2276       22842.00     99929.47
  113.79        2970.75           2280       19129.00     83636.36
  113.82        2971.00           2283       16488.00     72058.97
  113.86        2971.25           2287       13306.00     58122.80
  113.89        2971.50           2290       10722.00     46815.98
  113.92        2971.75           2294        7479.00     32638.59
  113.95        2972.00           2297        5128.00     22369.79
  113.98        2972.25           2301        2187.00      9534.66
  114.01        2972.50           2305         726.00      3162.96
  114.04        2972.75           2308         433.00      1885.48
  114.07        2973.00           2312         340.00      1480.03
  114.10        2973.25           2315         347.00      1510.54
  114.13        2973.50           2319         330.00      1436.43
  114.16        2973.75           2322         312.00      1357.96
  114.19        2974.00           2326         291.00      1266.40
  114.22        2974.25           2329         300.00      1305.64
  114.25        2974.50           2333         309.00      1344.88
  114.28        2974.75           2337         282.00      1227.17
  114.31        2975.00           2340         266.00      1157.42
  114.34        2975.25           2344         266.00      1157.42
  114.37        2975.50           2347         248.00      1078.94
  114.41        2975.75           2351         265.00      1153.06
  114.44        2976.00           2354         231.00      1004.83
  114.47        2976.25           2358         246.00      1070.22
  114.50        2976.50           2362         246.00      1070.22
  114.53        2976.75           2365         247.00      1074.58
  114.56        2977.00           2369         237.00      1030.99
  114.59        2977.25           2372         261.00      1135.62
  114.62        2977.50           2376         243.00      1057.15
  114.65        2977.75           2379         215.00       935.08
  114.68        2978.00           2383         223.00       969.96
  114.71        2978.25           2387         209.00       908.92
  114.74        2978.50           2390         205.00       891.48
  114.77        2978.75           2394         221.00       961.24
  114.80        2979.00           2397         218.00       948.16
  114.83        2979.25           2401         201.00       874.05
  114.86        2979.50           2404         201.00       874.05
  114.89        2979.75           2408         188.00       817.37
  114.93        2980.00           2411         193.00       839.17
  114.96        2980.25           2415         199.00       865.33
  114.99        2980.50           2419         200.00       869.69
  115.02        2980.75           2422         194.00       843.53
  115.05        2981.00           2426         203.00       882.77
  115.08        2981.25           2429         190.00       826.09
  115.11        2981.50           2433         185.00       804.30
  115.14        2981.75           2436         188.00       817.37
  115.17        2982.00           2440         180.00       782.50
  115.20        2982.25           2444         178.00       773.78
  115.23        2982.50           2447         170.00       738.90
  115.26        2982.75           2451         169.00       734.54
  115.29        2983.00           2454         179.00       778.14
  115.32        2983.25           2458         167.00       725.83
  115.35        2983.50           2461         165.00       717.11
  115.38        2983.75           2465         187.00       813.01
  115.41        2984.00           2469         180.00       782.50
HS scan finished at 01:55:38
end
