************************************************************
  HS Scan of (1) Internal mercury lamp
************************************************************
Integration time is 0.2294 seconds per sample
dh270117Santa_Cruz 28.4633 16.2557 2.98pr1014.0
************************************************************
Dead Time -------------------------  3.6E-08 
Number of Cycles Used -------------  4 
Starting Wavelength (Angstroms) ---  2950 
Final Wavelength (Angstoms) -------  2984 
Wavelength Increment (Angstroms) --  .25 
Filter Wheel #1 Position ---------- (1) Ground quartz diffuser (ND=2.32)
Filter Wheel #2 Position ---------- (1) Neutral Density 0.494



************************************************************
HS scan start time = 01:50:33
Dark Count =  .7 


Time (GMT)  Wavelength (Ang)  Step Number  Raw Counts  Counts/Second

  111.30        2950.00           1985         154.00       668.28
  111.48        2950.25           1988         153.00       663.92
  111.51        2950.50           1992         150.00       650.84
  111.54        2950.75           1996         166.00       720.59
  111.57        2951.00           1999         167.00       724.95
  111.61        2951.25           2003         163.00       707.52
  111.64        2951.50           2006         168.00       729.31
  111.67        2951.75           2010         167.00       724.95
  111.70        2952.00           2013         160.00       694.44
  111.73        2952.25           2017         176.00       764.19
  111.76        2952.50           2020         168.00       729.31
  111.79        2952.75           2024         176.00       764.19
  111.82        2953.00           2027         168.00       729.31
  111.85        2953.25           2031         183.00       794.70
  111.88        2953.50           2034         185.00       803.42
  111.91        2953.75           2038         184.00       799.06
  111.94        2954.00           2042         192.00       833.94
  111.97        2954.25           2045         204.00       886.25
  112.00        2954.50           2049         199.00       864.46
  112.03        2954.75           2052         176.00       764.19
  112.06        2955.00           2056         194.00       842.66
  112.09        2955.25           2059         185.00       803.42
  112.12        2955.50           2063         205.00       890.61
  112.16        2955.75           2066         204.00       886.25
  112.19        2956.00           2070         196.00       851.38
  112.22        2956.25           2074         201.00       873.17
  112.25        2956.50           2077         201.00       873.17
  112.28        2956.75           2081         213.00       925.49
  112.31        2957.00           2084         223.00       969.08
  112.34        2957.25           2088         230.00       999.60
  112.37        2957.50           2091         237.00      1030.12
  112.40        2957.75           2095         221.00       960.36
  112.43        2958.00           2098         227.00       986.52
  112.46        2958.25           2102         239.00      1038.84
  112.49        2958.50           2105         240.00      1043.20
  112.52        2958.75           2109         267.00      1160.90
  112.55        2959.00           2113         254.00      1104.23
  112.58        2959.25           2116         267.00      1160.90
  112.61        2959.50           2120         301.00      1309.13
  112.65        2959.75           2123         293.00      1274.25
  112.68        2960.00           2127         278.00      1208.86
  112.71        2960.25           2130         282.00      1226.30
  112.74        2960.50           2134         329.00      1431.20
  112.77        2960.75           2137         320.00      1391.96
  112.80        2961.00           2141         329.00      1431.20
  112.83        2961.25           2145         561.00      2442.67
  112.86        2961.50           2148        1130.00      4923.72
  112.89        2961.75           2152        3261.00     14219.57
  112.92        2962.00           2155        5595.00     24408.10
  112.95        2962.25           2159        9223.00     40260.14
  112.98        2962.50           2162       11919.00     52051.68
  113.01        2962.75           2166       15328.00     66976.03
  113.04        2963.00           2169       17902.00     78255.47
  113.07        2963.25           2173       21072.00     92159.22
  113.10        2963.50           2177       24371.00    106643.60
  113.13        2963.75           2180       26990.00    118153.20
  113.17        2964.00           2184       30424.00    133259.00
  113.20        2964.25           2187       32712.00    143332.70
  113.23        2964.50           2191       35764.00    156781.70
  113.26        2964.75           2194       37250.00    163334.70
  113.29        2965.00           2198       39730.00    174277.90
  113.32        2965.25           2201       42202.00    185194.40
  113.35        2965.50           2205       45361.00    199157.30
  113.38        2965.75           2209       49163.00    215981.00
  113.41        2966.00           2212       51493.00    226301.30
  113.44        2966.25           2216       54574.00    239959.80
  113.47        2966.50           2219       55308.00    243215.70
  113.50        2966.75           2223       55532.00    244209.50
  113.53        2967.00           2226       55602.00    244520.10
  113.56        2967.25           2230       55220.00    242825.30
  113.59        2967.50           2233       55243.00    242927.40
  113.62        2967.75           2237       54515.00    239698.10
  113.65        2968.00           2241       53465.00    235041.90
  113.68        2968.25           2244       51370.00    225756.30
  113.72        2968.50           2248       47839.00    210120.10
  113.75        2968.75           2251       45471.00    199643.80
  113.78        2969.00           2255       41582.00    182455.60
  113.81        2969.25           2258       38650.00    169511.20
  113.84        2969.50           2262       35368.00    155036.00
  113.87        2969.75           2265       32995.00    144579.20
  113.90        2970.00           2269       27876.00    122049.00
  113.93        2970.25           2273       26580.00    116350.80
  113.96        2970.50           2276       24019.00    105097.40
  113.99        2970.75           2280       20468.00     89508.98
  114.02        2971.00           2283       17656.00     77177.08
  114.05        2971.25           2287       14165.00     61882.70
  114.08        2971.50           2290       11869.00     51832.90
  114.11        2971.75           2294        8168.00     35648.60
  114.14        2972.00           2297        5358.00     23373.19
  114.17        2972.25           2301        2346.00     10227.39
  114.21        2972.50           2305         790.00      3441.14
  114.24        2972.75           2308         443.00      1928.21
  114.27        2973.00           2312         352.00      1531.47
  114.30        2973.25           2315         330.00      1435.56
  114.33        2973.50           2319         326.00      1418.12
  114.36        2973.75           2322         309.00      1344.01
  114.39        2974.00           2326         301.00      1309.13
  114.42        2974.25           2329         286.00      1243.74
  114.45        2974.50           2333         290.00      1261.17
  114.48        2974.75           2337         286.00      1243.74
  114.51        2975.00           2340         273.00      1187.06
  114.54        2975.25           2344         263.00      1143.46
  114.57        2975.50           2347         262.00      1139.11
  114.60        2975.75           2351         268.00      1165.26
  114.63        2976.00           2354         261.00      1134.75
  114.66        2976.25           2358         231.00      1003.96
  114.69        2976.50           2362         276.00      1200.14
  114.72        2976.75           2365         222.00       964.72
  114.76        2977.00           2369         227.00       986.52
  114.79        2977.25           2372         222.00       964.72
  114.82        2977.50           2376         205.00       890.61
  114.85        2977.75           2379         224.00       973.44
  114.88        2978.00           2383         215.00       934.21
  114.91        2978.25           2387         215.00       934.21
  114.94        2978.50           2390         212.00       921.13
  114.97        2978.75           2394         232.00      1008.32
  115.00        2979.00           2397         198.00       860.10
  115.03        2979.25           2401         195.00       847.02
  115.06        2979.50           2404         203.00       881.89
  115.09        2979.75           2408         213.00       925.49
  115.12        2980.00           2411         203.00       881.89
  115.15        2980.25           2415         199.00       864.46
  115.18        2980.50           2419         181.00       785.99
  115.21        2980.75           2422         170.00       738.03
  115.25        2981.00           2426         188.00       816.50
  115.28        2981.25           2429         189.00       820.86
  115.31        2981.50           2433         187.00       812.14
  115.34        2981.75           2436         186.00       807.78
  115.37        2982.00           2440         172.00       746.75
  115.40        2982.25           2444         170.00       738.03
  115.43        2982.50           2447         155.00       672.64
  115.46        2982.75           2451         174.00       755.47
  115.49        2983.00           2454         178.00       772.91
  115.52        2983.25           2458         164.00       711.88
  115.55        2983.50           2461         165.00       716.23
  115.58        2983.75           2465         171.00       742.39
  115.61        2984.00           2469         164.00       711.88
HS scan finished at 01:55:50
end
