************************************************************
  HS Scan of (1) Internal mercury lamp
************************************************************
Integration time is 0.2294 seconds per sample
dh030217Santa_Cruz 28.4633 16.2557 2.94pr1014.0
************************************************************
Dead Time -------------------------  3.6E-08 
Number of Cycles Used -------------  4 
Starting Wavelength (Angstroms) ---  2950 
Final Wavelength (Angstoms) -------  2984 
Wavelength Increment (Angstroms) --  .25 
Filter Wheel #1 Position ---------- (1) Ground quartz diffuser (ND=2.32)
Filter Wheel #2 Position ---------- (1) Neutral Density 0.494



************************************************************
HS scan start time = 01:51:37
Dark Count =  .3 


Time (GMT)  Wavelength (Ang)  Step Number  Raw Counts  Counts/Second

  112.37        2950.00           1985         157.00       683.10
  112.55        2950.25           1988         156.00       678.74
  112.58        2950.50           1992         163.00       709.26
  112.61        2950.75           1996         155.00       674.38
  112.64        2951.00           1999         165.00       717.98
  112.67        2951.25           2003         171.00       744.14
  112.70        2951.50           2006         174.00       757.21
  112.74        2951.75           2010         179.00       779.01
  112.77        2952.00           2013         175.00       761.57
  112.80        2952.25           2017         166.00       722.34
  112.83        2952.50           2020         181.00       787.73
  112.86        2952.75           2024         173.00       752.85
  112.89        2953.00           2027         177.00       770.29
  112.92        2953.25           2031         178.00       774.65
  112.95        2953.50           2034         180.00       783.37
  112.98        2953.75           2038         184.00       800.81
  113.01        2954.00           2042         201.00       874.92
  113.04        2954.25           2045         192.00       835.68
  113.07        2954.50           2049         189.00       822.60
  113.10        2954.75           2052         207.00       901.08
  113.13        2955.00           2056         192.00       835.68
  113.16        2955.25           2059         207.00       901.08
  113.19        2955.50           2063         194.00       844.40
  113.22        2955.75           2066         196.00       853.12
  113.26        2956.00           2070         200.00       870.56
  113.29        2956.25           2074         207.00       901.08
  113.32        2956.50           2077         200.00       870.56
  113.35        2956.75           2081         206.00       896.72
  113.38        2957.00           2084         236.00      1027.50
  113.41        2957.25           2088         213.00       927.23
  113.44        2957.50           2091         214.00       931.59
  113.47        2957.75           2095         225.00       979.55
  113.50        2958.00           2098         233.00      1014.42
  113.53        2958.25           2102         242.00      1053.66
  113.56        2958.50           2105         245.00      1066.74
  113.59        2958.75           2109         245.00      1066.74
  113.62        2959.00           2113         268.00      1167.01
  113.65        2959.25           2116         279.00      1214.96
  113.68        2959.50           2120         273.00      1188.80
  113.71        2959.75           2123         287.00      1249.84
  113.74        2960.00           2127         288.00      1254.20
  113.78        2960.25           2130         291.00      1267.28
  113.81        2960.50           2134         305.00      1328.31
  113.84        2960.75           2137         311.00      1354.47
  113.87        2961.00           2141         325.00      1415.50
  113.90        2961.25           2145         348.00      1515.78
  113.93        2961.50           2148         485.00      2113.06
  113.96        2961.75           2152        1145.00      4990.87
  113.99        2962.00           2155        2501.00     10905.33
  114.02        2962.25           2159        5888.00     25689.40
  114.05        2962.50           2162        8368.00     36524.45
  114.08        2962.75           2166       12027.00     52526.00
  114.11        2963.00           2169       15159.00     66237.53
  114.14        2963.25           2173       19474.00     85150.33
  114.17        2963.50           2177       23041.00    100804.10
  114.20        2963.75           2180       25657.00    112295.70
  114.23        2964.00           2184       28891.00    126515.20
  114.27        2964.25           2187       31092.00    136201.10
  114.30        2964.50           2191       34271.00    150202.80
  114.33        2964.75           2194       36799.00    161347.30
  114.36        2965.00           2198       40392.00    177202.20
  114.39        2965.25           2201       43199.00    189601.40
  114.42        2965.50           2205       47338.00    207904.70
  114.45        2965.75           2209       50757.00    223042.30
  114.48        2966.00           2212       52958.00    232795.90
  114.51        2966.25           2216       54799.00    240959.60
  114.54        2966.50           2219       55052.00    242081.90
  114.57        2966.75           2223       55335.00    243337.30
  114.60        2967.00           2226       55305.00    243204.20
  114.63        2967.25           2230       55348.00    243395.00
  114.66        2967.50           2233       55290.00    243137.60
  114.69        2967.75           2237       55154.00    242534.30
  114.72        2968.00           2241       54179.00    238209.70
  114.75        2968.25           2244       51754.00    227459.60
  114.78        2968.50           2248       47966.00    210683.90
  114.82        2968.75           2251       45463.00    199610.10
  114.85        2969.00           2255       41929.00    183990.20
  114.88        2969.25           2258       39285.00    172315.40
  114.91        2969.50           2262       35348.00    154949.60
  114.94        2969.75           2265       32489.00    142352.30
  114.97        2970.00           2269       28669.00    125538.60
  115.00        2970.25           2273       25436.00    111324.50
  115.03        2970.50           2276       22738.00     99473.72
  115.06        2970.75           2280       18862.00     82466.35
  115.09        2971.00           2283       16302.00     71244.83
  115.12        2971.25           2287       13227.00     57777.86
  115.15        2971.50           2290       10974.00     47919.13
  115.18        2971.75           2294        7834.00     34190.71
  115.21        2972.00           2297        5353.00     23353.10
  115.24        2972.25           2301        2379.00     10373.10
  115.27        2972.50           2305         766.00      3338.24
  115.30        2972.75           2308         431.00      1877.63
  115.34        2973.00           2312         335.00      1459.10
  115.37        2973.25           2315         339.00      1476.54
  115.40        2973.50           2319         333.00      1450.38
  115.43        2973.75           2322         315.00      1371.91
  115.46        2974.00           2326         313.00      1363.19
  115.49        2974.25           2329         302.00      1315.23
  115.52        2974.50           2333         286.00      1245.48
  115.55        2974.75           2337         277.00      1206.24
  115.58        2975.00           2340         296.00      1289.07
  115.61        2975.25           2344         284.00      1236.76
  115.64        2975.50           2347         252.00      1097.25
  115.67        2975.75           2351         251.00      1092.89
  115.70        2976.00           2354         246.00      1071.10
  115.73        2976.25           2358         230.00      1001.34
  115.76        2976.50           2362         254.00      1105.97
  115.79        2976.75           2365         236.00      1027.50
  115.82        2977.00           2369         252.00      1097.25
  115.86        2977.25           2372         236.00      1027.50
  115.89        2977.50           2376         213.00       927.23
  115.92        2977.75           2379         221.00       962.11
  115.95        2978.00           2383         212.00       922.87
  115.98        2978.25           2387         206.00       896.72
  116.01        2978.50           2390         205.00       892.36
  116.04        2978.75           2394         206.00       896.72
  116.07        2979.00           2397         200.00       870.56
  116.10        2979.25           2401         199.00       866.20
  116.13        2979.50           2404         195.00       848.76
  116.16        2979.75           2408         187.00       813.89
  116.19        2980.00           2411         201.00       874.92
  116.22        2980.25           2415         189.00       822.60
  116.25        2980.50           2419         194.00       844.40
  116.28        2980.75           2422         188.00       818.25
  116.31        2981.00           2426         188.00       818.25
  116.34        2981.25           2429         180.00       783.37
  116.38        2981.50           2433         170.00       739.78
  116.41        2981.75           2436         181.00       787.73
  116.44        2982.00           2440         172.00       748.49
  116.47        2982.25           2444         169.00       735.42
  116.50        2982.50           2447         180.00       783.37
  116.53        2982.75           2451         170.00       739.78
  116.56        2983.00           2454         175.00       761.57
  116.59        2983.25           2458         162.00       704.90
  116.62        2983.50           2461         158.00       687.46
  116.65        2983.75           2465         167.00       726.70
  116.68        2984.00           2469         152.00       661.31
HS scan finished at 01:56:54
end
