************************************************************
  HS Scan of (1) Internal mercury lamp
************************************************************
Integration time is 0.2294 seconds per sample
dh100217Santa_Cruz 28.4633 16.2557 2.94pr1014.0
************************************************************
Dead Time -------------------------  3.6E-08 
Number of Cycles Used -------------  4 
Starting Wavelength (Angstroms) ---  2950 
Final Wavelength (Angstoms) -------  2984 
Wavelength Increment (Angstroms) --  .25 
Filter Wheel #1 Position ---------- (1) Ground quartz diffuser (ND=2.32)
Filter Wheel #2 Position ---------- (1) Neutral Density 0.494



************************************************************
HS scan start time = 01:52:04
Dark Count =  .5 


Time (GMT)  Wavelength (Ang)  Step Number  Raw Counts  Counts/Second

  112.82        2950.00           1985         160.00       695.31
  113.01        2950.25           1988         166.00       721.47
  113.04        2950.50           1992         158.00       686.59
  113.07        2950.75           1996         159.00       690.95
  113.10        2951.00           1999         157.00       682.23
  113.13        2951.25           2003         161.00       699.67
  113.16        2951.50           2006         174.00       756.34
  113.19        2951.75           2010         178.00       773.78
  113.22        2952.00           2013         172.00       747.62
  113.25        2952.25           2017         168.00       730.18
  113.28        2952.50           2020         178.00       773.78
  113.31        2952.75           2024         160.00       695.31
  113.34        2953.00           2027         171.00       743.26
  113.37        2953.25           2031         184.00       799.94
  113.40        2953.50           2034         174.00       756.34
  113.43        2953.75           2038         178.00       773.78
  113.46        2954.00           2042         182.00       791.22
  113.49        2954.25           2045         189.00       821.73
  113.53        2954.50           2049         185.00       804.30
  113.56        2954.75           2052         183.00       795.58
  113.59        2955.00           2056         197.00       856.61
  113.62        2955.25           2059         188.00       817.37
  113.65        2955.50           2063         184.00       799.94
  113.68        2955.75           2066         201.00       874.05
  113.71        2956.00           2070         209.00       908.92
  113.74        2956.25           2074         202.00       878.41
  113.77        2956.50           2077         217.00       943.80
  113.80        2956.75           2081         198.00       860.97
  113.83        2957.00           2084         216.00       939.44
  113.86        2957.25           2088         209.00       908.92
  113.89        2957.50           2091         235.00      1022.27
  113.92        2957.75           2095         227.00       987.39
  113.95        2958.00           2098         239.00      1039.71
  113.98        2958.25           2102         233.00      1013.55
  114.02        2958.50           2105         269.00      1170.49
  114.05        2958.75           2109         266.00      1157.42
  114.08        2959.00           2113         259.00      1126.90
  114.11        2959.25           2116         266.00      1157.42
  114.14        2959.50           2120         281.00      1222.81
  114.17        2959.75           2123         271.00      1179.21
  114.20        2960.00           2127         298.00      1296.92
  114.23        2960.25           2130         271.00      1179.21
  114.26        2960.50           2134         304.00      1323.08
  114.29        2960.75           2137         294.00      1279.48
  114.32        2961.00           2141         331.00      1440.79
  114.35        2961.25           2145         511.00      2225.55
  114.38        2961.50           2148         891.00      3882.41
  114.41        2961.75           2152        2868.00     12505.63
  114.44        2962.00           2155        5005.00     21832.76
  114.47        2962.25           2159        8098.00     35343.55
  114.50        2962.50           2162       10345.00     45167.11
  114.54        2962.75           2166       13544.00     59164.68
  114.57        2963.00           2169       16375.00     71563.81
  114.60        2963.25           2173       19719.00     86224.07
  114.63        2963.50           2177       23326.00    102054.70
  114.66        2963.75           2180       25770.00    112791.40
  114.69        2964.00           2184       28527.00    124913.10
  114.72        2964.25           2187       30868.00    135214.10
  114.75        2964.50           2191       33819.00    148210.20
  114.78        2964.75           2194       35937.00    157545.30
  114.81        2965.00           2198       39437.00    172985.40
  114.84        2965.25           2201       41793.00    183388.50
  114.87        2965.50           2205       45149.00    198220.70
  114.90        2965.75           2209       47871.00    210262.60
  114.93        2966.00           2212       49742.00    218545.80
  114.96        2966.25           2216       51365.00    225735.00
  114.99        2966.50           2219       51879.00    228012.60
  115.02        2966.75           2223       52061.00    228819.20
  115.06        2967.00           2226       52104.00    229009.70
  115.09        2967.25           2230       52121.00    229085.10
  115.12        2967.50           2233       52294.00    229851.80
  115.15        2967.75           2237       51751.00    227445.40
  115.18        2968.00           2241       50966.00    223967.30
  115.21        2968.25           2244       48802.00    214383.60
  115.24        2968.50           2248       44564.00    195634.10
  115.27        2968.75           2251       42201.00    185190.90
  115.30        2969.00           2255       38503.00    168863.40
  115.33        2969.25           2258       35991.00    157783.40
  115.36        2969.50           2262       32836.00    143879.80
  115.39        2969.75           2265       30654.00    134272.20
  115.42        2970.00           2269       27027.00    118316.80
  115.45        2970.25           2273       23253.00    101734.20
  115.48        2970.50           2276       20343.00     88961.44
  115.51        2970.75           2280       16952.00     74092.31
  115.54        2971.00           2283       14685.00     64160.67
  115.58        2971.25           2287       11582.00     50578.06
  115.61        2971.50           2290        9281.00     40514.59
  115.64        2971.75           2294        6716.00     29305.10
  115.67        2972.00           2297        4644.00     20256.70
  115.70        2972.25           2301        1816.00      7916.38
  115.73        2972.50           2305         563.00      2452.27
  115.76        2972.75           2308         387.00      1684.93
  115.79        2973.00           2312         363.00      1580.30
  115.82        2973.25           2315         304.00      1323.08
  115.85        2973.50           2319         312.00      1357.96
  115.88        2973.75           2322         290.00      1262.05
  115.91        2974.00           2326         290.00      1262.05
  115.94        2974.25           2329         308.00      1340.52
  115.97        2974.50           2333         267.00      1161.77
  116.00        2974.75           2337         269.00      1170.49
  116.03        2975.00           2340         260.00      1131.26
  116.06        2975.25           2344         248.00      1078.94
  116.09        2975.50           2347         276.00      1201.01
  116.13        2975.75           2351         266.00      1157.42
  116.16        2976.00           2354         244.00      1061.51
  116.19        2976.25           2358         230.00      1000.47
  116.22        2976.50           2362         253.00      1100.74
  116.25        2976.75           2365         230.00      1000.47
  116.28        2977.00           2369         227.00       987.39
  116.31        2977.25           2372         246.00      1070.22
  116.34        2977.50           2376         215.00       935.08
  116.37        2977.75           2379         207.00       900.20
  116.40        2978.00           2383         206.00       895.84
  116.43        2978.25           2387         222.00       965.60
  116.46        2978.50           2390         197.00       856.61
  116.49        2978.75           2394         197.00       856.61
  116.52        2979.00           2397         190.00       826.09
  116.55        2979.25           2401         190.00       826.09
  116.58        2979.50           2404         184.00       799.94
  116.62        2979.75           2408         187.00       813.01
  116.65        2980.00           2411         184.00       799.94
  116.68        2980.25           2415         183.00       795.58
  116.71        2980.50           2419         186.00       808.65
  116.74        2980.75           2422         184.00       799.94
  116.77        2981.00           2426         184.00       799.94
  116.80        2981.25           2429         177.00       769.42
  116.83        2981.50           2433         174.00       756.34
  116.86        2981.75           2436         172.00       747.62
  116.89        2982.00           2440         173.00       751.98
  116.92        2982.25           2444         170.00       738.90
  116.95        2982.50           2447         161.00       699.67
  116.98        2982.75           2451         168.00       730.18
  117.01        2983.00           2454         162.00       704.03
  117.04        2983.25           2458         179.00       778.14
  117.07        2983.50           2461         157.00       682.23
  117.10        2983.75           2465         160.00       695.31
  117.13        2984.00           2469         171.00       743.26
HS scan finished at 01:57:21
end
