************************************************************
  HS Scan of (1) Internal mercury lamp
************************************************************
Integration time is 0.2294 seconds per sample
dh170217Santa_Cruz 28.4633 16.2557 2.94pr1014.0
************************************************************
Dead Time -------------------------  3.6E-08 
Number of Cycles Used -------------  4 
Starting Wavelength (Angstroms) ---  2950 
Final Wavelength (Angstoms) -------  2984 
Wavelength Increment (Angstroms) --  .25 
Filter Wheel #1 Position ---------- (1) Ground quartz diffuser (ND=2.32)
Filter Wheel #2 Position ---------- (1) Neutral Density 0.494



************************************************************
HS scan start time = 01:51:52
Dark Count =  .4 


Time (GMT)  Wavelength (Ang)  Step Number  Raw Counts  Counts/Second

  112.62        2950.00           1985         147.00       639.07
  112.80        2950.25           1988         156.00       678.31
  112.83        2950.50           1992         158.00       687.03
  112.86        2950.75           1996         175.00       761.14
  112.89        2951.00           1999         144.00       625.99
  112.93        2951.25           2003         166.00       721.90
  112.96        2951.50           2006         157.00       682.67
  112.99        2951.75           2010         173.00       752.42
  113.02        2952.00           2013         161.00       700.10
  113.05        2952.25           2017         177.00       769.86
  113.08        2952.50           2020         176.00       765.50
  113.11        2952.75           2024         180.00       782.93
  113.14        2953.00           2027         184.00       800.37
  113.17        2953.25           2031         181.00       787.29
  113.20        2953.50           2034         168.00       730.62
  113.23        2953.75           2038         188.00       817.81
  113.26        2954.00           2042         180.00       782.93
  113.29        2954.25           2045         173.00       752.42
  113.32        2954.50           2049         194.00       843.97
  113.35        2954.75           2052         187.00       813.45
  113.38        2955.00           2056         191.00       830.89
  113.41        2955.25           2059         200.00       870.12
  113.45        2955.50           2063         190.00       826.53
  113.48        2955.75           2066         192.00       835.25
  113.51        2956.00           2070         208.00       905.00
  113.54        2956.25           2074         203.00       883.20
  113.57        2956.50           2077         195.00       848.33
  113.60        2956.75           2081         208.00       905.00
  113.63        2957.00           2084         207.00       900.64
  113.66        2957.25           2088         224.00       974.75
  113.69        2957.50           2091         234.00      1018.35
  113.72        2957.75           2095         226.00       983.47
  113.75        2958.00           2098         239.00      1040.14
  113.78        2958.25           2102         250.00      1088.10
  113.81        2958.50           2105         215.00       935.52
  113.84        2958.75           2109         240.00      1044.50
  113.87        2959.00           2113         251.00      1092.46
  113.90        2959.25           2116         240.00      1044.50
  113.93        2959.50           2120         271.00      1179.65
  113.97        2959.75           2123         297.00      1293.00
  114.00        2960.00           2127         283.00      1231.96
  114.03        2960.25           2130         291.00      1266.84
  114.06        2960.50           2134         311.00      1354.03
  114.09        2960.75           2137         310.00      1349.67
  114.12        2961.00           2141         328.00      1428.15
  114.15        2961.25           2145         555.00      2417.82
  114.18        2961.50           2148        1102.00      4802.92
  114.21        2961.75           2152        3359.00     14648.53
  114.24        2962.00           2155        5425.00     23667.06
  114.27        2962.25           2159        8607.00     37568.65
  114.30        2962.50           2162       11078.00     48373.62
  114.33        2962.75           2166       14224.00     62142.35
  114.36        2963.00           2169       16707.00     73019.06
  114.39        2963.25           2173       20396.00     89194.41
  114.42        2963.50           2177       23407.00    102410.90
  114.45        2963.75           2180       26101.00    114246.60
  114.49        2964.00           2184       28718.00    125753.70
  114.52        2964.25           2187       30935.00    135509.50
  114.55        2964.50           2191       34055.00    149250.50
  114.58        2964.75           2194       36412.00    159640.20
  114.61        2965.00           2198       39642.00    173890.80
  114.64        2965.25           2201       42125.00    184855.60
  114.67        2965.50           2205       45693.00    200626.90
  114.70        2965.75           2209       48800.00    214375.20
  114.73        2966.00           2212       50693.00    222758.30
  114.76        2966.25           2216       51974.00    228434.10
  114.79        2966.50           2219       52468.00    230623.50
  114.82        2966.75           2223       52330.00    230011.90
  114.85        2967.00           2226       52315.00    229945.30
  114.88        2967.25           2230       52474.00    230650.10
  114.91        2967.50           2233       52231.00    229573.10
  114.94        2967.75           2237       51700.00    227219.90
  114.97        2968.00           2241       50588.00    222293.20
  115.01        2968.25           2244       48127.00    211396.10
  115.04        2968.50           2248       44389.00    194860.90
  115.07        2968.75           2251       41731.00    183115.10
  115.10        2969.00           2255       38298.00    167959.40
  115.13        2969.25           2258       35481.00    155535.40
  115.16        2969.50           2262       31930.00    139890.20
  115.19        2969.75           2265       29567.00    129488.90
  115.22        2970.00           2269       26573.00    116321.30
  115.25        2970.25           2273       23430.00    102511.90
  115.28        2970.50           2276       20622.00     90185.97
  115.31        2970.75           2280       17340.00     75793.28
  115.34        2971.00           2283       14832.00     64804.89
  115.37        2971.25           2287       11700.00     51094.77
  115.40        2971.50           2290        9238.00     40327.03
  115.43        2971.75           2294        6164.00     26894.38
  115.46        2972.00           2297        4193.00     18288.41
  115.49        2972.25           2301        1605.00      6996.53
  115.53        2972.50           2305         488.00      2125.71
  115.56        2972.75           2308         369.00      1606.89
  115.59        2973.00           2312         303.00      1319.16
  115.62        2973.25           2315         316.00      1375.83
  115.65        2973.50           2319         312.00      1358.39
  115.68        2973.75           2322         302.00      1314.80
  115.71        2974.00           2326         290.00      1262.48
  115.74        2974.25           2329         276.00      1201.45
  115.77        2974.50           2333         279.00      1214.53
  115.80        2974.75           2337         262.00      1140.41
  115.83        2975.00           2340         266.00      1157.85
  115.86        2975.25           2344         260.00      1131.69
  115.89        2975.50           2347         274.00      1192.73
  115.92        2975.75           2351         246.00      1070.66
  115.95        2976.00           2354         235.00      1022.71
  115.98        2976.25           2358         239.00      1040.14
  116.01        2976.50           2362         225.00       979.11
  116.05        2976.75           2365         224.00       974.75
  116.08        2977.00           2369         218.00       948.59
  116.11        2977.25           2372         205.00       891.92
  116.14        2977.50           2376         203.00       883.20
  116.17        2977.75           2379         231.00      1005.27
  116.20        2978.00           2383         208.00       905.00
  116.23        2978.25           2387         197.00       857.04
  116.26        2978.50           2390         197.00       857.04
  116.29        2978.75           2394         211.00       918.08
  116.32        2979.00           2397         215.00       935.52
  116.35        2979.25           2401         193.00       839.61
  116.38        2979.50           2404         194.00       843.97
  116.41        2979.75           2408         197.00       857.04
  116.44        2980.00           2411         187.00       813.45
  116.47        2980.25           2415         180.00       782.93
  116.50        2980.50           2419         171.00       743.70
  116.53        2980.75           2422         186.00       809.09
  116.57        2981.00           2426         186.00       809.09
  116.60        2981.25           2429         179.00       778.57
  116.63        2981.50           2433         166.00       721.90
  116.66        2981.75           2436         160.00       695.75
  116.69        2982.00           2440         172.00       748.06
  116.72        2982.25           2444         165.00       717.54
  116.75        2982.50           2447         171.00       743.70
  116.78        2982.75           2451         155.00       673.95
  116.81        2983.00           2454         165.00       717.54
  116.84        2983.25           2458         155.00       673.95
  116.87        2983.50           2461         164.00       713.18
  116.90        2983.75           2465         168.00       730.62
  116.93        2984.00           2469         163.00       708.82
HS scan finished at 01:57:09
end
