************************************************************
  HS Scan of (1) Internal mercury lamp
************************************************************
Integration time is 0.2294 seconds per sample
dh240217Santa_Cruz 28.4633 16.2557 2.92pr1014.0
************************************************************
Dead Time -------------------------  3.6E-08 
Number of Cycles Used -------------  4 
Starting Wavelength (Angstroms) ---  2950 
Final Wavelength (Angstoms) -------  2984 
Wavelength Increment (Angstroms) --  .25 
Filter Wheel #1 Position ---------- (1) Ground quartz diffuser (ND=2.32)
Filter Wheel #2 Position ---------- (1) Neutral Density 0.494



************************************************************
HS scan start time = 01:51:04
Dark Count =  .6 


Time (GMT)  Wavelength (Ang)  Step Number  Raw Counts  Counts/Second

  111.83        2950.00           1985         175.00       760.26
  112.01        2950.25           1988         167.00       725.39
  112.04        2950.50           1992         164.00       712.31
  112.07        2950.75           1996         176.00       764.62
  112.10        2951.00           1999         163.00       707.95
  112.13        2951.25           2003         176.00       764.62
  112.16        2951.50           2006         183.00       795.14
  112.19        2951.75           2010         179.00       777.70
  112.22        2952.00           2013         176.00       764.62
  112.25        2952.25           2017         180.00       782.06
  112.29        2952.50           2020         182.00       790.78
  112.32        2952.75           2024         192.00       834.38
  112.35        2953.00           2027         188.00       816.94
  112.38        2953.25           2031         202.00       877.97
  112.41        2953.50           2034         200.00       869.25
  112.44        2953.75           2038         190.00       825.66
  112.47        2954.00           2042         197.00       856.17
  112.50        2954.25           2045         200.00       869.25
  112.53        2954.50           2049         202.00       877.97
  112.56        2954.75           2052         196.00       851.81
  112.59        2955.00           2056         207.00       899.77
  112.62        2955.25           2059         205.00       891.05
  112.65        2955.50           2063         212.00       921.56
  112.68        2955.75           2066         213.00       925.92
  112.71        2956.00           2070         210.00       912.85
  112.74        2956.25           2074         237.00      1030.55
  112.77        2956.50           2077         241.00      1047.99
  112.81        2956.75           2081         232.00      1008.76
  112.84        2957.00           2084         222.00       965.16
  112.87        2957.25           2088         247.00      1074.15
  112.90        2957.50           2091         245.00      1065.43
  112.93        2957.75           2095         248.00      1078.51
  112.96        2958.00           2098         240.00      1043.63
  112.99        2958.25           2102         274.00      1191.86
  113.02        2958.50           2105         280.00      1218.01
  113.05        2958.75           2109         250.00      1087.23
  113.08        2959.00           2113         265.00      1152.62
  113.11        2959.25           2116         275.00      1196.22
  113.14        2959.50           2120         285.00      1239.81
  113.17        2959.75           2123         289.00      1257.25
  113.20        2960.00           2127         288.00      1252.89
  113.23        2960.25           2130         305.00      1327.00
  113.26        2960.50           2134         315.00      1370.60
  113.29        2960.75           2137         327.00      1422.92
  113.32        2961.00           2141         343.00      1492.67
  113.36        2961.25           2145         499.00      2172.79
  113.39        2961.50           2148         910.00      3964.82
  113.42        2961.75           2152        2824.00     12313.22
  113.45        2962.00           2155        5113.00     22303.86
  113.48        2962.25           2159        8851.00     38634.35
  113.51        2962.50           2162       12044.00     52599.07
  113.54        2962.75           2166       15776.00     68938.98
  113.57        2963.00           2169       18616.00     81386.33
  113.60        2963.25           2173       22309.00     97588.99
  113.63        2963.50           2177       25707.00    112514.10
  113.66        2963.75           2180       28297.00    123901.00
  113.69        2964.00           2184       32148.00    140849.30
  113.72        2964.25           2187       34829.00    152660.60
  113.75        2964.50           2191       38084.00    167014.30
  113.78        2964.75           2194       40526.00    177792.60
  113.81        2965.00           2198       43956.00    192945.90
  113.84        2965.25           2201       46692.00    205045.10
  113.88        2965.50           2205       49159.00    215963.70
  113.91        2965.75           2209       52303.00    229891.30
  113.94        2966.00           2212       54897.00    241392.90
  113.97        2966.25           2216       57718.00    253912.00
  114.00        2966.50           2219       58679.00    258179.30
  114.03        2966.75           2223       59034.00    259756.00
  114.06        2967.00           2226       58945.00    259360.70
  114.09        2967.25           2230       59043.00    259796.00
  114.12        2967.50           2233       58870.00    259027.60
  114.15        2967.75           2237       58380.00    256851.40
  114.18        2968.00           2241       56433.00    248208.00
  114.21        2968.25           2244       54669.00    240381.60
  114.24        2968.50           2248       52373.00    230201.50
  114.27        2968.75           2251       49200.00    216145.30
  114.30        2969.00           2255       45691.00    200617.20
  114.33        2969.25           2258       42751.00    187620.40
  114.36        2969.50           2262       38716.00    169802.90
  114.40        2969.75           2265       35910.00    157425.80
  114.43        2970.00           2269       31969.00    140061.00
  114.46        2970.25           2273       28424.00    124459.60
  114.49        2970.50           2276       25859.00    113182.10
  114.52        2970.75           2280       22446.00     98190.42
  114.55        2971.00           2283       19418.00     84903.41
  114.58        2971.25           2287       15411.00     67340.04
  114.61        2971.50           2290       12957.00     56594.71
  114.64        2971.75           2294        9334.00     40745.87
  114.67        2972.00           2297        6467.00     28216.97
  114.70        2972.25           2301        2985.00     13015.69
  114.73        2972.50           2305        1008.00      4392.15
  114.76        2972.75           2308         473.00      2059.44
  114.79        2973.00           2312         390.00      1697.58
  114.82        2973.25           2315         330.00      1435.99
  114.85        2973.50           2319         343.00      1492.67
  114.88        2973.75           2322         336.00      1462.15
  114.92        2974.00           2326         300.00      1305.21
  114.95        2974.25           2329         310.00      1348.80
  114.98        2974.50           2333         306.00      1331.36
  115.01        2974.75           2337         288.00      1252.89
  115.04        2975.00           2340         279.00      1213.65
  115.07        2975.25           2344         281.00      1222.37
  115.10        2975.50           2347         267.00      1161.34
  115.13        2975.75           2351         280.00      1218.01
  115.16        2976.00           2354         252.00      1095.95
  115.19        2976.25           2358         293.00      1274.69
  115.22        2976.50           2362         245.00      1065.43
  115.25        2976.75           2365         252.00      1095.95
  115.28        2977.00           2369         287.00      1248.53
  115.31        2977.25           2372         223.00       969.52
  115.34        2977.50           2376         247.00      1074.15
  115.37        2977.75           2379         236.00      1026.19
  115.40        2978.00           2383         217.00       943.36
  115.44        2978.25           2387         235.00      1021.83
  115.47        2978.50           2390         217.00       943.36
  115.50        2978.75           2394         210.00       912.85
  115.53        2979.00           2397         213.00       925.92
  115.56        2979.25           2401         218.00       947.72
  115.59        2979.50           2404         202.00       877.97
  115.62        2979.75           2408         211.00       917.21
  115.65        2980.00           2411         194.00       843.09
  115.68        2980.25           2415         205.00       891.05
  115.71        2980.50           2419         200.00       869.25
  115.74        2980.75           2422         199.00       864.89
  115.77        2981.00           2426         185.00       803.86
  115.80        2981.25           2429         183.00       795.14
  115.83        2981.50           2433         193.00       838.73
  115.86        2981.75           2436         185.00       803.86
  115.89        2982.00           2440         189.00       821.30
  115.92        2982.25           2444         176.00       764.62
  115.96        2982.50           2447         178.00       773.34
  115.99        2982.75           2451         178.00       773.34
  116.02        2983.00           2454         182.00       790.78
  116.05        2983.25           2458         169.00       734.11
  116.08        2983.50           2461         192.00       834.38
  116.11        2983.75           2465         167.00       725.39
  116.14        2984.00           2469         172.00       747.19
HS scan finished at 01:56:21
end
