************************************************************
  HS Scan of (1) Internal mercury lamp
************************************************************
Integration time is 0.2294 seconds per sample
dh030317Santa_Cruz 28.4633 16.2557 2.92pr1014.0
************************************************************
Dead Time -------------------------  3.6E-08 
Number of Cycles Used -------------  4 
Starting Wavelength (Angstroms) ---  2950 
Final Wavelength (Angstoms) -------  2984 
Wavelength Increment (Angstroms) --  .25 
Filter Wheel #1 Position ---------- (1) Ground quartz diffuser (ND=2.32)
Filter Wheel #2 Position ---------- (1) Neutral Density 0.494



************************************************************
HS scan start time = 01:51:22
Dark Count =  .5 


Time (GMT)  Wavelength (Ang)  Step Number  Raw Counts  Counts/Second

  112.12        2950.00           1985         170.00       738.90
  112.30        2950.25           1988         142.00       616.84
  112.33        2950.50           1992         166.00       721.47
  112.36        2950.75           1996         165.00       717.11
  112.39        2951.00           1999         156.00       677.87
  112.42        2951.25           2003         154.00       669.15
  112.45        2951.50           2006         168.00       730.18
  112.48        2951.75           2010         147.00       638.64
  112.51        2952.00           2013         168.00       730.18
  112.55        2952.25           2017         167.00       725.83
  112.58        2952.50           2020         165.00       717.11
  112.61        2952.75           2024         156.00       677.87
  112.64        2953.00           2027         166.00       721.47
  112.67        2953.25           2031         167.00       725.83
  112.70        2953.50           2034         174.00       756.34
  112.73        2953.75           2038         170.00       738.90
  112.76        2954.00           2042         168.00       730.18
  112.79        2954.25           2045         175.00       760.70
  112.82        2954.50           2049         186.00       808.65
  112.85        2954.75           2052         179.00       778.14
  112.88        2955.00           2056         180.00       782.50
  112.91        2955.25           2059         171.00       743.26
  112.94        2955.50           2063         183.00       795.58
  112.97        2955.75           2066         188.00       817.37
  113.00        2956.00           2070         189.00       821.73
  113.03        2956.25           2074         216.00       939.44
  113.06        2956.50           2077         199.00       865.33
  113.10        2956.75           2081         193.00       839.17
  113.13        2957.00           2084         192.00       834.81
  113.16        2957.25           2088         215.00       935.08
  113.19        2957.50           2091         222.00       965.60
  113.22        2957.75           2095         228.00       991.75
  113.25        2958.00           2098         231.00      1004.83
  113.28        2958.25           2102         227.00       987.39
  113.31        2958.50           2105         250.00      1087.66
  113.34        2958.75           2109         254.00      1105.10
  113.37        2959.00           2113         256.00      1113.82
  113.40        2959.25           2116         270.00      1174.85
  113.43        2959.50           2120         248.00      1078.94
  113.46        2959.75           2123         258.00      1122.54
  113.49        2960.00           2127         273.00      1187.93
  113.52        2960.25           2130         266.00      1157.42
  113.55        2960.50           2134         293.00      1275.12
  113.58        2960.75           2137         281.00      1222.81
  113.62        2961.00           2141         310.00      1349.24
  113.65        2961.25           2145         446.00      1942.16
  113.68        2961.50           2148         829.00      3612.07
  113.71        2961.75           2152        2650.00     11554.50
  113.74        2962.00           2155        4703.00     20514.27
  113.77        2962.25           2159        7722.00     33700.41
  113.80        2962.50           2162       10368.00     45267.70
  113.83        2962.75           2166       13666.00     59698.79
  113.86        2963.00           2169       16100.00     70358.90
  113.89        2963.25           2173       19203.00     83960.90
  113.92        2963.50           2177       22604.00     98884.52
  113.95        2963.75           2180       24815.00    108595.00
  113.98        2964.00           2184       28007.00    122626.00
  114.01        2964.25           2187       30459.00    133413.90
  114.04        2964.50           2191       33504.00    146822.40
  114.07        2964.75           2194       35763.00    156778.20
  114.10        2965.00           2198       38795.00    170152.00
  114.14        2965.25           2201       41349.00    181427.40
  114.17        2965.50           2205       44325.00    194577.50
  114.20        2965.75           2209       47278.00    207638.30
  114.23        2966.00           2212       48911.00    214866.20
  114.26        2966.25           2216       50648.00    222558.50
  114.29        2966.50           2219       51384.00    225819.20
  114.32        2966.75           2223       51548.00    226545.90
  114.35        2967.00           2226       51802.00    227671.40
  114.38        2967.25           2230       51804.00    227680.30
  114.41        2967.50           2233       51729.00    227347.90
  114.44        2967.75           2237       51466.00    226182.60
  114.47        2968.00           2241       50331.00    221154.40
  114.50        2968.25           2244       48534.00    213197.20
  114.53        2968.50           2248       45620.00    200303.60
  114.56        2968.75           2251       42918.00    188358.80
  114.59        2969.00           2255       39383.00    172747.10
  114.62        2969.25           2258       37064.00    162515.20
  114.66        2969.50           2262       34139.00    149620.20
  114.69        2969.75           2265       32059.00    140457.80
  114.72        2970.00           2269       29131.00    127570.10
  114.75        2970.25           2273       25107.00    109878.00
  114.78        2970.50           2276       22578.00     98770.38
  114.81        2970.75           2280       19004.00     83088.18
  114.84        2971.00           2283       16529.00     72238.63
  114.87        2971.25           2287       13232.00     57798.87
  114.90        2971.50           2290       10881.00     47511.45
  114.93        2971.75           2294        7631.00     33302.76
  114.96        2972.00           2297        5281.00     23037.85
  114.99        2972.25           2301        2524.00     11004.80
  115.02        2972.50           2305         928.00      4043.74
  115.05        2972.75           2308         456.00      1985.76
  115.08        2973.00           2312         318.00      1384.11
  115.11        2973.25           2315         289.00      1257.69
  115.14        2973.50           2319         299.00      1301.28
  115.18        2973.75           2322         273.00      1187.93
  115.21        2974.00           2326         277.00      1205.37
  115.24        2974.25           2329         275.00      1196.65
  115.27        2974.50           2333         269.00      1170.49
  115.30        2974.75           2337         240.00      1044.07
  115.33        2975.00           2340         238.00      1035.35
  115.36        2975.25           2344         286.00      1244.61
  115.39        2975.50           2347         242.00      1052.79
  115.42        2975.75           2351         242.00      1052.79
  115.45        2976.00           2354         241.00      1048.43
  115.48        2976.25           2358         257.00      1118.18
  115.51        2976.50           2362         241.00      1048.43
  115.54        2976.75           2365         217.00       943.80
  115.57        2977.00           2369         225.00       978.67
  115.60        2977.25           2372         210.00       913.28
  115.63        2977.50           2376         210.00       913.28
  115.66        2977.75           2379         206.00       895.84
  115.69        2978.00           2383         218.00       948.16
  115.73        2978.25           2387         190.00       826.09
  115.76        2978.50           2390         196.00       852.25
  115.79        2978.75           2394         178.00       773.78
  115.82        2979.00           2397         182.00       791.22
  115.85        2979.25           2401         200.00       869.69
  115.88        2979.50           2404         185.00       804.30
  115.91        2979.75           2408         191.00       830.45
  115.94        2980.00           2411         176.00       765.06
  115.97        2980.25           2415         171.00       743.26
  116.00        2980.50           2419         187.00       813.01
  116.03        2980.75           2422         172.00       747.62
  116.06        2981.00           2426         178.00       773.78
  116.09        2981.25           2429         177.00       769.42
  116.12        2981.50           2433         173.00       751.98
  116.15        2981.75           2436         157.00       682.23
  116.18        2982.00           2440         161.00       699.67
  116.21        2982.25           2444         162.00       704.03
  116.25        2982.50           2447         161.00       699.67
  116.28        2982.75           2451         163.00       708.39
  116.31        2983.00           2454         158.00       686.59
  116.34        2983.25           2458         152.00       660.43
  116.37        2983.50           2461         155.00       673.51
  116.40        2983.75           2465         153.00       664.79
  116.43        2984.00           2469         176.00       765.06
HS scan finished at 01:56:39
end
