************************************************************
  HS Scan of (1) Internal mercury lamp
************************************************************
Integration time is 0.2294 seconds per sample
dh100317Santa_Cruz 28.4633 16.2557 3.25pr1014.0
************************************************************
Dead Time -------------------------  3.6E-08 
Number of Cycles Used -------------  4 
Starting Wavelength (Angstroms) ---  2950 
Final Wavelength (Angstoms) -------  2984 
Wavelength Increment (Angstroms) --  .25 
Filter Wheel #1 Position ---------- (1) Ground quartz diffuser (ND=2.32)
Filter Wheel #2 Position ---------- (1) Neutral Density 0.494



************************************************************
HS scan start time = 01:48:12
Dark Count =  1.3 


Time (GMT)  Wavelength (Ang)  Step Number  Raw Counts  Counts/Second

  108.96        2950.00           1985         132.00       569.76
  109.14        2950.25           1988         140.00       604.63
  109.17        2950.50           1992         129.00       556.68
  109.20        2950.75           1996         139.00       600.27
  109.23        2951.00           1999         141.00       608.99
  109.26        2951.25           2003         152.00       656.95
  109.29        2951.50           2006         140.00       604.63
  109.32        2951.75           2010         145.00       626.43
  109.35        2952.00           2013         142.00       613.35
  109.38        2952.25           2017         158.00       683.10
  109.41        2952.50           2020         148.00       639.51
  109.44        2952.75           2024         158.00       683.10
  109.47        2953.00           2027         145.00       626.43
  109.50        2953.25           2031         155.00       670.02
  109.53        2953.50           2034         154.00       665.67
  109.56        2953.75           2038         149.00       643.87
  109.60        2954.00           2042         165.00       713.62
  109.63        2954.25           2045         155.00       670.02
  109.66        2954.50           2049         161.00       696.18
  109.69        2954.75           2052         160.00       691.82
  109.72        2955.00           2056         166.00       717.98
  109.75        2955.25           2059         152.00       656.95
  109.78        2955.50           2063         161.00       696.18
  109.81        2955.75           2066         160.00       691.82
  109.84        2956.00           2070         172.00       744.14
  109.87        2956.25           2074         171.00       739.78
  109.90        2956.50           2077         171.00       739.78
  109.93        2956.75           2081         196.00       848.76
  109.96        2957.00           2084         185.00       800.81
  109.99        2957.25           2088         187.00       809.53
  110.02        2957.50           2091         204.00       883.64
  110.05        2957.75           2095         181.00       783.37
  110.08        2958.00           2098         197.00       853.12
  110.12        2958.25           2102         191.00       826.96
  110.15        2958.50           2105         202.00       874.92
  110.18        2958.75           2109         197.00       853.12
  110.21        2959.00           2113         240.00      1040.58
  110.24        2959.25           2116         244.00      1058.02
  110.27        2959.50           2120         221.00       957.75
  110.30        2959.75           2123         266.00      1153.93
  110.33        2960.00           2127         247.00      1071.10
  110.36        2960.25           2130         275.00      1193.16
  110.39        2960.50           2134         237.00      1027.50
  110.42        2960.75           2137         267.00      1158.29
  110.45        2961.00           2141         293.00      1271.64
  110.48        2961.25           2145         540.00      2348.50
  110.51        2961.50           2148        1178.00      5130.42
  110.54        2961.75           2152        3229.00     14077.32
  110.57        2962.00           2155        5247.00     22885.90
  110.60        2962.25           2159        8195.00     35763.98
  110.64        2962.50           2162       10751.00     46939.32
  110.67        2962.75           2166       13154.00     57453.94
  110.70        2963.00           2169       15475.00     67617.32
  110.73        2963.25           2173       18539.00     81045.62
  110.76        2963.50           2177       21449.00     93811.05
  110.79        2963.75           2180       23169.00    101361.80
  110.82        2964.00           2184       26123.00    114339.30
  110.85        2964.25           2187       28570.00    125098.70
  110.88        2964.50           2191       31497.00    137979.70
  110.91        2964.75           2194       33459.00    146620.60
  110.94        2965.00           2198       36330.00    159274.60
  110.97        2965.25           2201       38683.00    169654.20
  111.00        2965.50           2205       41555.00    182333.70
  111.03        2965.75           2209       44177.00    193919.70
  111.06        2966.00           2212       45479.00    199676.50
  111.09        2966.25           2216       46463.00    204028.90
  111.12        2966.50           2219       46857.00    205772.00
  111.15        2966.75           2223       46850.00    205741.00
  111.19        2967.00           2226       46772.00    205395.90
  111.22        2967.25           2230       46790.00    205475.50
  111.25        2967.50           2233       46719.00    205161.40
  111.28        2967.75           2237       46243.00    203055.60
  111.31        2968.00           2241       44244.00    194215.90
  111.34        2968.25           2244       42374.00    185951.60
  111.37        2968.50           2248       39620.00    173789.70
  111.40        2968.75           2251       37493.00    164403.90
  111.43        2969.00           2255       34231.00    150022.10
  111.46        2969.25           2258       32084.00    140564.40
  111.49        2969.50           2262       29297.00    128297.00
  111.52        2969.75           2265       27197.00    119060.70
  111.55        2970.00           2269       24435.00    106922.10
  111.58        2970.25           2273       21389.00     93547.72
  111.61        2970.50           2276       19301.00     84387.19
  111.64        2970.75           2280       16211.00     70841.74
  111.68        2971.00           2283       13928.00     60842.36
  111.71        2971.25           2287       10996.00     48010.98
  111.74        2971.50           2290        8857.00     38657.51
  111.77        2971.75           2294        5895.00     25715.60
  111.80        2972.00           2297        3649.00     15910.16
  111.83        2972.25           2301        1373.00      5980.80
  111.86        2972.50           2305         453.00      1969.19
  111.89        2972.75           2308         335.00      1454.74
  111.92        2973.00           2312         279.00      1210.60
  111.95        2973.25           2315         279.00      1210.60
  111.98        2973.50           2319         256.00      1110.33
  112.01        2973.75           2322         284.00      1232.40
  112.04        2974.00           2326         267.00      1158.29
  112.07        2974.25           2329         262.00      1136.49
  112.10        2974.50           2333         228.00       988.27
  112.13        2974.75           2337         230.00       996.98
  112.16        2975.00           2340         235.00      1018.78
  112.19        2975.25           2344         214.00       927.23
  112.23        2975.50           2347         208.00       901.08
  112.26        2975.75           2351         205.00       888.00
  112.29        2976.00           2354         200.00       866.20
  112.32        2976.25           2358         179.00       774.65
  112.35        2976.50           2362         198.00       857.48
  112.38        2976.75           2365         201.00       870.56
  112.41        2977.00           2369         190.00       822.60
  112.44        2977.25           2372         179.00       774.65
  112.47        2977.50           2376         192.00       831.32
  112.50        2977.75           2379         183.00       792.09
  112.53        2978.00           2383         168.00       726.70
  112.56        2978.25           2387         172.00       744.14
  112.59        2978.50           2390         175.00       757.21
  112.62        2978.75           2394         170.00       735.42
  112.65        2979.00           2397         173.00       748.49
  112.68        2979.25           2401         179.00       774.65
  112.71        2979.50           2404         162.00       700.54
  112.75        2979.75           2408         157.00       678.74
  112.78        2980.00           2411         158.00       683.10
  112.81        2980.25           2415         166.00       717.98
  112.84        2980.50           2419         147.00       635.15
  112.87        2980.75           2422         144.00       622.07
  112.90        2981.00           2426         156.00       674.38
  112.93        2981.25           2429         159.00       687.46
  112.96        2981.50           2433         136.00       587.20
  112.99        2981.75           2436         162.00       700.54
  113.02        2982.00           2440         150.00       648.23
  113.05        2982.25           2444         138.00       595.92
  113.08        2982.50           2447         147.00       635.15
  113.11        2982.75           2451         152.00       656.95
  113.14        2983.00           2454         147.00       635.15
  113.17        2983.25           2458         139.00       600.27
  113.20        2983.50           2461         159.00       687.46
  113.23        2983.75           2465         135.00       582.84
  113.27        2984.00           2469         159.00       687.46
HS scan finished at 01:53:29
end
