************************************************************
  HS Scan of (1) Internal mercury lamp
************************************************************
Integration time is 0.2294 seconds per sample
dh170317Santa_Cruz 28.4633 16.2557 2.9pr1014.0
************************************************************
Dead Time -------------------------  3.6E-08 
Number of Cycles Used -------------  4 
Starting Wavelength (Angstroms) ---  2950 
Final Wavelength (Angstoms) -------  2984 
Wavelength Increment (Angstroms) --  .25 
Filter Wheel #1 Position ---------- (1) Ground quartz diffuser (ND=2.32)
Filter Wheel #2 Position ---------- (1) Neutral Density 0.494



************************************************************
HS scan start time = 01:46:17
Dark Count =  .4 


Time (GMT)  Wavelength (Ang)  Step Number  Raw Counts  Counts/Second

  107.04        2950.00           1985         150.00       652.15
  107.22        2950.25           1988         150.00       652.15
  107.25        2950.50           1992         151.00       656.51
  107.28        2950.75           1996         152.00       660.87
  107.32        2951.00           1999         166.00       721.90
  107.35        2951.25           2003         170.00       739.34
  107.38        2951.50           2006         159.00       691.39
  107.41        2951.75           2010         156.00       678.31
  107.44        2952.00           2013         163.00       708.82
  107.47        2952.25           2017         142.00       617.28
  107.50        2952.50           2020         153.00       665.23
  107.53        2952.75           2024         175.00       761.14
  107.56        2953.00           2027         158.00       687.03
  107.59        2953.25           2031         174.00       756.78
  107.62        2953.50           2034         164.00       713.18
  107.65        2953.75           2038         171.00       743.70
  107.68        2954.00           2042         181.00       787.29
  107.71        2954.25           2045         177.00       769.86
  107.74        2954.50           2049         173.00       752.42
  107.77        2954.75           2052         171.00       743.70
  107.80        2955.00           2056         173.00       752.42
  107.84        2955.25           2059         181.00       787.29
  107.87        2955.50           2063         184.00       800.37
  107.90        2955.75           2066         186.00       809.09
  107.93        2956.00           2070         192.00       835.25
  107.96        2956.25           2074         196.00       852.69
  107.99        2956.50           2077         180.00       782.93
  108.02        2956.75           2081         200.00       870.12
  108.05        2957.00           2084         205.00       891.92
  108.08        2957.25           2088         202.00       878.84
  108.11        2957.50           2091         207.00       900.64
  108.14        2957.75           2095         206.00       896.28
  108.17        2958.00           2098         233.00      1013.99
  108.20        2958.25           2102         216.00       939.87
  108.23        2958.50           2105         225.00       979.11
  108.26        2958.75           2109         229.00       996.55
  108.29        2959.00           2113         240.00      1044.50
  108.32        2959.25           2116         246.00      1070.66
  108.36        2959.50           2120         243.00      1057.58
  108.39        2959.75           2123         235.00      1022.71
  108.42        2960.00           2127         260.00      1131.69
  108.45        2960.25           2130         258.00      1122.97
  108.48        2960.50           2134         262.00      1140.41
  108.51        2960.75           2137         268.00      1166.57
  108.54        2961.00           2141         271.00      1179.65
  108.57        2961.25           2145         297.00      1293.00
  108.60        2961.50           2148         331.00      1441.23
  108.63        2961.75           2152         657.00      2862.54
  108.66        2962.00           2155        1479.00      6447.01
  108.69        2962.25           2159        3583.00     15626.05
  108.72        2962.50           2162        5733.00     25012.05
  108.75        2962.75           2166        8681.00     37892.11
  108.78        2963.00           2169       11179.00     48815.44
  108.81        2963.25           2173       14591.00     63749.45
  108.84        2963.50           2177       17976.00     78581.18
  108.88        2963.75           2180       20515.00     89716.50
  108.91        2964.00           2184       23608.00    103293.60
  108.94        2964.25           2187       25705.00    112506.20
  108.97        2964.50           2191       28689.00    125626.20
  109.00        2964.75           2194       30881.00    135271.80
  109.03        2965.00           2198       34039.00    149180.00
  109.06        2965.25           2201       36419.00    159671.10
  109.09        2965.50           2205       40109.00    175952.40
  109.12        2965.75           2209       43915.00    192765.50
  109.15        2966.00           2212       46245.00    203068.50
  109.18        2966.25           2216       48512.00    213100.30
  109.21        2966.50           2219       49362.00    216863.50
  109.24        2966.75           2223       49706.00    218386.80
  109.27        2967.00           2226       49539.00    217647.20
  109.30        2967.25           2230       49525.00    217585.30
  109.33        2967.50           2233       49726.00    218475.30
  109.36        2967.75           2237       49273.00    216469.40
  109.40        2968.00           2241       48318.00    212241.50
  109.43        2968.25           2244       46145.00    202626.10
  109.46        2968.50           2248       42802.00    187846.70
  109.49        2968.75           2251       40559.00    177939.20
  109.52        2969.00           2255       37238.00    163283.10
  109.55        2969.25           2258       34752.00    152322.10
  109.58        2969.50           2262       31579.00    138344.70
  109.61        2969.75           2265       29085.00    127368.20
  109.64        2970.00           2269       25648.00    112255.70
  109.67        2970.25           2273       22284.00     97480.11
  109.70        2970.50           2276       19871.00     86891.25
  109.73        2970.75           2280       16678.00     72892.00
  109.76        2971.00           2283       14011.00     61209.71
  109.79        2971.25           2287       10945.00     47791.83
  109.82        2971.50           2290        8772.00     38289.88
  109.85        2971.75           2294        5810.00     25348.32
  109.88        2972.00           2297        3723.00     16237.04
  109.92        2972.25           2301        1496.00      6521.15
  109.95        2972.50           2305         562.00      2448.34
  109.98        2972.75           2308         334.00      1454.30
  110.01        2973.00           2312         295.00      1284.28
  110.04        2973.25           2315         299.00      1301.72
  110.07        2973.50           2319         296.00      1288.64
  110.10        2973.75           2322         273.00      1188.37
  110.13        2974.00           2326         257.00      1118.62
  110.16        2974.25           2329         259.00      1127.33
  110.19        2974.50           2333         270.00      1175.29
  110.22        2974.75           2337         246.00      1070.66
  110.25        2975.00           2340         262.00      1140.41
  110.28        2975.25           2344         231.00      1005.27
  110.31        2975.50           2347         246.00      1070.66
  110.34        2975.75           2351         224.00       974.75
  110.37        2976.00           2354         207.00       900.64
  110.40        2976.25           2358         207.00       900.64
  110.43        2976.50           2362         207.00       900.64
  110.47        2976.75           2365         206.00       896.28
  110.50        2977.00           2369         202.00       878.84
  110.53        2977.25           2372         196.00       852.69
  110.56        2977.50           2376         195.00       848.33
  110.59        2977.75           2379         195.00       848.33
  110.62        2978.00           2383         195.00       848.33
  110.65        2978.25           2387         180.00       782.93
  110.68        2978.50           2390         190.00       826.53
  110.71        2978.75           2394         175.00       761.14
  110.74        2979.00           2397         183.00       796.01
  110.77        2979.25           2401         172.00       748.06
  110.80        2979.50           2404         173.00       752.42
  110.83        2979.75           2408         189.00       822.17
  110.86        2980.00           2411         170.00       739.34
  110.89        2980.25           2415         164.00       713.18
  110.92        2980.50           2419         164.00       713.18
  110.96        2980.75           2422         165.00       717.54
  110.99        2981.00           2426         172.00       748.06
  111.02        2981.25           2429         158.00       687.03
  111.05        2981.50           2433         155.00       673.95
  111.08        2981.75           2436         146.00       634.71
  111.11        2982.00           2440         159.00       691.39
  111.14        2982.25           2444         162.00       704.46
  111.17        2982.50           2447         159.00       691.39
  111.20        2982.75           2451         145.00       630.35
  111.23        2983.00           2454         144.00       625.99
  111.26        2983.25           2458         143.00       621.64
  111.29        2983.50           2461         147.00       639.07
  111.32        2983.75           2465         145.00       630.35
  111.35        2984.00           2469         143.00       621.64
HS scan finished at 01:51:34
end
