************************************************************
  HS Scan of (1) Internal mercury lamp
************************************************************
Integration time is 0.2294 seconds per sample
dh240317Santa_Cruz 28.4633 16.2557 2.92pr1014.0
************************************************************
Dead Time -------------------------  3.6E-08 
Number of Cycles Used -------------  4 
Starting Wavelength (Angstroms) ---  2950 
Final Wavelength (Angstoms) -------  2984 
Wavelength Increment (Angstroms) --  .25 
Filter Wheel #1 Position ---------- (1) Ground quartz diffuser (ND=2.32)
Filter Wheel #2 Position ---------- (1) Neutral Density 0.494



************************************************************
HS scan start time = 01:44:13
Dark Count =  .4 


Time (GMT)  Wavelength (Ang)  Step Number  Raw Counts  Counts/Second

  104.98        2950.00           1985         151.00       656.51
  105.16        2950.25           1988         146.00       634.71
  105.19        2950.50           1992         158.00       687.03
  105.22        2950.75           1996         144.00       625.99
  105.25        2951.00           1999         139.00       604.20
  105.28        2951.25           2003         167.00       726.26
  105.31        2951.50           2006         152.00       660.87
  105.35        2951.75           2010         164.00       713.18
  105.38        2952.00           2013         161.00       700.10
  105.41        2952.25           2017         159.00       691.39
  105.44        2952.50           2020         137.00       595.48
  105.47        2952.75           2024         158.00       687.03
  105.50        2953.00           2027         161.00       700.10
  105.53        2953.25           2031         155.00       673.95
  105.56        2953.50           2034         163.00       708.82
  105.59        2953.75           2038         160.00       695.75
  105.62        2954.00           2042         166.00       721.90
  105.65        2954.25           2045         168.00       730.62
  105.68        2954.50           2049         157.00       682.67
  105.71        2954.75           2052         170.00       739.34
  105.74        2955.00           2056         173.00       752.42
  105.77        2955.25           2059         162.00       704.46
  105.80        2955.50           2063         166.00       721.90
  105.83        2955.75           2066         176.00       765.50
  105.87        2956.00           2070         171.00       743.70
  105.90        2956.25           2074         196.00       852.69
  105.93        2956.50           2077         192.00       835.25
  105.96        2956.75           2081         191.00       830.89
  105.99        2957.00           2084         177.00       769.86
  106.02        2957.25           2088         179.00       778.57
  106.05        2957.50           2091         191.00       830.89
  106.08        2957.75           2095         197.00       857.04
  106.11        2958.00           2098         194.00       843.97
  106.14        2958.25           2102         212.00       922.44
  106.17        2958.50           2105         231.00      1005.27
  106.20        2958.75           2109         205.00       891.92
  106.23        2959.00           2113         207.00       900.64
  106.26        2959.25           2116         244.00      1061.94
  106.29        2959.50           2120         226.00       983.47
  106.32        2959.75           2123         238.00      1035.78
  106.35        2960.00           2127         246.00      1070.66
  106.39        2960.25           2130         259.00      1127.33
  106.42        2960.50           2134         254.00      1105.54
  106.45        2960.75           2137         279.00      1214.53
  106.48        2961.00           2141         272.00      1184.01
  106.51        2961.25           2145         286.00      1245.04
  106.54        2961.50           2148         406.00      1768.20
  106.57        2961.75           2152         956.00      4166.27
  106.60        2962.00           2155        2213.00      9648.51
  106.63        2962.25           2159        4870.00     21243.79
  106.66        2962.50           2162        7139.00     31153.49
  106.69        2962.75           2166       10159.00     44354.12
  106.72        2963.00           2169       12399.00     54153.42
  106.75        2963.25           2173       15591.00     68129.41
  106.78        2963.50           2177       18403.00     80453.26
  106.81        2963.75           2180       20368.00     89071.56
  106.84        2964.00           2184       22960.00    100448.00
  106.87        2964.25           2187       25429.00    111293.30
  106.91        2964.50           2191       28671.00    125547.00
  106.94        2964.75           2194       30658.00    134290.20
  106.97        2965.00           2198       33709.00    147726.00
  107.00        2965.25           2201       36649.00    160685.40
  107.03        2965.50           2205       39594.00    173678.90
  107.06        2965.75           2209       42322.00    185725.90
  107.09        2966.00           2212       44270.00    194334.80
  107.12        2966.25           2216       46528.00    204320.40
  107.15        2966.50           2219       47119.00    206935.20
  107.18        2966.75           2223       47708.00    209541.60
  107.21        2967.00           2226       47377.00    208076.80
  107.24        2967.25           2230       47200.00    207293.60
  107.27        2967.50           2233       47811.00    209997.50
  107.30        2967.75           2237       47423.00    208280.40
  107.33        2968.00           2241       46114.00    202489.00
  107.36        2968.25           2244       43858.00    192513.60
  107.39        2968.50           2248       40888.00    179392.00
  107.43        2968.75           2251       38595.00    169269.90
  107.46        2969.00           2255       35421.00    155270.90
  107.49        2969.25           2258       32765.00    143567.50
  107.52        2969.50           2262       30096.00    131816.70
  107.55        2969.75           2265       27458.00    120212.20
  107.58        2970.00           2269       23899.00    104571.70
  107.61        2970.25           2273       20310.00     88817.10
  107.64        2970.50           2276       17969.00     78550.50
  107.67        2970.75           2280       14730.00     64358.18
  107.70        2971.00           2283       12321.00     53812.08
  107.73        2971.25           2287        9458.00     41288.88
  107.76        2971.50           2290        7559.00     32988.59
  107.79        2971.75           2294        4819.00     21021.14
  107.82        2972.00           2297        2660.00     11598.57
  107.85        2972.25           2301         911.00      3970.05
  107.88        2972.50           2305         372.00      1619.97
  107.91        2972.75           2308         317.00      1380.19
  107.95        2973.00           2312         282.00      1227.60
  107.98        2973.25           2315         281.00      1223.24
  108.01        2973.50           2319         289.00      1258.12
  108.04        2973.75           2322         243.00      1057.58
  108.07        2974.00           2326         275.00      1197.09
  108.10        2974.25           2329         237.00      1031.42
  108.13        2974.50           2333         233.00      1013.99
  108.16        2974.75           2337         246.00      1070.66
  108.19        2975.00           2340         260.00      1131.69
  108.22        2975.25           2344         240.00      1044.50
  108.25        2975.50           2347         223.00       970.39
  108.28        2975.75           2351         236.00      1027.07
  108.31        2976.00           2354         227.00       987.83
  108.34        2976.25           2358         197.00       857.04
  108.37        2976.50           2362         197.00       857.04
  108.40        2976.75           2365         190.00       826.53
  108.43        2977.00           2369         203.00       883.20
  108.47        2977.25           2372         188.00       817.81
  108.50        2977.50           2376         191.00       830.89
  108.53        2977.75           2379         192.00       835.25
  108.56        2978.00           2383         173.00       752.42
  108.59        2978.25           2387         173.00       752.42
  108.62        2978.50           2390         172.00       748.06
  108.65        2978.75           2394         174.00       756.78
  108.68        2979.00           2397         178.00       774.22
  108.71        2979.25           2401         167.00       726.26
  108.74        2979.50           2404         166.00       721.90
  108.77        2979.75           2408         167.00       726.26
  108.80        2980.00           2411         171.00       743.70
  108.83        2980.25           2415         156.00       678.31
  108.86        2980.50           2419         162.00       704.46
  108.89        2980.75           2422         159.00       691.39
  108.92        2981.00           2426         164.00       713.18
  108.95        2981.25           2429         151.00       656.51
  108.98        2981.50           2433         161.00       700.10
  109.02        2981.75           2436         160.00       695.75
  109.05        2982.00           2440         137.00       595.48
  109.08        2982.25           2444         152.00       660.87
  109.11        2982.50           2447         137.00       595.48
  109.14        2982.75           2451         147.00       639.07
  109.17        2983.00           2454         149.00       647.79
  109.20        2983.25           2458         147.00       639.07
  109.23        2983.50           2461         163.00       708.82
  109.26        2983.75           2465         140.00       608.56
  109.29        2984.00           2469         139.00       604.20
HS scan finished at 01:49:30
end
