************************************************************
  HS Scan of (1) Internal mercury lamp
************************************************************
Integration time is 0.2294 seconds per sample
dh070417Santa_Cruz 28.4633 16.2557 2.9pr1014.0
************************************************************
Dead Time -------------------------  3.6E-08 
Number of Cycles Used -------------  4 
Starting Wavelength (Angstroms) ---  2950 
Final Wavelength (Angstoms) -------  2984 
Wavelength Increment (Angstroms) --  .25 
Filter Wheel #1 Position ---------- (1) Ground quartz diffuser (ND=2.32)
Filter Wheel #2 Position ---------- (1) Neutral Density 0.494



************************************************************
HS scan start time = 01:38:15
Dark Count =  .5 


Time (GMT)  Wavelength (Ang)  Step Number  Raw Counts  Counts/Second

   99.02        2950.00           1985         136.00       590.68
   99.20        2950.25           1988         165.00       717.11
   99.23        2950.50           1992         150.00       651.72
   99.26        2950.75           1996         168.00       730.18
   99.29        2951.00           1999         155.00       673.51
   99.32        2951.25           2003         146.00       634.28
   99.35        2951.50           2006         163.00       708.39
   99.38        2951.75           2010         159.00       690.95
   99.41        2952.00           2013         168.00       730.18
   99.44        2952.25           2017         161.00       699.67
   99.47        2952.50           2020         149.00       647.36
   99.50        2952.75           2024         160.00       695.31
   99.53        2953.00           2027         161.00       699.67
   99.57        2953.25           2031         162.00       704.03
   99.60        2953.50           2034         155.00       673.51
   99.63        2953.75           2038         154.00       669.15
   99.66        2954.00           2042         155.00       673.51
   99.69        2954.25           2045         169.00       734.54
   99.72        2954.50           2049         159.00       690.95
   99.75        2954.75           2052         172.00       747.62
   99.78        2955.00           2056         172.00       747.62
   99.81        2955.25           2059         177.00       769.42
   99.84        2955.50           2063         182.00       791.22
   99.87        2955.75           2066         164.00       712.75
   99.90        2956.00           2070         193.00       839.17
   99.93        2956.25           2074         194.00       843.53
   99.96        2956.50           2077         186.00       808.65
   99.99        2956.75           2081         200.00       869.69
  100.02        2957.00           2084         199.00       865.33
  100.06        2957.25           2088         200.00       869.69
  100.09        2957.50           2091         197.00       856.61
  100.12        2957.75           2095         207.00       900.20
  100.15        2958.00           2098         200.00       869.69
  100.18        2958.25           2102         220.00       956.88
  100.21        2958.50           2105         220.00       956.88
  100.24        2958.75           2109         229.00       996.11
  100.27        2959.00           2113         237.00      1030.99
  100.30        2959.25           2116         223.00       969.96
  100.33        2959.50           2120         236.00      1026.63
  100.36        2959.75           2123         247.00      1074.58
  100.39        2960.00           2127         264.00      1148.70
  100.42        2960.25           2130         246.00      1070.22
  100.45        2960.50           2134         272.00      1183.57
  100.48        2960.75           2137         285.00      1240.25
  100.51        2961.00           2141         286.00      1244.61
  100.54        2961.25           2145         359.00      1562.86
  100.57        2961.50           2148         668.00      2910.07
  100.61        2961.75           2152        1997.00      8705.87
  100.64        2962.00           2155        3874.00     16895.63
  100.67        2962.25           2159        6786.00     29610.89
  100.70        2962.50           2162        8948.00     39058.81
  100.73        2962.75           2166       11677.00     50993.71
  100.76        2963.00           2169       13981.00     61077.92
  100.79        2963.25           2173       16796.00     73408.66
  100.82        2963.50           2177       20015.00     87522.51
  100.85        2963.75           2180       22426.00     98103.06
  100.88        2964.00           2184       25062.00    109680.30
  100.91        2964.25           2187       27999.00    122590.90
  100.94        2964.50           2191       31840.00    139493.40
  100.97        2964.75           2194       34244.00    150082.90
  101.00        2965.00           2198       37451.00    164222.20
  101.03        2965.25           2201       39891.00    174989.50
  101.06        2965.50           2205       42600.00    186953.70
  101.09        2965.75           2209       45217.00    198521.40
  101.13        2966.00           2212       47624.00    209169.40
  101.16        2966.25           2216       49093.00    215672.00
  101.19        2966.50           2219       49778.00    218705.20
  101.22        2966.75           2223       49686.00    218297.80
  101.25        2967.00           2226       49673.00    218240.20
  101.28        2967.25           2230       49508.00    217509.50
  101.31        2967.50           2233       49463.00    217310.30
  101.34        2967.75           2237       48955.00    215061.00
  101.37        2968.00           2241       48282.00    212081.70
  101.40        2968.25           2244       46486.00    204134.20
  101.43        2968.50           2248       43247.00    189812.70
  101.46        2968.75           2251       41715.00    183044.00
  101.49        2969.00           2255       38639.00    169463.60
  101.52        2969.25           2258       35647.00    156266.80
  101.55        2969.50           2262       32208.00    141113.90
  101.58        2969.75           2265       29970.00    131261.80
  101.61        2970.00           2269       26674.00    116764.90
  101.65        2970.25           2273       23213.00    101558.50
  101.68        2970.50           2276       21149.00     92498.00
  101.71        2970.75           2280       18293.00     79970.53
  101.74        2971.00           2283       16151.00     70582.35
  101.77        2971.25           2287       13524.00     59077.13
  101.80        2971.50           2290       11486.00     50158.06
  101.83        2971.75           2294        8335.00     36379.35
  101.86        2972.00           2297        5850.00     25522.57
  101.89        2972.25           2301        3139.00     13688.09
  101.92        2972.50           2305        1124.00      4898.42
  101.95        2972.75           2308         491.00      2138.35
  101.98        2973.00           2312         317.00      1379.75
  102.01        2973.25           2315         316.00      1375.40
  102.04        2973.50           2319         299.00      1301.28
  102.07        2973.75           2322         282.00      1227.17
  102.10        2974.00           2326         293.00      1275.12
  102.13        2974.25           2329         260.00      1131.26
  102.17        2974.50           2333         262.00      1139.98
  102.20        2974.75           2337         230.00      1000.47
  102.23        2975.00           2340         264.00      1148.70
  102.26        2975.25           2344         257.00      1118.18
  102.29        2975.50           2347         218.00       948.16
  102.32        2975.75           2351         237.00      1030.99
  102.35        2976.00           2354         228.00       991.75
  102.38        2976.25           2358         211.00       917.64
  102.41        2976.50           2362         196.00       852.25
  102.44        2976.75           2365         193.00       839.17
  102.47        2977.00           2369         203.00       882.77
  102.50        2977.25           2372         205.00       891.48
  102.53        2977.50           2376         185.00       804.30
  102.56        2977.75           2379         194.00       843.53
  102.59        2978.00           2383         192.00       834.81
  102.62        2978.25           2387         194.00       843.53
  102.65        2978.50           2390         182.00       791.22
  102.69        2978.75           2394         170.00       738.90
  102.72        2979.00           2397         184.00       799.94
  102.75        2979.25           2401         167.00       725.83
  102.78        2979.50           2404         176.00       765.06
  102.81        2979.75           2408         163.00       708.39
  102.84        2980.00           2411         165.00       717.11
  102.87        2980.25           2415         179.00       778.14
  102.90        2980.50           2419         170.00       738.90
  102.93        2980.75           2422         160.00       695.31
  102.96        2981.00           2426         155.00       673.51
  102.99        2981.25           2429         150.00       651.72
  103.02        2981.50           2433         147.00       638.64
  103.05        2981.75           2436         159.00       690.95
  103.08        2982.00           2440         152.00       660.43
  103.11        2982.25           2444         152.00       660.43
  103.14        2982.50           2447         168.00       730.18
  103.17        2982.75           2451         148.00       643.00
  103.21        2983.00           2454         170.00       738.90
  103.24        2983.25           2458         165.00       717.11
  103.27        2983.50           2461         182.00       791.22
  103.30        2983.75           2465         155.00       673.51
  103.33        2984.00           2469         162.00       704.03
HS scan finished at 01:43:33
end
