************************************************************
  HS Scan of (1) Internal mercury lamp
************************************************************
Integration time is 0.2294 seconds per sample
dh140417Santa_Cruz 28.4633 16.2557 3pr1014.0
************************************************************
Dead Time -------------------------  3.6E-08 
Number of Cycles Used -------------  4 
Starting Wavelength (Angstroms) ---  2950 
Final Wavelength (Angstoms) -------  2984 
Wavelength Increment (Angstroms) --  .25 
Filter Wheel #1 Position ---------- (1) Ground quartz diffuser (ND=2.32)
Filter Wheel #2 Position ---------- (1) Neutral Density 0.494



************************************************************
HS scan start time = 01:36:25
Dark Count =  .5 


Time (GMT)  Wavelength (Ang)  Step Number  Raw Counts  Counts/Second

   97.18        2950.00           1985         130.00       564.53
   97.36        2950.25           1988         140.00       608.12
   97.39        2950.50           1992         143.00       621.20
   97.42        2950.75           1996         150.00       651.72
   97.45        2951.00           1999         127.00       551.45
   97.48        2951.25           2003         121.00       525.29
   97.51        2951.50           2006         144.00       625.56
   97.54        2951.75           2010         147.00       638.64
   97.57        2952.00           2013         150.00       651.72
   97.60        2952.25           2017         142.00       616.84
   97.63        2952.50           2020         129.00       560.17
   97.66        2952.75           2024         149.00       647.36
   97.69        2953.00           2027         156.00       677.87
   97.72        2953.25           2031         149.00       647.36
   97.75        2953.50           2034         139.00       603.76
   97.78        2953.75           2038         148.00       643.00
   97.82        2954.00           2042         142.00       616.84
   97.85        2954.25           2045         157.00       682.23
   97.88        2954.50           2049         152.00       660.43
   97.91        2954.75           2052         155.00       673.51
   97.94        2955.00           2056         156.00       677.87
   97.97        2955.25           2059         161.00       699.67
   98.00        2955.50           2063         157.00       682.23
   98.03        2955.75           2066         162.00       704.03
   98.06        2956.00           2070         161.00       699.67
   98.09        2956.25           2074         154.00       669.15
   98.12        2956.50           2077         157.00       682.23
   98.15        2956.75           2081         156.00       677.87
   98.18        2957.00           2084         156.00       677.87
   98.21        2957.25           2088         171.00       743.26
   98.24        2957.50           2091         180.00       782.50
   98.27        2957.75           2095         184.00       799.94
   98.30        2958.00           2098         176.00       765.06
   98.34        2958.25           2102         183.00       795.58
   98.37        2958.50           2105         195.00       847.89
   98.40        2958.75           2109         184.00       799.94
   98.43        2959.00           2113         193.00       839.17
   98.46        2959.25           2116         225.00       978.67
   98.49        2959.50           2120         213.00       926.36
   98.52        2959.75           2123         222.00       965.60
   98.55        2960.00           2127         238.00      1035.35
   98.58        2960.25           2130         220.00       956.88
   98.61        2960.50           2134         234.00      1017.91
   98.64        2960.75           2137         269.00      1170.49
   98.67        2961.00           2141         240.00      1044.07
   98.70        2961.25           2145         363.00      1580.30
   98.73        2961.50           2148         690.00      3005.99
   98.76        2961.75           2152        2213.00      9648.08
   98.79        2962.00           2155        3997.00     17432.47
   98.82        2962.25           2159        6796.00     29654.57
   98.85        2962.50           2162        8899.00     38844.61
   98.89        2962.75           2166       11326.00     49458.08
   98.92        2963.00           2169       13361.00     58363.57
   98.95        2963.25           2173       15603.00     68181.53
   98.98        2963.50           2177       18394.00     80413.35
   99.01        2963.75           2180       20290.00     88728.91
   99.04        2964.00           2184       23091.00    101022.80
   99.07        2964.25           2187       25197.00    110273.40
   99.10        2964.50           2191       27488.00    120343.70
   99.13        2964.75           2194       29220.00    127961.70
   99.16        2965.00           2198       31179.00    136583.20
   99.19        2965.25           2201       32844.00    143915.00
   99.22        2965.50           2205       35130.00    153987.70
   99.25        2965.75           2209       38073.00    166966.20
   99.28        2966.00           2212       40060.00    175735.60
   99.31        2966.25           2216       41892.00    183825.90
   99.34        2966.50           2219       42912.00    188332.30
   99.38        2966.75           2223       43154.00    189401.70
   99.41        2967.00           2226       43109.00    189202.80
   99.44        2967.25           2230       42923.00    188380.90
   99.47        2967.50           2233       42755.00    187638.60
   99.50        2967.75           2237       42387.00    186012.60
   99.53        2968.00           2241       41718.00    183057.20
   99.56        2968.25           2244       40222.00    176450.80
   99.59        2968.50           2248       37494.00    164411.90
   99.62        2968.75           2251       35510.00    155662.80
   99.65        2969.00           2255       32639.00    143012.10
   99.68        2969.25           2258       30312.00    132766.90
   99.71        2969.50           2262       27373.00    119838.00
   99.74        2969.75           2265       25360.00    110989.70
   99.77        2970.00           2269       22813.00     99802.13
   99.80        2970.25           2273       20269.00     88636.79
   99.83        2970.50           2276       18710.00     81798.94
   99.86        2970.75           2280       15993.00     69890.10
   99.90        2971.00           2283       13839.00     60456.20
   99.93        2971.25           2287       10900.00     47594.56
   99.96        2971.50           2290        9116.00     39793.24
   99.99        2971.75           2294        6274.00     27374.40
  100.02        2972.00           2297        4197.00     18305.43
  100.05        2972.25           2301        1951.00      8505.22
  100.08        2972.50           2305         640.00      2787.99
  100.11        2972.75           2308         342.00      1488.75
  100.14        2973.00           2312         272.00      1183.57
  100.17        2973.25           2315         275.00      1196.65
  100.20        2973.50           2319         280.00      1218.45
  100.23        2973.75           2322         227.00       987.39
  100.26        2974.00           2326         236.00      1026.63
  100.29        2974.25           2329         215.00       935.08
  100.32        2974.50           2333         217.00       943.80
  100.35        2974.75           2337         208.00       904.56
  100.38        2975.00           2340         198.00       860.97
  100.41        2975.25           2344         192.00       834.81
  100.45        2975.50           2347         189.00       821.73
  100.48        2975.75           2351         184.00       799.94
  100.51        2976.00           2354         205.00       891.48
  100.54        2976.25           2358         182.00       791.22
  100.57        2976.50           2362         183.00       795.58
  100.60        2976.75           2365         184.00       799.94
  100.63        2977.00           2369         176.00       765.06
  100.66        2977.25           2372         181.00       786.86
  100.69        2977.50           2376         175.00       760.70
  100.72        2977.75           2379         159.00       690.95
  100.75        2978.00           2383         169.00       734.54
  100.78        2978.25           2387         158.00       686.59
  100.81        2978.50           2390         158.00       686.59
  100.84        2978.75           2394         157.00       682.23
  100.87        2979.00           2397         167.00       725.83
  100.90        2979.25           2401         156.00       677.87
  100.94        2979.50           2404         142.00       616.84
  100.97        2979.75           2408         155.00       673.51
  101.00        2980.00           2411         144.00       625.56
  101.03        2980.25           2415         151.00       656.07
  101.06        2980.50           2419         146.00       634.28
  101.09        2980.75           2422         154.00       669.15
  101.12        2981.00           2426         162.00       704.03
  101.15        2981.25           2429         159.00       690.95
  101.18        2981.50           2433         147.00       638.64
  101.21        2981.75           2436         148.00       643.00
  101.24        2982.00           2440         160.00       695.31
  101.27        2982.25           2444         134.00       581.97
  101.30        2982.50           2447         125.00       542.73
  101.33        2982.75           2451         163.00       708.39
  101.36        2983.00           2454         148.00       643.00
  101.39        2983.25           2458         133.00       577.61
  101.42        2983.50           2461         142.00       616.84
  101.45        2983.75           2465         157.00       682.23
  101.49        2984.00           2469         118.00       512.22
HS scan finished at 01:41:42
end
