************************************************************
  HS Scan of (1) Internal mercury lamp
************************************************************
Integration time is 0.2294 seconds per sample
dh210417Santa_Cruz 28.4633 16.2557 3.03pr1014.0
************************************************************
Dead Time -------------------------  3.6E-08 
Number of Cycles Used -------------  4 
Starting Wavelength (Angstroms) ---  2950 
Final Wavelength (Angstoms) -------  2984 
Wavelength Increment (Angstroms) --  .25 
Filter Wheel #1 Position ---------- (1) Ground quartz diffuser (ND=2.32)
Filter Wheel #2 Position ---------- (1) Neutral Density 0.494



************************************************************
HS scan start time = 01:34:50
Dark Count =  .8 


Time (GMT)  Wavelength (Ang)  Step Number  Raw Counts  Counts/Second

   95.60        2950.00           1985         126.00       545.78
   95.78        2950.25           1988         115.00       497.83
   95.81        2950.50           1992         144.00       624.25
   95.84        2950.75           1996         127.00       550.14
   95.87        2951.00           1999         127.00       550.14
   95.90        2951.25           2003         149.00       646.05
   95.93        2951.50           2006         146.00       632.97
   95.96        2951.75           2010         128.00       554.50
   95.99        2952.00           2013         147.00       637.33
   96.03        2952.25           2017         135.00       585.02
   96.06        2952.50           2020         158.00       685.28
   96.09        2952.75           2024         181.00       785.55
   96.12        2953.00           2027         137.00       593.74
   96.15        2953.25           2031         136.00       589.38
   96.18        2953.50           2034         140.00       606.81
   96.21        2953.75           2038         170.00       737.60
   96.24        2954.00           2042         144.00       624.25
   96.27        2954.25           2045         163.00       707.08
   96.30        2954.50           2049         159.00       689.64
   96.33        2954.75           2052         149.00       646.05
   96.36        2955.00           2056         152.00       659.13
   96.39        2955.25           2059         157.00       680.92
   96.42        2955.50           2063         158.00       685.28
   96.45        2955.75           2066         166.00       720.16
   96.48        2956.00           2070         160.00       694.00
   96.51        2956.25           2074         183.00       794.27
   96.55        2956.50           2077         158.00       685.28
   96.58        2956.75           2081         181.00       785.55
   96.61        2957.00           2084         172.00       746.31
   96.64        2957.25           2088         182.00       789.91
   96.67        2957.50           2091         175.00       759.39
   96.70        2957.75           2095         197.00       855.30
   96.73        2958.00           2098         187.00       811.71
   96.76        2958.25           2102         189.00       820.43
   96.79        2958.50           2105         191.00       829.14
   96.82        2958.75           2109         196.00       850.94
   96.85        2959.00           2113         212.00       920.69
   96.88        2959.25           2116         221.00       959.93
   96.91        2959.50           2120         202.00       877.10
   96.94        2959.75           2123         240.00      1042.76
   96.97        2960.00           2127         244.00      1060.20
   97.00        2960.25           2130         246.00      1068.92
   97.03        2960.50           2134         278.00      1208.42
   97.06        2960.75           2137         250.00      1086.35
   97.10        2961.00           2141         273.00      1186.62
   97.13        2961.25           2145         402.00      1749.02
   97.16        2961.50           2148         797.00      3471.23
   97.19        2961.75           2152        2486.00     10837.71
   97.22        2962.00           2155        4370.00     19059.28
   97.25        2962.25           2159        7317.00     31929.45
   97.28        2962.50           2162        9648.00     42117.87
   97.31        2962.75           2166       12546.00     54795.00
   97.34        2963.00           2169       14719.00     64308.26
   97.37        2963.25           2173       17701.00     77373.90
   97.40        2963.50           2177       20807.00     90995.94
   97.43        2963.75           2180       22863.00    100020.40
   97.46        2964.00           2184       25403.00    111177.30
   97.49        2964.25           2187       27265.00    119361.90
   97.52        2964.50           2191       30013.00    131449.70
   97.55        2964.75           2194       31761.00    139144.30
   97.59        2965.00           2198       34587.00    151593.10
   97.62        2965.25           2201       36595.00    160445.40
   97.65        2965.50           2205       40428.00    177359.00
   97.68        2965.75           2209       43040.00    188896.60
   97.71        2966.00           2212       44663.00    196070.50
   97.74        2966.25           2216       46224.00    202973.80
   97.77        2966.50           2219       46657.00    204889.30
   97.80        2966.75           2223       46581.00    204553.10
   97.83        2967.00           2226       46525.00    204305.40
   97.86        2967.25           2230       46654.00    204876.00
   97.89        2967.50           2233       46427.00    203871.80
   97.92        2967.75           2237       45850.00    201319.50
   97.95        2968.00           2241       43939.00    192869.80
   97.98        2968.25           2244       41852.00    183647.80
   98.01        2968.50           2248       39152.00    171726.20
   98.04        2968.75           2251       36573.00    160348.40
   98.07        2969.00           2255       33814.00    148186.90
   98.11        2969.25           2258       31797.00    139302.80
   98.14        2969.50           2262       29012.00    127045.30
   98.17        2969.75           2265       26648.00    116649.30
   98.20        2970.00           2269       23928.00    104697.30
   98.23        2970.25           2273       20919.00     91487.39
   98.26        2970.50           2276       18717.00     81828.31
   98.29        2970.75           2280       15676.00     68500.02
   98.32        2971.00           2283       13274.00     57981.41
   98.35        2971.25           2287       10658.00     46534.74
   98.38        2971.50           2290        8688.00     37920.96
   98.41        2971.75           2294        5767.00     25158.78
   98.44        2972.00           2297        3766.00     16422.96
   98.47        2972.25           2301        1491.00      6497.60
   98.50        2972.50           2305         495.00      2154.48
   98.53        2972.75           2308         337.00      1465.64
   98.56        2973.00           2312         278.00      1208.42
   98.59        2973.25           2315         268.00      1164.83
   98.63        2973.50           2319         259.00      1125.59
   98.66        2973.75           2322         244.00      1060.20
   98.69        2974.00           2326         232.00      1007.88
   98.72        2974.25           2329         228.00       990.45
   98.75        2974.50           2333         236.00      1025.32
   98.78        2974.75           2337         205.00       890.18
   98.81        2975.00           2340         244.00      1060.20
   98.84        2975.25           2344         206.00       894.54
   98.87        2975.50           2347         211.00       916.33
   98.90        2975.75           2351         209.00       907.61
   98.93        2976.00           2354         208.00       903.26
   98.96        2976.25           2358         192.00       833.50
   98.99        2976.50           2362         194.00       842.22
   99.02        2976.75           2365         181.00       785.55
   99.05        2977.00           2369         186.00       807.35
   99.08        2977.25           2372         176.00       763.75
   99.11        2977.50           2376         177.00       768.11
   99.15        2977.75           2379         175.00       759.39
   99.18        2978.00           2383         167.00       724.52
   99.21        2978.25           2387         155.00       672.20
   99.24        2978.50           2390         164.00       711.44
   99.27        2978.75           2394         167.00       724.52
   99.30        2979.00           2397         154.00       667.85
   99.33        2979.25           2401         158.00       685.28
   99.36        2979.50           2404         152.00       659.13
   99.39        2979.75           2408         161.00       698.36
   99.42        2980.00           2411         166.00       720.16
   99.45        2980.25           2415         137.00       593.74
   99.48        2980.50           2419         140.00       606.81
   99.51        2980.75           2422         145.00       628.61
   99.54        2981.00           2426         157.00       680.92
   99.57        2981.25           2429         146.00       632.97
   99.60        2981.50           2433         138.00       598.09
   99.63        2981.75           2436         166.00       720.16
   99.66        2982.00           2440         150.00       650.41
   99.70        2982.25           2444         133.00       576.30
   99.73        2982.50           2447         140.00       606.81
   99.76        2982.75           2451         127.00       550.14
   99.79        2983.00           2454         129.00       558.86
   99.82        2983.25           2458         140.00       606.81
   99.85        2983.50           2461         139.00       602.45
   99.88        2983.75           2465         144.00       624.25
   99.91        2984.00           2469         165.00       715.80
HS scan finished at 01:40:08
end
