************************************************************
  HS Scan of (1) Internal mercury lamp
************************************************************
Integration time is 0.2294 seconds per sample
dh280417Santa_Cruz 28.4633 16.2557 3.17pr1014.0
************************************************************
Dead Time -------------------------  3.6E-08 
Number of Cycles Used -------------  4 
Starting Wavelength (Angstroms) ---  2950 
Final Wavelength (Angstoms) -------  2984 
Wavelength Increment (Angstroms) --  .25 
Filter Wheel #1 Position ---------- (1) Ground quartz diffuser (ND=2.32)
Filter Wheel #2 Position ---------- (1) Neutral Density 0.494



************************************************************
HS scan start time = 01:33:39
Dark Count =  1 


Time (GMT)  Wavelength (Ang)  Step Number  Raw Counts  Counts/Second

   94.41        2950.00           1985         165.00       714.93
   94.59        2950.25           1988         133.00       575.43
   94.62        2950.50           1992         145.00       627.74
   94.65        2950.75           1996         146.00       632.10
   94.68        2951.00           1999         112.00       483.88
   94.71        2951.25           2003         131.00       566.71
   94.74        2951.50           2006         125.00       540.55
   94.77        2951.75           2010         123.00       531.83
   94.80        2952.00           2013         134.00       579.79
   94.83        2952.25           2017         148.00       640.82
   94.86        2952.50           2020         137.00       592.86
   94.89        2952.75           2024         162.00       701.85
   94.92        2953.00           2027         123.00       531.83
   94.95        2953.25           2031         141.00       610.30
   94.99        2953.50           2034         140.00       605.94
   95.02        2953.75           2038         132.00       571.07
   95.05        2954.00           2042         172.00       745.44
   95.08        2954.25           2045         152.00       658.25
   95.11        2954.50           2049         144.00       623.38
   95.14        2954.75           2052         138.00       597.22
   95.17        2955.00           2056         149.00       645.18
   95.20        2955.25           2059         146.00       632.10
   95.23        2955.50           2063         139.00       601.58
   95.26        2955.75           2066         177.00       767.24
   95.29        2956.00           2070         154.00       666.97
   95.32        2956.25           2074         161.00       697.49
   95.35        2956.50           2077         162.00       701.85
   95.38        2956.75           2081         159.00       688.77
   95.41        2957.00           2084         154.00       666.97
   95.44        2957.25           2088         154.00       666.97
   95.47        2957.50           2091         172.00       745.44
   95.51        2957.75           2095         163.00       706.21
   95.54        2958.00           2098         168.00       728.01
   95.57        2958.25           2102         177.00       767.24
   95.60        2958.50           2105         167.00       723.65
   95.63        2958.75           2109         179.00       775.96
   95.66        2959.00           2113         182.00       789.04
   95.69        2959.25           2116         193.00       836.99
   95.72        2959.50           2120         197.00       854.43
   95.75        2959.75           2123         188.00       815.19
   95.78        2960.00           2127         217.00       941.62
   95.81        2960.25           2130         220.00       954.70
   95.84        2960.50           2134         246.00      1068.04
   95.87        2960.75           2137         250.00      1085.48
   95.90        2961.00           2141         249.00      1081.12
   95.93        2961.25           2145         391.00      1700.19
   95.96        2961.50           2148         842.00      3666.57
   95.99        2961.75           2152        2705.00     11792.28
   96.03        2962.00           2155        4569.00     19927.11
   96.06        2962.25           2159        7111.00     31028.54
   96.09        2962.50           2162        9107.00     39751.70
   96.12        2962.75           2166       11666.00     50943.39
   96.15        2963.00           2169       13749.00     60059.98
   96.18        2963.25           2173       16491.00     72069.93
   96.21        2963.50           2177       18772.00     82068.63
   96.24        2963.75           2180       20945.00     91600.61
   96.27        2964.00           2184       23537.00    102979.10
   96.30        2964.25           2187       25542.00    111787.20
   96.33        2964.50           2191       28057.00    122843.70
   96.36        2964.75           2194       30258.00    132527.00
   96.39        2965.00           2198       32518.00    142477.00
   96.42        2965.25           2201       33804.00    148141.90
   96.45        2965.50           2205       36237.00    158865.90
   96.48        2965.75           2209       39026.00    171169.20
   96.52        2966.00           2212       40876.00    179336.30
   96.55        2966.25           2216       42208.00    185219.60
   96.58        2966.50           2219       42484.00    186439.00
   96.61        2966.75           2223       42608.00    186986.80
   96.64        2967.00           2226       42760.00    187658.50
   96.67        2967.25           2230       42694.00    187366.80
   96.70        2967.50           2233       42504.00    186527.30
   96.73        2967.75           2237       41699.00    182971.10
   96.76        2968.00           2241       40354.00    177031.40
   96.79        2968.25           2244       39116.00    171566.40
   96.82        2968.50           2248       36396.00    159567.00
   96.85        2968.75           2251       34387.00    150710.90
   96.88        2969.00           2255       31597.00    138421.30
   96.91        2969.25           2258       29405.00    128773.50
   96.94        2969.50           2262       26596.00    116419.80
   96.97        2969.75           2265       24838.00    108693.90
   97.00        2970.00           2269       22286.00     97486.26
   97.03        2970.25           2273       19634.00     85849.05
   97.07        2970.50           2276       17543.00     76680.44
   97.10        2970.75           2280       15029.00     65665.08
   97.13        2971.00           2283       12933.00     56487.90
   97.16        2971.25           2287       10160.00     44355.87
   97.19        2971.50           2290        7964.00     34755.75
   97.22        2971.75           2294        4993.00     21778.18
   97.25        2972.00           2297        3016.00     13149.21
   97.28        2972.25           2301        1068.00      4652.04
   97.31        2972.50           2305         377.00      1639.16
   97.34        2972.75           2308         281.00      1220.63
   97.37        2973.00           2312         265.00      1150.88
   97.40        2973.25           2315         229.00       993.93
   97.43        2973.50           2319         220.00       954.70
   97.46        2973.75           2322         206.00       893.66
   97.49        2974.00           2326         217.00       941.62
   97.52        2974.25           2329         200.00       867.51
   97.55        2974.50           2333         208.00       902.38
   97.59        2974.75           2337         198.00       858.79
   97.62        2975.00           2340         191.00       828.27
   97.65        2975.25           2344         177.00       767.24
   97.68        2975.50           2347         175.00       758.52
   97.71        2975.75           2351         178.00       771.60
   97.74        2976.00           2354         177.00       767.24
   97.77        2976.25           2358         163.00       706.21
   97.80        2976.50           2362         174.00       754.16
   97.83        2976.75           2365         167.00       723.65
   97.86        2977.00           2369         173.00       749.80
   97.89        2977.25           2372         155.00       671.33
   97.92        2977.50           2376         154.00       666.97
   97.95        2977.75           2379         160.00       693.13
   97.98        2978.00           2383         157.00       680.05
   98.01        2978.25           2387         165.00       714.93
   98.04        2978.50           2390         163.00       706.21
   98.07        2978.75           2394         144.00       623.38
   98.11        2979.00           2397         147.00       636.46
   98.14        2979.25           2401         157.00       680.05
   98.17        2979.50           2404         141.00       610.30
   98.20        2979.75           2408         148.00       640.82
   98.23        2980.00           2411         147.00       636.46
   98.26        2980.25           2415         126.00       544.91
   98.29        2980.50           2419         128.00       553.63
   98.32        2980.75           2422         130.00       562.35
   98.35        2981.00           2426         135.00       584.14
   98.38        2981.25           2429         142.00       614.66
   98.41        2981.50           2433         148.00       640.82
   98.44        2981.75           2436         118.00       510.04
   98.47        2982.00           2440         130.00       562.35
   98.50        2982.25           2444         154.00       666.97
   98.53        2982.50           2447         146.00       632.10
   98.56        2982.75           2451         141.00       610.30
   98.59        2983.00           2454         134.00       579.79
   98.63        2983.25           2458         121.00       523.11
   98.66        2983.50           2461         139.00       601.58
   98.69        2983.75           2465         131.00       566.71
   98.72        2984.00           2469         123.00       531.83
HS scan finished at 01:38:56
end
