************************************************************
  HS Scan of (1) Internal mercury lamp
************************************************************
Integration time is 0.2294 seconds per sample
dh170619El Arenosillo 37.1 6.73 2.98pr1000
************************************************************
Dead Time -------------------------  4E-08 
Number of Cycles Used -------------  4 
Starting Wavelength (Angstroms) ---  2950 
Final Wavelength (Angstoms) -------  2984 
Wavelength Increment (Angstroms) --  .25 
Filter Wheel #1 Position ---------- (1) Ground quartz diffuser (ND=2.32)
Filter Wheel #2 Position ---------- (1) Neutral Density 0.494



************************************************************
HS scan start time = 21:55:17
Dark Count =  1.8 


Time (GMT)  Wavelength (Ang)  Step Number  Raw Counts  Counts/Second

 1316.04        2950.00           1985         126.00       541.42
 1316.22        2950.25           1988         154.00       663.49
 1316.26        2950.50           1992         168.00       724.52
 1316.29        2950.75           1996         138.00       593.74
 1316.32        2951.00           1999         172.00       741.96
 1316.35        2951.25           2003         167.00       720.16
 1316.38        2951.50           2006         156.00       672.21
 1316.41        2951.75           2010         146.00       628.61
 1316.44        2952.00           2013         147.00       632.97
 1316.47        2952.25           2017         160.00       689.64
 1316.50        2952.50           2020         145.00       624.25
 1316.53        2952.75           2024         147.00       632.97
 1316.56        2953.00           2027         150.00       646.05
 1316.59        2953.25           2031         148.00       637.33
 1316.62        2953.50           2034         159.00       685.28
 1316.65        2953.75           2038         144.00       619.89
 1316.68        2954.00           2042         168.00       724.52
 1316.71        2954.25           2045         147.00       632.97
 1316.74        2954.50           2049         155.00       667.85
 1316.78        2954.75           2052         156.00       672.21
 1316.81        2955.00           2056         168.00       724.52
 1316.84        2955.25           2059         181.00       781.19
 1316.87        2955.50           2063         164.00       707.08
 1316.90        2955.75           2066         168.00       724.52
 1316.93        2956.00           2070         177.00       763.75
 1316.96        2956.25           2074         153.00       659.13
 1316.99        2956.50           2077         180.00       776.83
 1317.02        2956.75           2081         179.00       772.47
 1317.05        2957.00           2084         181.00       781.19
 1317.08        2957.25           2088         187.00       807.35
 1317.11        2957.50           2091         200.00       864.02
 1317.14        2957.75           2095         185.00       798.63
 1317.17        2958.00           2098         205.00       885.82
 1317.20        2958.25           2102         187.00       807.35
 1317.23        2958.50           2105         198.00       855.30
 1317.26        2958.75           2109         214.00       925.06
 1317.29        2959.00           2113         209.00       903.26
 1317.33        2959.25           2116         221.00       955.57
 1317.36        2959.50           2120         217.00       938.13
 1317.39        2959.75           2123         242.00      1047.12
 1317.42        2960.00           2127         250.00      1082.00
 1317.45        2960.25           2130         255.00      1103.80
 1317.48        2960.50           2134         266.00      1151.75
 1317.51        2960.75           2137         252.00      1090.72
 1317.54        2961.00           2141         265.00      1147.39
 1317.57        2961.25           2145         284.00      1230.23
 1317.60        2961.50           2148         400.00      1735.95
 1317.63        2961.75           2152         873.00      3798.31
 1317.66        2962.00           2155        1780.00      7753.93
 1317.69        2962.25           2159        4021.00     17532.78
 1317.72        2962.50           2162        6215.00     27113.96
 1317.75        2962.75           2166        9611.00     41958.77
 1317.78        2963.00           2169       12134.00     52998.90
 1317.81        2963.25           2173       15455.00     67545.81
 1317.85        2963.50           2177       18772.00     82092.15
 1317.88        2963.75           2180       21468.00     93927.65
 1317.91        2964.00           2184       24917.00    109085.20
 1317.94        2964.25           2187       26968.00    118107.70
 1317.97        2964.50           2191       29867.00    130871.60
 1318.00        2964.75           2194       32026.00    140385.90
 1318.03        2965.00           2198       35209.00    154426.10
 1318.06        2965.25           2201       37664.00    165265.90
 1318.09        2965.50           2205       40633.00    178387.80
 1318.12        2965.75           2209       43359.00    190447.90
 1318.15        2966.00           2212       45808.00    201292.50
 1318.18        2966.25           2216       47771.00    209991.90
 1318.21        2966.50           2219       48310.00    212381.60
 1318.24        2966.75           2223       48704.00    214128.70
 1318.27        2967.00           2226       48481.00    213139.90
 1318.30        2967.25           2230       48596.00    213649.80
 1318.33        2967.50           2233       48269.00    212199.80
 1318.36        2967.75           2237       48186.00    211831.80
 1318.39        2968.00           2241       47442.00    208533.40
 1318.43        2968.25           2244       46132.00    202728.00
 1318.46        2968.50           2248       42919.00    188500.50
 1318.49        2968.75           2251       40166.00    176322.90
 1318.52        2969.00           2255       37353.00    163892.20
 1318.55        2969.25           2258       35141.00    154126.00
 1318.58        2969.50           2262       31612.00    138561.00
 1318.61        2969.75           2265       29269.00    128237.60
 1318.64        2970.00           2269       25958.00    113663.80
 1318.67        2970.25           2273       22994.00    100631.80
 1318.70        2970.50           2276       20729.00     90682.31
 1318.73        2970.75           2280       17308.00     75669.84
 1318.76        2971.00           2283       14761.00     64504.50
 1318.79        2971.25           2287       11619.00     50744.57
 1318.82        2971.50           2290        9395.00     41014.05
 1318.85        2971.75           2294        6537.00     28520.75
 1318.88        2972.00           2297        4417.00     19261.57
 1318.91        2972.25           2301        2155.00      9389.75
 1318.95        2972.50           2305         755.00      3283.78
 1318.98        2972.75           2308         416.00      1805.71
 1319.01        2973.00           2312         287.00      1243.31
 1319.04        2973.25           2315         301.00      1304.34
 1319.07        2973.50           2319         309.00      1339.22
 1319.10        2973.75           2322         291.00      1260.74
 1319.13        2974.00           2326         275.00      1190.99
 1319.16        2974.25           2329         240.00      1038.40
 1319.19        2974.50           2333         271.00      1173.55
 1319.22        2974.75           2337         248.00      1073.28
 1319.25        2975.00           2340         228.00       986.09
 1319.28        2975.25           2344         233.00      1007.89
 1319.31        2975.50           2347         222.00       959.93
 1319.34        2975.75           2351         227.00       981.73
 1319.37        2976.00           2354         210.00       907.62
 1319.40        2976.25           2358         202.00       872.74
 1319.43        2976.50           2362         211.00       911.98
 1319.47        2976.75           2365         186.00       802.99
 1319.50        2977.00           2369         207.00       894.54
 1319.53        2977.25           2372         218.00       942.49
 1319.56        2977.50           2376         199.00       859.66
 1319.59        2977.75           2379         188.00       811.71
 1319.62        2978.00           2383         193.00       833.51
 1319.65        2978.25           2387         185.00       798.63
 1319.68        2978.50           2390         183.00       789.91
 1319.71        2978.75           2394         180.00       776.83
 1319.74        2979.00           2397         167.00       720.16
 1319.77        2979.25           2401         181.00       781.19
 1319.80        2979.50           2404         183.00       789.91
 1319.83        2979.75           2408         175.00       755.04
 1319.86        2980.00           2411         157.00       676.57
 1319.89        2980.25           2415         163.00       702.72
 1319.92        2980.50           2419         161.00       694.00
 1319.95        2980.75           2422         156.00       672.21
 1319.98        2981.00           2426         173.00       746.32
 1320.02        2981.25           2429         153.00       659.13
 1320.05        2981.50           2433         154.00       663.49
 1320.08        2981.75           2436         154.00       663.49
 1320.11        2982.00           2440         146.00       628.61
 1320.14        2982.25           2444         137.00       589.38
 1320.17        2982.50           2447         145.00       624.25
 1320.20        2982.75           2451         148.00       637.33
 1320.23        2983.00           2454         148.00       637.33
 1320.26        2983.25           2458         152.00       654.77
 1320.29        2983.50           2461         145.00       624.25
 1320.32        2983.75           2465         168.00       724.52
 1320.35        2984.00           2469         140.00       602.46
HS scan finished at 22:00:34
end
