************************************************************
  HS Scan of (1) Internal mercury lamp
************************************************************
Integration time is 0.2294 seconds per sample
dh090619Santa_Cruz 28.4633 16.2557 3.15pr1014.0
************************************************************
Dead Time -------------------------  4E-08 
Number of Cycles Used -------------  4 
Starting Wavelength (Angstroms) ---  2950 
Final Wavelength (Angstoms) -------  2984 
Wavelength Increment (Angstroms) --  .25 
Filter Wheel #1 Position ---------- (1) Ground quartz diffuser (ND=2.32)
Filter Wheel #2 Position ---------- (1) Neutral Density 0.494



************************************************************
HS scan start time = 01:35:32
Dark Count =  2.7 


Time (GMT)  Wavelength (Ang)  Step Number  Raw Counts  Counts/Second

   96.29        2950.00           1985         144.00       615.97
   96.47        2950.25           1988         143.00       611.61
   96.50        2950.50           1992         132.00       563.66
   96.54        2950.75           1996         170.00       729.32
   96.57        2951.00           1999         132.00       563.66
   96.60        2951.25           2003         154.00       659.56
   96.63        2951.50           2006         124.00       528.78
   96.66        2951.75           2010         132.00       563.66
   96.69        2952.00           2013         163.00       698.80
   96.72        2952.25           2017         130.00       554.94
   96.75        2952.50           2020         173.00       742.39
   96.78        2952.75           2024         147.00       629.05
   96.81        2953.00           2027         138.00       589.81
   96.84        2953.25           2031         136.00       581.09
   96.87        2953.50           2034         152.00       650.85
   96.90        2953.75           2038         147.00       629.05
   96.93        2954.00           2042         147.00       629.05
   96.96        2954.25           2045         143.00       611.61
   96.99        2954.50           2049         148.00       633.41
   97.02        2954.75           2052         151.00       646.49
   97.06        2955.00           2056         179.00       768.55
   97.09        2955.25           2059         149.00       637.77
   97.12        2955.50           2063         158.00       677.00
   97.15        2955.75           2066         154.00       659.56
   97.18        2956.00           2070         166.00       711.88
   97.21        2956.25           2074         162.00       694.44
   97.24        2956.50           2077         169.00       724.96
   97.27        2956.75           2081         177.00       759.83
   97.30        2957.00           2084         168.00       720.60
   97.33        2957.25           2088         176.00       755.47
   97.36        2957.50           2091         184.00       790.35
   97.39        2957.75           2095         173.00       742.39
   97.42        2958.00           2098         193.00       829.58
   97.45        2958.25           2102         186.00       799.07
   97.48        2958.50           2105         192.00       825.22
   97.51        2958.75           2109         194.00       833.94
   97.54        2959.00           2113         204.00       877.54
   97.58        2959.25           2116         214.00       921.13
   97.61        2959.50           2120         237.00      1021.40
   97.64        2959.75           2123         215.00       925.49
   97.67        2960.00           2127         246.00      1060.64
   97.70        2960.25           2130         218.00       938.57
   97.73        2960.50           2134         238.00      1025.76
   97.76        2960.75           2137         247.00      1065.00
   97.79        2961.00           2141         244.00      1051.92
   97.82        2961.25           2145         386.00      1670.99
   97.85        2961.50           2148         750.00      3258.05
   97.88        2961.75           2152        2228.00      9704.29
   97.91        2962.00           2155        4071.00     17747.12
   97.94        2962.25           2159        6687.00     29172.21
   97.97        2962.50           2162        9039.00     39453.24
   98.00        2962.75           2166       11558.00     50473.64
   98.03        2963.00           2169       13945.00     60925.54
   98.06        2963.25           2173       17160.00     75016.83
   98.10        2963.50           2177       20072.00     87793.83
   98.13        2963.75           2180       21727.00     95061.31
   98.16        2964.00           2184       24990.00    109402.30
   98.19        2964.25           2187       27417.00    120079.80
   98.22        2964.50           2191       30105.00    131916.10
   98.25        2964.75           2194       32182.00    141069.70
   98.28        2965.00           2198       34681.00    152092.10
   98.31        2965.25           2201       36331.00    159375.00
   98.34        2965.50           2205       38208.00    167665.20
   98.37        2965.75           2209       40257.00    176721.30
   98.40        2966.00           2212       42083.00    184797.30
   98.43        2966.25           2216       45029.00    197838.00
   98.46        2966.50           2219       45911.00    201744.90
   98.49        2966.75           2223       46515.00    204421.10
   98.52        2967.00           2226       46386.00    203849.40
   98.55        2967.25           2230       46339.00    203641.20
   98.58        2967.50           2233       46010.00    202183.50
   98.62        2967.75           2237       45675.00    200699.40
   98.65        2968.00           2241       44558.00    195752.10
   98.68        2968.25           2244       43180.00    189651.70
   98.71        2968.50           2248       40815.00    179188.70
   98.74        2968.75           2251       38575.00    169286.80
   98.77        2969.00           2255       36112.00    158408.20
   98.80        2969.25           2258       33855.00    148447.70
   98.83        2969.50           2262       30737.00    134700.70
   98.86        2969.75           2265       28152.00    123315.10
   98.89        2970.00           2269       25056.00    109692.60
   98.92        2970.25           2273       22202.00     97147.92
   98.95        2970.50           2276       20237.00     88518.18
   98.98        2970.75           2280       17006.00     74341.50
   99.01        2971.00           2283       15002.00     65556.60
   99.04        2971.25           2287       12105.00     52868.00
   99.07        2971.50           2290        9956.00     43463.91
   99.10        2971.75           2294        7193.00     31383.31
   99.13        2972.00           2297        5114.00     22301.05
   99.17        2972.25           2301        2674.00     11650.15
   99.20        2972.50           2305        1001.00      4352.55
   99.23        2972.75           2308         484.00      2098.26
   99.26        2973.00           2312         300.00      1296.06
   99.29        2973.25           2315         275.00      1187.07
   99.32        2973.50           2319         296.00      1278.62
   99.35        2973.75           2322         276.00      1191.43
   99.38        2974.00           2326         243.00      1047.56
   99.41        2974.25           2329         222.00       956.01
   99.44        2974.50           2333         229.00       986.53
   99.47        2974.75           2337         228.00       982.17
   99.50        2975.00           2340         224.00       964.73
   99.53        2975.25           2344         211.00       908.05
   99.57        2975.50           2347         224.00       964.73
   99.60        2975.75           2351         197.00       847.02
   99.63        2976.00           2354         194.00       833.94
   99.66        2976.25           2358         192.00       825.22
   99.69        2976.50           2362         195.00       838.30
   99.72        2976.75           2365         187.00       803.43
   99.75        2977.00           2369         190.00       816.50
   99.78        2977.25           2372         182.00       781.63
   99.81        2977.50           2376         191.00       820.86
   99.84        2977.75           2379         173.00       742.39
   99.87        2978.00           2383         181.00       777.27
   99.90        2978.25           2387         178.00       764.19
   99.93        2978.50           2390         174.00       746.75
   99.96        2978.75           2394         175.00       751.11
   99.99        2979.00           2397         162.00       694.44
  100.02        2979.25           2401         152.00       650.85
  100.05        2979.50           2404         159.00       681.36
  100.09        2979.75           2408         160.00       685.72
  100.12        2980.00           2411         164.00       703.16
  100.15        2980.25           2415         160.00       685.72
  100.18        2980.50           2419         149.00       637.77
  100.21        2980.75           2422         150.00       642.13
  100.24        2981.00           2426         154.00       659.56
  100.27        2981.25           2429         159.00       681.36
  100.30        2981.50           2433         164.00       703.16
  100.33        2981.75           2436         152.00       650.85
  100.36        2982.00           2440         161.00       690.08
  100.39        2982.25           2444         149.00       637.77
  100.42        2982.50           2447         144.00       615.97
  100.45        2982.75           2451         147.00       629.05
  100.48        2983.00           2454         137.00       585.45
  100.51        2983.25           2458         135.00       576.74
  100.54        2983.50           2461         156.00       668.28
  100.57        2983.75           2465         152.00       650.85
  100.61        2984.00           2469         139.00       594.17
HS scan finished at 01:40:49
end
