************************************************************
  HS Scan of (1) Internal mercury lamp
************************************************************
Integration time is 0.2294 seconds per sample
dh180619El Arenosillo 37.1 6.73 2.98pr1000
************************************************************
Dead Time -------------------------  4E-08 
Number of Cycles Used -------------  4 
Starting Wavelength (Angstroms) ---  2950 
Final Wavelength (Angstoms) -------  2984 
Wavelength Increment (Angstroms) --  .25 
Filter Wheel #1 Position ---------- (1) Ground quartz diffuser (ND=2.32)
Filter Wheel #2 Position ---------- (1) Neutral Density 0.494



************************************************************
HS scan start time = 01:59:03
Dark Count =  1.3 


Time (GMT)  Wavelength (Ang)  Step Number  Raw Counts  Counts/Second

  119.80        2950.00           1985         140.00       604.64
  119.98        2950.25           1988         137.00       591.56
  120.01        2950.50           1992         134.00       578.48
  120.05        2950.75           1996         140.00       604.64
  120.08        2951.00           1999         137.00       591.56
  120.11        2951.25           2003         139.00       600.28
  120.14        2951.50           2006         145.00       626.43
  120.17        2951.75           2010         155.00       670.03
  120.20        2952.00           2013         150.00       648.23
  120.23        2952.25           2017         143.00       617.71
  120.26        2952.50           2020         150.00       648.23
  120.29        2952.75           2024         139.00       600.28
  120.32        2953.00           2027         147.00       635.15
  120.35        2953.25           2031         142.00       613.35
  120.38        2953.50           2034         137.00       591.56
  120.41        2953.75           2038         155.00       670.03
  120.44        2954.00           2042         164.00       709.26
  120.47        2954.25           2045         149.00       643.87
  120.50        2954.50           2049         155.00       670.03
  120.53        2954.75           2052         152.00       656.95
  120.57        2955.00           2056         162.00       700.54
  120.60        2955.25           2059         165.00       713.62
  120.63        2955.50           2063         164.00       709.26
  120.66        2955.75           2066         170.00       735.42
  120.69        2956.00           2070         171.00       739.78
  120.72        2956.25           2074         178.00       770.29
  120.75        2956.50           2077         172.00       744.14
  120.78        2956.75           2081         180.00       779.01
  120.81        2957.00           2084         179.00       774.65
  120.84        2957.25           2088         189.00       818.25
  120.87        2957.50           2091         189.00       818.25
  120.90        2957.75           2095         188.00       813.89
  120.93        2958.00           2098         197.00       853.12
  120.96        2958.25           2102         199.00       861.84
  120.99        2958.50           2105         212.00       918.52
  121.02        2958.75           2109         195.00       844.41
  121.05        2959.00           2113         216.00       935.95
  121.08        2959.25           2116         226.00       979.55
  121.12        2959.50           2120         236.00      1023.15
  121.15        2959.75           2123         208.00       901.08
  121.18        2960.00           2127         236.00      1023.15
  121.21        2960.25           2130         256.00      1110.34
  121.24        2960.50           2134         258.00      1119.06
  121.27        2960.75           2137         289.00      1254.20
  121.30        2961.00           2141         270.00      1171.37
  121.33        2961.25           2145         298.00      1293.44
  121.36        2961.50           2148         435.00      1890.73
  121.39        2961.75           2152        1130.00      4921.20
  121.42        2962.00           2155        2374.00     10347.35
  121.45        2962.25           2159        4561.00     19892.46
  121.48        2962.50           2162        6773.00     29554.10
  121.51        2962.75           2166        9848.00     42997.60
  121.54        2963.00           2169       12028.00     52537.06
  121.57        2963.25           2173       15611.00     68231.75
  121.60        2963.50           2177       19063.00     83371.28
  121.64        2963.75           2180       21629.00     94636.99
  121.67        2964.00           2184       24676.00    108027.70
  121.70        2964.25           2187       26994.00    118224.30
  121.73        2964.50           2191       29651.00    129922.40
  121.76        2964.75           2194       31367.00    137483.30
  121.79        2965.00           2198       34798.00    152614.50
  121.82        2965.25           2201       36901.00    161898.10
  121.85        2965.50           2205       39844.00    174901.60
  121.88        2965.75           2209       43339.00    190361.60
  121.91        2966.00           2212       45741.00    200997.90
  121.94        2966.25           2216       47625.00    209346.90
  121.97        2966.50           2219       48276.00    212233.10
  122.00        2966.75           2223       48319.00    212423.70
  122.03        2967.00           2226       48447.00    212991.30
  122.06        2967.25           2230       48184.00    211825.20
  122.09        2967.50           2233       48151.00    211678.80
  122.12        2967.75           2237       48083.00    211377.30
  122.15        2968.00           2241       47247.00    207671.30
  122.18        2968.25           2244       45993.00    202114.40
  122.22        2968.50           2248       42618.00    187170.70
  122.25        2968.75           2251       39865.00    174994.40
  122.28        2969.00           2255       36874.00    161778.90
  122.31        2969.25           2258       34632.00    151882.00
  122.34        2969.50           2262       31444.00    137822.70
  122.37        2969.75           2265       29032.00    127196.10
  122.40        2970.00           2269       25766.00    112821.40
  122.43        2970.25           2273       22531.00     98599.53
  122.46        2970.50           2276       20320.00     88888.72
  122.49        2970.75           2280       16939.00     74053.81
  122.52        2971.00           2283       14696.00     64221.88
  122.55        2971.25           2287       11547.00     50431.62
  122.58        2971.50           2290        9364.00     40880.66
  122.61        2971.75           2294        6662.00     29069.09
  122.64        2972.00           2297        4457.00     19438.39
  122.67        2972.25           2301        2212.00      9640.60
  122.70        2972.50           2305         781.00      3399.33
  122.74        2972.75           2308         431.00      1873.29
  122.77        2973.00           2312         331.00      1437.31
  122.80        2973.25           2315         286.00      1241.13
  122.83        2973.50           2319         282.00      1223.69
  122.86        2973.75           2322         282.00      1223.69
  122.89        2974.00           2326         290.00      1258.56
  122.92        2974.25           2329         257.00      1114.70
  122.95        2974.50           2333         238.00      1031.86
  122.98        2974.75           2337         239.00      1036.22
  123.01        2975.00           2340         226.00       979.55
  123.04        2975.25           2344         222.00       962.11
  123.07        2975.50           2347         211.00       914.16
  123.10        2975.75           2351         192.00       831.33
  123.13        2976.00           2354         216.00       935.95
  123.16        2976.25           2358         208.00       901.08
  123.19        2976.50           2362         198.00       857.48
  123.22        2976.75           2365         204.00       883.64
  123.25        2977.00           2369         210.00       909.80
  123.29        2977.25           2372         200.00       866.20
  123.32        2977.50           2376         188.00       813.89
  123.35        2977.75           2379         193.00       835.69
  123.38        2978.00           2383         183.00       792.09
  123.41        2978.25           2387         178.00       770.29
  123.44        2978.50           2390         182.00       787.73
  123.47        2978.75           2394         180.00       779.01
  123.50        2979.00           2397         179.00       774.65
  123.53        2979.25           2401         188.00       813.89
  123.56        2979.50           2404         172.00       744.14
  123.59        2979.75           2408         164.00       709.26
  123.62        2980.00           2411         171.00       739.78
  123.65        2980.25           2415         168.00       726.70
  123.68        2980.50           2419         161.00       696.18
  123.71        2980.75           2422         156.00       674.39
  123.74        2981.00           2426         171.00       739.78
  123.77        2981.25           2429         155.00       670.03
  123.81        2981.50           2433         162.00       700.54
  123.84        2981.75           2436         170.00       735.42
  123.87        2982.00           2440         161.00       696.18
  123.90        2982.25           2444         162.00       700.54
  123.93        2982.50           2447         150.00       648.23
  123.96        2982.75           2451         152.00       656.95
  123.99        2983.00           2454         149.00       643.87
  124.02        2983.25           2458         142.00       613.35
  124.05        2983.50           2461         131.00       565.40
  124.08        2983.75           2465         139.00       600.28
  124.11        2984.00           2469         135.00       582.84
HS scan finished at 02:04:19
end
************************************************************
  HS Scan of (1) Internal mercury lamp
************************************************************
Integration time is 0.2294 seconds per sample
dh180619El Arenosillo 37.1 6.73 3.19pr1000
************************************************************
Dead Time -------------------------  4E-08 
Number of Cycles Used -------------  4 
Starting Wavelength (Angstroms) ---  2950 
Final Wavelength (Angstoms) -------  2984 
Wavelength Increment (Angstroms) --  .25 
Filter Wheel #1 Position ---------- (1) Ground quartz diffuser (ND=2.32)
Filter Wheel #2 Position ---------- (1) Neutral Density 0.494



************************************************************
HS scan start time = 21:40:13
Dark Count =  3 


Time (GMT)  Wavelength (Ang)  Step Number  Raw Counts  Counts/Second

 1300.98        2950.00           1985         133.00       566.71
 1301.16        2950.25           1988         153.00       653.90
 1301.19        2950.50           1992         124.00       527.47
 1301.22        2950.75           1996         153.00       653.90
 1301.25        2951.00           1999         113.00       479.52
 1301.28        2951.25           2003         133.00       566.71
 1301.31        2951.50           2006         130.00       553.63
 1301.34        2951.75           2010         157.00       671.33
 1301.37        2952.00           2013         150.00       640.82
 1301.40        2952.25           2017         145.00       619.02
 1301.43        2952.50           2020         143.00       610.30
 1301.47        2952.75           2024         146.00       623.38
 1301.50        2953.00           2027         132.00       562.35
 1301.53        2953.25           2031         141.00       601.58
 1301.56        2953.50           2034         140.00       597.22
 1301.59        2953.75           2038         136.00       579.79
 1301.62        2954.00           2042         143.00       610.30
 1301.65        2954.25           2045         156.00       666.98
 1301.68        2954.50           2049         159.00       680.05
 1301.71        2954.75           2052         152.00       649.54
 1301.74        2955.00           2056         170.00       728.01
 1301.77        2955.25           2059         147.00       627.74
 1301.80        2955.50           2063         154.00       658.26
 1301.83        2955.75           2066         152.00       649.54
 1301.86        2956.00           2070         158.00       675.69
 1301.89        2956.25           2074         156.00       666.98
 1301.92        2956.50           2077         177.00       758.52
 1301.95        2956.75           2081         166.00       710.57
 1301.98        2957.00           2084         160.00       684.41
 1302.02        2957.25           2088         171.00       732.37
 1302.05        2957.50           2091         168.00       719.29
 1302.08        2957.75           2095         167.00       714.93
 1302.11        2958.00           2098         180.00       771.60
 1302.14        2958.25           2102         182.00       780.32
 1302.17        2958.50           2105         185.00       793.40
 1302.20        2958.75           2109         204.00       876.23
 1302.23        2959.00           2113         189.00       810.84
 1302.26        2959.25           2116         198.00       850.07
 1302.29        2959.50           2120         193.00       828.28
 1302.32        2959.75           2123         213.00       915.47
 1302.35        2960.00           2127         207.00       889.31
 1302.38        2960.25           2130         231.00       993.94
 1302.41        2960.50           2134         253.00      1089.85
 1302.44        2960.75           2137         224.00       963.42
 1302.47        2961.00           2141         247.00      1063.69
 1302.50        2961.25           2145         409.00      1769.96
 1302.53        2961.50           2148         855.00      3714.59
 1302.57        2961.75           2152        2600.00     11325.97
 1302.60        2962.00           2155        4426.00     19295.62
 1302.63        2962.25           2159        7049.00     30752.72
 1302.66        2962.50           2162        8989.00     39233.28
 1302.69        2962.75           2166       11734.00     51242.68
 1302.72        2963.00           2169       14140.00     61778.46
 1302.75        2963.25           2173       16981.00     74230.55
 1302.78        2963.50           2177       19850.00     86817.97
 1302.81        2963.75           2180       21675.00     94831.59
 1302.84        2964.00           2184       24652.00    107914.70
 1302.87        2964.25           2187       26834.00    117512.70
 1302.90        2964.50           2191       29373.00    128690.40
 1302.93        2964.75           2194       31351.00    137405.30
 1302.96        2965.00           2198       33722.00    147859.70
 1302.99        2965.25           2201       35560.00    155970.00
 1303.02        2965.50           2205       37301.00    163657.20
 1303.05        2965.75           2209       39266.00    172339.10
 1303.09        2966.00           2212       41272.00    181208.50
 1303.12        2966.25           2216       43691.00    191912.20
 1303.15        2966.50           2219       44344.00    194803.20
 1303.18        2966.75           2223       45038.00    197876.50
 1303.21        2967.00           2226       45093.00    198120.10
 1303.24        2967.25           2230       44828.00    196946.50
 1303.27        2967.50           2233       44835.00    196977.50
 1303.30        2967.75           2237       44090.00    193678.60
 1303.33        2968.00           2241       42880.00    188322.60
 1303.36        2968.25           2244       41552.00    182446.90
 1303.39        2968.50           2248       39386.00    172869.50
 1303.42        2968.75           2251       37026.00    162442.70
 1303.45        2969.00           2255       34671.00    152046.60
 1303.48        2969.25           2258       32332.00    141729.70
 1303.51        2969.50           2262       29125.00    127598.20
 1303.54        2969.75           2265       26756.00    117169.50
 1303.57        2970.00           2269       23949.00    104824.00
 1303.60        2970.25           2273       21344.00     93377.78
 1303.64        2970.50           2276       19457.00     85092.98
 1303.67        2970.75           2280       16469.00     71985.53
 1303.70        2971.00           2283       14632.00     63934.00
 1303.73        2971.25           2287       11824.00     51636.62
 1303.76        2971.50           2290        9546.00     41669.23
 1303.79        2971.75           2294        6601.00     28795.14
 1303.82        2972.00           2297        4577.00     19954.89
 1303.85        2972.25           2301        2095.00      9122.77
 1303.88        2972.50           2305         747.00      3243.66
 1303.91        2972.75           2308         381.00      1647.89
 1303.94        2973.00           2312         285.00      1229.35
 1303.97        2973.25           2315         283.00      1220.64
 1304.00        2973.50           2319         250.00      1076.77
 1304.03        2973.75           2322         273.00      1177.04
 1304.06        2974.00           2326         214.00       919.82
 1304.09        2974.25           2329         215.00       924.18
 1304.12        2974.50           2333         218.00       937.26
 1304.16        2974.75           2337         210.00       902.39
 1304.19        2975.00           2340         211.00       906.75
 1304.22        2975.25           2344         201.00       863.15
 1304.25        2975.50           2347         206.00       884.95
 1304.28        2975.75           2351         195.00       836.99
 1304.31        2976.00           2354         191.00       819.56
 1304.34        2976.25           2358         181.00       775.96
 1304.37        2976.50           2362         182.00       780.32
 1304.40        2976.75           2365         182.00       780.32
 1304.43        2977.00           2369         181.00       775.96
 1304.46        2977.25           2372         167.00       714.93
 1304.49        2977.50           2376         173.00       741.09
 1304.52        2977.75           2379         175.00       749.80
 1304.55        2978.00           2383         176.00       754.16
 1304.58        2978.25           2387         167.00       714.93
 1304.61        2978.50           2390         170.00       728.01
 1304.64        2978.75           2394         167.00       714.93
 1304.67        2979.00           2397         151.00       645.18
 1304.71        2979.25           2401         163.00       697.49
 1304.74        2979.50           2404         152.00       649.54
 1304.77        2979.75           2408         170.00       728.01
 1304.80        2980.00           2411         150.00       640.82
 1304.83        2980.25           2415         150.00       640.82
 1304.86        2980.50           2419         179.00       767.24
 1304.89        2980.75           2422         153.00       653.90
 1304.92        2981.00           2426         159.00       680.05
 1304.95        2981.25           2429         148.00       632.10
 1304.98        2981.50           2433         154.00       658.26
 1305.01        2981.75           2436         168.00       719.29
 1305.04        2982.00           2440         132.00       562.35
 1305.07        2982.25           2444         148.00       632.10
 1305.10        2982.50           2447         149.00       636.46
 1305.13        2982.75           2451         141.00       601.58
 1305.16        2983.00           2454         174.00       745.45
 1305.19        2983.25           2458         140.00       597.22
 1305.23        2983.50           2461         133.00       566.71
 1305.26        2983.75           2465         126.00       536.19
 1305.29        2984.00           2469         135.00       575.43
HS scan finished at 21:45:30
end
