************************************************************
  HS Scan of (1) Internal mercury lamp
************************************************************
Integration time is 0.2294 seconds per sample
dh200619El Arenosillo 37.1 6.73 3.05pr1000
************************************************************
Dead Time -------------------------  4E-08 
Number of Cycles Used -------------  4 
Starting Wavelength (Angstroms) ---  2950 
Final Wavelength (Angstoms) -------  2984 
Wavelength Increment (Angstroms) --  .25 
Filter Wheel #1 Position ---------- (1) Ground quartz diffuser (ND=2.32)
Filter Wheel #2 Position ---------- (1) Neutral Density 0.494



************************************************************
HS scan start time = 01:58:58
Dark Count =  2.3 


Time (GMT)  Wavelength (Ang)  Step Number  Raw Counts  Counts/Second

  119.72        2950.00           1985         146.00       626.43
  119.90        2950.25           1988         143.00       613.35
  119.93        2950.50           1992         128.00       547.96
  119.96        2950.75           1996         140.00       600.28
  119.99        2951.00           1999         145.00       622.07
  120.02        2951.25           2003         131.00       561.04
  120.05        2951.50           2006         167.00       717.98
  120.08        2951.75           2010         153.00       656.95
  120.11        2952.00           2013         133.00       569.76
  120.14        2952.25           2017         160.00       687.46
  120.18        2952.50           2020         127.00       543.60
  120.21        2952.75           2024         147.00       630.79
  120.24        2953.00           2027         162.00       696.18
  120.27        2953.25           2031         133.00       569.76
  120.30        2953.50           2034         144.00       617.71
  120.33        2953.75           2038         173.00       744.14
  120.36        2954.00           2042         132.00       565.40
  120.39        2954.25           2045         172.00       739.78
  120.42        2954.50           2049         151.00       648.23
  120.45        2954.75           2052         167.00       717.98
  120.48        2955.00           2056         159.00       683.11
  120.51        2955.25           2059         163.00       700.54
  120.54        2955.50           2063         174.00       748.50
  120.57        2955.75           2066         166.00       713.62
  120.60        2956.00           2070         146.00       626.43
  120.63        2956.25           2074         166.00       713.62
  120.66        2956.50           2077         167.00       717.98
  120.70        2956.75           2081         167.00       717.98
  120.73        2957.00           2084         172.00       739.78
  120.76        2957.25           2088         170.00       731.06
  120.79        2957.50           2091         170.00       731.06
  120.82        2957.75           2095         200.00       861.84
  120.85        2958.00           2098         177.00       761.58
  120.88        2958.25           2102         200.00       861.84
  120.91        2958.50           2105         195.00       840.05
  120.94        2958.75           2109         191.00       822.61
  120.97        2959.00           2113         201.00       866.20
  121.00        2959.25           2116         213.00       918.52
  121.03        2959.50           2120         212.00       914.16
  121.06        2959.75           2123         220.00       949.03
  121.09        2960.00           2127         218.00       940.31
  121.12        2960.25           2130         238.00      1027.51
  121.15        2960.50           2134         226.00       975.19
  121.18        2960.75           2137         260.00      1123.42
  121.22        2961.00           2141         303.00      1310.88
  121.25        2961.25           2145         578.00      2509.84
  121.28        2961.50           2148        1334.00      5806.49
  121.31        2961.75           2152        3309.00     14422.88
  121.34        2962.00           2155        5157.00     22490.59
  121.37        2962.25           2159        7757.00     33850.08
  121.40        2962.50           2162        9831.00     42918.87
  121.43        2962.75           2166       12641.00     55216.42
  121.46        2963.00           2169       14667.00     64090.43
  121.49        2963.25           2173       17643.00     77136.95
  121.52        2963.50           2177       20610.00     90157.59
  121.55        2963.75           2180       22759.00     99596.96
  121.58        2964.00           2184       25108.00    109923.00
  121.61        2964.25           2187       27242.00    119311.30
  121.64        2964.50           2191       30292.00    132741.70
  121.67        2964.75           2194       32213.00    141208.20
  121.70        2965.00           2198       35149.00    154159.10
  121.73        2965.25           2201       37034.00    162481.10
  121.77        2965.50           2205       39863.00    174981.20
  121.80        2965.75           2209       42086.00    184812.40
  121.83        2966.00           2212       43238.00    189910.10
  121.86        2966.25           2216       44868.00    197126.70
  121.89        2966.50           2219       44902.00    197277.30
  121.92        2966.75           2223       44925.00    197379.20
  121.95        2967.00           2226       45022.00    197808.70
  121.98        2967.25           2230       44916.00    197339.30
  122.01        2967.50           2233       44921.00    197361.40
  122.04        2967.75           2237       44544.00    195691.90
  122.07        2968.00           2241       43597.00    191499.20
  122.10        2968.25           2244       41540.00    182397.00
  122.13        2968.50           2248       38146.00    167393.00
  122.16        2968.75           2251       36098.00    158348.10
  122.19        2969.00           2255       33283.00    145926.50
  122.22        2969.25           2258       30920.00    135508.90
  122.25        2969.50           2262       27748.00    121538.40
  122.29        2969.75           2265       25418.00    111286.40
  122.32        2970.00           2269       22757.00     99588.16
  122.35        2970.25           2273       19886.00     86979.07
  122.38        2970.50           2276       17898.00     78255.47
  122.41        2970.75           2280       14853.00     64905.44
  122.44        2971.00           2283       12578.00     54940.58
  122.47        2971.25           2287        9820.00     42870.75
  122.50        2971.50           2290        7778.00     33941.87
  122.53        2971.75           2294        4894.00     21342.10
  122.56        2972.00           2297        3227.00     14065.02
  122.59        2972.25           2301        1485.00      6465.05
  122.62        2972.50           2305         507.00      2200.28
  122.65        2972.75           2308         334.00      1446.03
  122.68        2973.00           2312         292.00      1262.92
  122.71        2973.25           2315         265.00      1145.21
  122.74        2973.50           2319         250.00      1079.82
  122.77        2973.75           2322         249.00      1075.46
  122.81        2974.00           2326         220.00       949.03
  122.84        2974.25           2329         236.00      1018.79
  122.87        2974.50           2333         211.00       909.80
  122.90        2974.75           2337         218.00       940.31
  122.93        2975.00           2340         221.00       953.39
  122.96        2975.25           2344         200.00       861.84
  122.99        2975.50           2347         206.00       888.00
  123.02        2975.75           2351         206.00       888.00
  123.05        2976.00           2354         190.00       818.25
  123.08        2976.25           2358         194.00       835.69
  123.11        2976.50           2362         182.00       783.37
  123.14        2976.75           2365         177.00       761.58
  123.17        2977.00           2369         191.00       822.61
  123.20        2977.25           2372         180.00       774.65
  123.23        2977.50           2376         178.00       765.93
  123.26        2977.75           2379         177.00       761.58
  123.29        2978.00           2383         173.00       744.14
  123.33        2978.25           2387         162.00       696.18
  123.36        2978.50           2390         181.00       779.01
  123.39        2978.75           2394         161.00       691.82
  123.42        2979.00           2397         165.00       709.26
  123.45        2979.25           2401         160.00       687.46
  123.48        2979.50           2404         161.00       691.82
  123.51        2979.75           2408         163.00       700.54
  123.54        2980.00           2411         149.00       639.51
  123.57        2980.25           2415         153.00       656.95
  123.60        2980.50           2419         162.00       696.18
  123.63        2980.75           2422         158.00       678.75
  123.66        2981.00           2426         150.00       643.87
  123.69        2981.25           2429         150.00       643.87
  123.72        2981.50           2433         147.00       630.79
  123.75        2981.75           2436         139.00       595.92
  123.78        2982.00           2440         158.00       678.75
  123.81        2982.25           2444         140.00       600.28
  123.85        2982.50           2447         134.00       574.12
  123.88        2982.75           2451         134.00       574.12
  123.91        2983.00           2454         140.00       600.28
  123.94        2983.25           2458         129.00       552.32
  123.97        2983.50           2461         145.00       622.07
  124.00        2983.75           2465         179.00       770.29
  124.03        2984.00           2469         144.00       617.71
HS scan finished at 02:04:14
end
************************************************************
  HS Scan of (1) Internal mercury lamp
************************************************************
Integration time is 0.2294 seconds per sample
dh200619El Arenosillo 37.1 6.73 3.17pr1000
************************************************************
Dead Time -------------------------  4E-08 
Number of Cycles Used -------------  4 
Starting Wavelength (Angstroms) ---  2950 
Final Wavelength (Angstoms) -------  2984 
Wavelength Increment (Angstroms) --  .25 
Filter Wheel #1 Position ---------- (1) Ground quartz diffuser (ND=2.32)
Filter Wheel #2 Position ---------- (1) Neutral Density 0.494



************************************************************
HS scan start time = 21:40:10
Dark Count =  3.4 


Time (GMT)  Wavelength (Ang)  Step Number  Raw Counts  Counts/Second

 1300.93        2950.00           1985         142.00       604.20
 1301.11        2950.25           1988         143.00       608.56
 1301.15        2950.50           1992         120.00       508.29
 1301.18        2950.75           1996         123.00       521.37
 1301.21        2951.00           1999         150.00       639.07
 1301.24        2951.25           2003         155.00       660.87
 1301.27        2951.50           2006         126.00       534.45
 1301.30        2951.75           2010         144.00       612.92
 1301.33        2952.00           2013         155.00       660.87
 1301.36        2952.25           2017         125.00       530.09
 1301.39        2952.50           2020         161.00       687.03
 1301.42        2952.75           2024         126.00       534.45
 1301.45        2953.00           2027         157.00       669.59
 1301.48        2953.25           2031         166.00       708.83
 1301.51        2953.50           2034         149.00       634.72
 1301.54        2953.75           2038         157.00       669.59
 1301.57        2954.00           2042         140.00       595.48
 1301.60        2954.25           2045         136.00       578.04
 1301.63        2954.50           2049         145.00       617.28
 1301.67        2954.75           2052         146.00       621.64
 1301.70        2955.00           2056         164.00       700.11
 1301.73        2955.25           2059         144.00       612.92
 1301.76        2955.50           2063         153.00       652.15
 1301.79        2955.75           2066         156.00       665.23
 1301.82        2956.00           2070         170.00       726.26
 1301.85        2956.25           2074         170.00       726.26
 1301.88        2956.50           2077         154.00       656.51
 1301.91        2956.75           2081         167.00       713.19
 1301.94        2957.00           2084         163.00       695.75
 1301.97        2957.25           2088         176.00       752.42
 1302.00        2957.50           2091         187.00       800.37
 1302.03        2957.75           2095         173.00       739.34
 1302.06        2958.00           2098         174.00       743.70
 1302.09        2958.25           2102         183.00       782.94
 1302.12        2958.50           2105         197.00       843.97
 1302.15        2958.75           2109         206.00       883.20
 1302.19        2959.00           2113         202.00       865.77
 1302.22        2959.25           2116         195.00       835.25
 1302.25        2959.50           2120         230.00       987.83
 1302.28        2959.75           2123         208.00       891.92
 1302.31        2960.00           2127         237.00      1018.35
 1302.34        2960.25           2130         221.00       948.60
 1302.37        2960.50           2134         241.00      1035.79
 1302.40        2960.75           2137         232.00       996.55
 1302.43        2961.00           2141         307.00      1323.52
 1302.46        2961.25           2145         639.00      2771.01
 1302.49        2961.50           2148        1316.00      5723.19
 1302.52        2961.75           2152        3553.00     15483.00
 1302.55        2962.00           2155        5320.00     23197.63
 1302.58        2962.25           2159        7529.00     32848.72
 1302.61        2962.50           2162        9588.00     41851.17
 1302.64        2962.75           2166       12527.00     54712.46
 1302.67        2963.00           2169       14750.00     64449.28
 1302.71        2963.25           2173       17795.00     77798.85
 1302.74        2963.50           2177       20769.00     90850.91
 1302.77        2963.75           2180       22663.00     99170.29
 1302.80        2964.00           2184       25516.00    111712.60
 1302.83        2964.25           2187       27434.00    120151.50
 1302.86        2964.50           2191       29906.00    131036.40
 1302.89        2964.75           2194       31837.00    139545.70
 1302.92        2965.00           2198       35056.00    153743.80
 1302.95        2965.25           2201       37150.00    162988.60
 1302.98        2965.50           2205       39810.00    174742.00
 1303.01        2965.75           2209       42280.00    185665.90
 1303.04        2966.00           2212       43714.00    192012.30
 1303.07        2966.25           2216       45155.00    198392.90
 1303.10        2966.50           2219       45277.00    198933.30
 1303.13        2966.75           2223       45126.00    198264.50
 1303.16        2967.00           2226       45031.00    197843.80
 1303.19        2967.25           2230       45171.00    198463.80
 1303.23        2967.50           2233       45124.00    198255.60
 1303.26        2967.75           2237       44399.00    195045.00
 1303.29        2968.00           2241       43330.00    190312.50
 1303.32        2968.25           2244       41312.00    181383.60
 1303.35        2968.50           2248       38111.00    167233.50
 1303.38        2968.75           2251       35914.00    157530.90
 1303.41        2969.00           2255       32850.00    144012.00
 1303.44        2969.25           2258       30697.00    134521.40
 1303.47        2969.50           2262       27852.00    121991.40
 1303.50        2969.75           2265       25425.00    111312.30
 1303.53        2970.00           2269       22394.00     97988.38
 1303.56        2970.25           2273       19625.00     85828.59
 1303.59        2970.50           2276       17847.00     78026.93
 1303.62        2970.75           2280       15053.00     65777.03
 1303.65        2971.00           2283       12794.00     55881.53
 1303.68        2971.25           2287        9687.00     42284.19
 1303.71        2971.50           2290        7634.00     33307.65
 1303.75        2971.75           2294        4940.00     21538.17
 1303.78        2972.00           2297        3250.00     14160.59
 1303.81        2972.25           2301        1565.00      6809.18
 1303.84        2972.50           2305         525.00      2273.96
 1303.87        2972.75           2308         323.00      1393.28
 1303.90        2973.00           2312         299.00      1288.65
 1303.93        2973.25           2315         257.00      1105.54
 1303.96        2973.50           2319         248.00      1066.31
 1303.99        2973.75           2322         243.00      1044.51
 1304.02        2974.00           2326         217.00       931.16
 1304.05        2974.25           2329         237.00      1018.35
 1304.08        2974.50           2333         221.00       948.60
 1304.11        2974.75           2337         213.00       913.72
 1304.14        2975.00           2340         213.00       913.72
 1304.17        2975.25           2344         212.00       909.36
 1304.20        2975.50           2347         197.00       843.97
 1304.23        2975.75           2351         200.00       857.05
 1304.27        2976.00           2354         200.00       857.05
 1304.30        2976.25           2358         198.00       848.33
 1304.33        2976.50           2362         189.00       809.09
 1304.36        2976.75           2365         177.00       756.78
 1304.39        2977.00           2369         170.00       726.26
 1304.42        2977.25           2372         175.00       748.06
 1304.45        2977.50           2376         160.00       682.67
 1304.48        2977.75           2379         172.00       734.98
 1304.51        2978.00           2383         175.00       748.06
 1304.54        2978.25           2387         173.00       739.34
 1304.57        2978.50           2390         175.00       748.06
 1304.60        2978.75           2394         158.00       673.95
 1304.63        2979.00           2397         171.00       730.62
 1304.66        2979.25           2401         158.00       673.95
 1304.69        2979.50           2404         158.00       673.95
 1304.72        2979.75           2408         158.00       673.95
 1304.75        2980.00           2411         161.00       687.03
 1304.79        2980.25           2415         145.00       617.28
 1304.82        2980.50           2419         157.00       669.59
 1304.85        2980.75           2422         147.00       626.00
 1304.88        2981.00           2426         144.00       612.92
 1304.91        2981.25           2429         160.00       682.67
 1304.94        2981.50           2433         150.00       639.07
 1304.97        2981.75           2436         149.00       634.72
 1305.00        2982.00           2440         149.00       634.72
 1305.03        2982.25           2444         139.00       591.12
 1305.06        2982.50           2447         152.00       647.79
 1305.09        2982.75           2451         131.00       556.25
 1305.12        2983.00           2454         152.00       647.79
 1305.15        2983.25           2458         170.00       726.26
 1305.18        2983.50           2461         150.00       639.07
 1305.21        2983.75           2465         131.00       556.25
 1305.24        2984.00           2469         146.00       621.64
HS scan finished at 21:45:27
end
