************************************************************
  HS Scan of (1) Internal mercury lamp
************************************************************
Integration time is 0.2294 seconds per sample
dh230619El Arenosillo 37.1 6.73 3.01pr1000
************************************************************
Dead Time -------------------------  4E-08 
Number of Cycles Used -------------  4 
Starting Wavelength (Angstroms) ---  2950 
Final Wavelength (Angstoms) -------  2984 
Wavelength Increment (Angstroms) --  .25 
Filter Wheel #1 Position ---------- (1) Ground quartz diffuser (ND=2.32)
Filter Wheel #2 Position ---------- (1) Neutral Density 0.494



************************************************************
HS scan start time = 00:59:32
Dark Count =  1.9 


Time (GMT)  Wavelength (Ang)  Step Number  Raw Counts  Counts/Second

   60.30        2950.00           1985         171.00       737.16
   60.48        2950.25           1988         163.00       702.29
   60.51        2950.50           1992         183.00       789.48
   60.54        2950.75           1996         182.00       785.12
   60.57        2951.00           1999         167.00       719.72
   60.60        2951.25           2003         174.00       750.24
   60.63        2951.50           2006         182.00       785.12
   60.66        2951.75           2010         170.00       732.80
   60.69        2952.00           2013         181.00       780.76
   60.72        2952.25           2017         176.00       758.96
   60.75        2952.50           2020         179.00       772.04
   60.78        2952.75           2024         188.00       811.27
   60.81        2953.00           2027         183.00       789.48
   60.84        2953.25           2031         182.00       785.12
   60.87        2953.50           2034         186.00       802.55
   60.91        2953.75           2038         185.00       798.19
   60.94        2954.00           2042         197.00       850.51
   60.97        2954.25           2045         202.00       872.31
   61.00        2954.50           2049         200.00       863.59
   61.03        2954.75           2052         225.00       972.57
   61.06        2955.00           2056         193.00       833.07
   61.09        2955.25           2059         214.00       924.62
   61.12        2955.50           2063         212.00       915.90
   61.15        2955.75           2066         208.00       898.46
   61.18        2956.00           2070         212.00       915.90
   61.21        2956.25           2074         221.00       955.14
   61.24        2956.50           2077         218.00       942.06
   61.27        2956.75           2081         241.00      1042.33
   61.30        2957.00           2084         226.00       976.93
   61.33        2957.25           2088         228.00       985.65
   61.36        2957.50           2091         233.00      1007.45
   61.39        2957.75           2095         234.00      1011.81
   61.43        2958.00           2098         269.00      1164.40
   61.46        2958.25           2102         238.00      1029.25
   61.49        2958.50           2105         276.00      1194.91
   61.52        2958.75           2109         267.00      1155.68
   61.55        2959.00           2113         272.00      1177.47
   61.58        2959.25           2116         279.00      1207.99
   61.61        2959.50           2120         286.00      1238.51
   61.64        2959.75           2123         301.00      1303.90
   61.67        2960.00           2127         308.00      1334.42
   61.70        2960.25           2130         303.00      1312.62
   61.73        2960.50           2134         302.00      1308.26
   61.76        2960.75           2137         345.00      1495.73
   61.79        2961.00           2141         341.00      1478.29
   61.82        2961.25           2145         540.00      2345.90
   61.85        2961.50           2148        1095.00      4765.95
   61.88        2961.75           2152        3514.00     15319.32
   61.91        2962.00           2155        5970.00     26043.25
   61.95        2962.25           2159        9166.00     40012.11
   61.98        2962.50           2162       11477.00     50122.62
   62.01        2962.75           2166       15061.00     65818.65
   62.04        2963.00           2169       17646.00     77151.86
   62.07        2963.25           2173       21516.00     94138.03
   62.10        2963.50           2177       25443.00    111398.10
   62.13        2963.75           2180       28333.00    124115.50
   62.16        2964.00           2184       32414.00    142096.10
   62.19        2964.25           2187       35246.00    154589.00
   62.22        2964.50           2191       39409.00    172976.10
   62.25        2964.75           2194       42017.00    184508.90
   62.28        2965.00           2198       45910.00    201744.00
   62.31        2965.25           2201       48940.00    215174.90
   62.34        2965.50           2205       52074.00    229082.20
   62.37        2965.75           2209       56198.00    247406.30
   62.40        2966.00           2212       58571.00    257962.40
   62.43        2966.25           2216       60809.00    267926.30
   62.47        2966.50           2219       61230.00    269801.50
   62.50        2966.75           2223       61245.00    269868.30
   62.53        2967.00           2226       61388.00    270505.30
   62.56        2967.25           2230       61134.00    269373.90
   62.59        2967.50           2233       60963.00    268612.10
   62.62        2967.75           2237       59746.00    263192.70
   62.65        2968.00           2241       57433.00    252899.00
   62.68        2968.25           2244       54822.00    241289.30
   62.71        2968.50           2248       51634.00    227128.70
   62.74        2968.75           2251       49139.00    216057.60
   62.77        2969.00           2255       45676.00    200707.30
   62.80        2969.25           2258       43407.00    190659.90
   62.83        2969.50           2262       39540.00    173555.10
   62.86        2969.75           2265       36435.00    159837.80
   62.89        2970.00           2269       32309.00    141633.20
   62.92        2970.25           2273       28567.00    125145.80
   62.95        2970.50           2276       25611.00    112137.00
   62.99        2970.75           2280       21737.00     95108.74
   63.02        2971.00           2283       18844.00     82407.65
   63.05        2971.25           2287       15414.00     67365.68
   63.08        2971.50           2290       12431.00     54298.71
   63.11        2971.75           2294        8840.00     38586.54
   63.14        2972.00           2297        6110.00     26654.82
   63.17        2972.25           2301        3010.00     13119.79
   63.20        2972.50           2305        1061.00      4617.68
   63.23        2972.75           2308         551.00      2393.86
   63.26        2973.00           2312         398.00      1726.80
   63.29        2973.25           2315         384.00      1665.76
   63.32        2973.50           2319         342.00      1482.65
   63.35        2973.75           2322         320.00      1386.74
   63.38        2974.00           2326         323.00      1399.82
   63.41        2974.25           2329         316.00      1369.30
   63.44        2974.50           2333         301.00      1303.90
   63.47        2974.75           2337         291.00      1260.31
   63.51        2975.00           2340         281.00      1216.71
   63.54        2975.25           2344         284.00      1229.79
   63.57        2975.50           2347         280.00      1212.35
   63.60        2975.75           2351         251.00      1085.92
   63.63        2976.00           2354         274.00      1186.19
   63.66        2976.25           2358         287.00      1242.87
   63.69        2976.50           2362         261.00      1129.52
   63.72        2976.75           2365         260.00      1125.16
   63.75        2977.00           2369         285.00      1234.15
   63.78        2977.25           2372         237.00      1024.89
   63.81        2977.50           2376         244.00      1055.41
   63.84        2977.75           2379         230.00       994.37
   63.87        2978.00           2383         225.00       972.57
   63.90        2978.25           2387         229.00       990.01
   63.93        2978.50           2390         234.00      1011.81
   63.96        2978.75           2394         221.00       955.14
   63.99        2979.00           2397         206.00       889.74
   64.03        2979.25           2401         215.00       928.98
   64.06        2979.50           2404         213.00       920.26
   64.09        2979.75           2408         216.00       933.34
   64.12        2980.00           2411         216.00       933.34
   64.15        2980.25           2415         207.00       894.10
   64.18        2980.50           2419         211.00       911.54
   64.21        2980.75           2422         190.00       819.99
   64.24        2981.00           2426         193.00       833.07
   64.27        2981.25           2429         187.00       806.91
   64.30        2981.50           2433         203.00       876.67
   64.33        2981.75           2436         184.00       793.84
   64.36        2982.00           2440         190.00       819.99
   64.39        2982.25           2444         194.00       837.43
   64.42        2982.50           2447         176.00       758.96
   64.45        2982.75           2451         178.00       767.68
   64.48        2983.00           2454         174.00       750.24
   64.51        2983.25           2458         174.00       750.24
   64.55        2983.50           2461         169.00       728.44
   64.58        2983.75           2465         176.00       758.96
   64.61        2984.00           2469         171.00       737.16
HS scan finished at 01:04:49
end
************************************************************
  HS Scan of (1) Internal mercury lamp
************************************************************
Integration time is 0.2294 seconds per sample
dh230619El Arenosillo 37.1 6.73 3.09pr1000
************************************************************
Dead Time -------------------------  4E-08 
Number of Cycles Used -------------  4 
Starting Wavelength (Angstroms) ---  2950 
Final Wavelength (Angstoms) -------  2984 
Wavelength Increment (Angstroms) --  .25 
Filter Wheel #1 Position ---------- (1) Ground quartz diffuser (ND=2.32)
Filter Wheel #2 Position ---------- (1) Neutral Density 0.494



************************************************************
HS scan start time = 02:00:09
Dark Count =  2.4 


Time (GMT)  Wavelength (Ang)  Step Number  Raw Counts  Counts/Second

  120.90        2950.00           1985         160.00       687.03
  121.08        2950.25           1988         168.00       721.90
  121.11        2950.50           1992         156.00       669.59
  121.14        2950.75           1996         162.00       695.75
  121.17        2951.00           1999         176.00       756.78
  121.20        2951.25           2003         169.00       726.26
  121.24        2951.50           2006         166.00       713.19
  121.27        2951.75           2010         175.00       752.42
  121.30        2952.00           2013         165.00       708.83
  121.33        2952.25           2017         169.00       726.26
  121.36        2952.50           2020         170.00       730.62
  121.39        2952.75           2024         186.00       800.37
  121.42        2953.00           2027         183.00       787.30
  121.45        2953.25           2031         177.00       761.14
  121.48        2953.50           2034         188.00       809.09
  121.51        2953.75           2038         180.00       774.22
  121.54        2954.00           2042         205.00       883.20
  121.57        2954.25           2045         198.00       852.69
  121.60        2954.50           2049         188.00       809.09
  121.63        2954.75           2052         209.00       900.64
  121.66        2955.00           2056         189.00       813.45
  121.69        2955.25           2059         206.00       887.56
  121.72        2955.50           2063         216.00       931.16
  121.76        2955.75           2066         215.00       926.80
  121.79        2956.00           2070         215.00       926.80
  121.82        2956.25           2074         207.00       891.92
  121.85        2956.50           2077         216.00       931.16
  121.88        2956.75           2081         222.00       957.32
  121.91        2957.00           2084         226.00       974.75
  121.94        2957.25           2088         303.00      1310.44
  121.97        2957.50           2091         238.00      1027.07
  122.00        2957.75           2095         239.00      1031.43
  122.03        2958.00           2098         244.00      1053.23
  122.06        2958.25           2102         296.00      1279.93
  122.09        2958.50           2105         268.00      1157.86
  122.12        2958.75           2109         262.00      1131.70
  122.15        2959.00           2113         271.00      1170.94
  122.18        2959.25           2116         272.00      1175.30
  122.21        2959.50           2120         282.00      1218.89
  122.24        2959.75           2123         293.00      1266.85
  122.28        2960.00           2127         289.00      1249.41
  122.31        2960.25           2130         336.00      1454.31
  122.34        2960.50           2134         299.00      1293.01
  122.37        2960.75           2137         317.00      1371.48
  122.40        2961.00           2141         334.00      1445.59
  122.43        2961.25           2145         462.00      2003.65
  122.46        2961.50           2148         909.00      3952.67
  122.49        2961.75           2152        2588.00     11276.23
  122.52        2962.00           2155        5201.00     22682.30
  122.55        2962.25           2159        9221.00     40250.46
  122.58        2962.50           2162       11680.00     51008.94
  122.61        2962.75           2166       15245.00     66622.82
  122.64        2963.00           2169       18248.00     79790.44
  122.67        2963.25           2173       22342.00     97764.31
  122.70        2963.50           2177       26229.00    114853.40
  122.73        2963.75           2180       28768.00    126028.70
  122.76        2964.00           2184       33013.00    144735.30
  122.80        2964.25           2187       35741.00    156771.70
  122.83        2964.50           2191       40209.00    176510.40
  122.86        2964.75           2194       43340.00    190361.20
  122.89        2965.00           2198       46750.00    205463.70
  122.92        2965.25           2201       49387.00    217155.40
  122.95        2965.50           2205       52992.00    233156.50
  122.98        2965.75           2209       56211.00    247461.90
  123.01        2966.00           2212       58161.00    256135.70
  123.04        2966.25           2216       59611.00    262589.40
  123.07        2966.50           2219       59613.00    262598.30
  123.10        2966.75           2223       60127.00    264886.90
  123.13        2967.00           2226       60012.00    264374.80
  123.16        2967.25           2230       60127.00    264886.90
  123.19        2967.50           2233       59696.00    262967.80
  123.22        2967.75           2237       58700.00    258534.30
  123.25        2968.00           2241       56174.00    247297.30
  123.28        2968.25           2244       53334.00    234675.60
  123.32        2968.50           2248       49914.00    219493.20
  123.35        2968.75           2251       47502.00    208796.80
  123.38        2969.00           2255       43922.00    192937.50
  123.41        2969.25           2258       41016.00    180078.90
  123.44        2969.50           2262       37463.00    164375.40
  123.47        2969.75           2265       34489.00    151246.20
  123.50        2970.00           2269       30920.00    135508.50
  123.53        2970.25           2273       26897.00    117792.60
  123.56        2970.50           2276       23974.00    104936.50
  123.59        2970.75           2280       20172.00     88234.14
  123.62        2971.00           2283       17436.00     76228.60
  123.65        2971.25           2287       13662.00     59687.24
  123.68        2971.50           2290       11107.00     48501.15
  123.71        2971.75           2294        7469.00     32590.85
  123.74        2972.00           2297        4810.00     20974.87
  123.77        2972.25           2301        2073.00      9029.42
  123.80        2972.50           2305         664.00      2884.38
  123.83        2972.75           2308         418.00      1811.81
  123.87        2973.00           2312         391.00      1694.10
  123.90        2973.25           2315         330.00      1428.15
  123.93        2973.50           2319         320.00      1384.56
  123.96        2973.75           2322         331.00      1432.51
  123.99        2974.00           2326         307.00      1327.88
  124.02        2974.25           2329         302.00      1306.08
  124.05        2974.50           2333         284.00      1227.61
  124.08        2974.75           2337         271.00      1170.94
  124.11        2975.00           2340         281.00      1214.53
  124.14        2975.25           2344         295.00      1275.57
  124.17        2975.50           2347         259.00      1118.62
  124.20        2975.75           2351         260.00      1122.98
  124.23        2976.00           2354         251.00      1083.74
  124.26        2976.25           2358         258.00      1114.26
  124.29        2976.50           2362         256.00      1105.54
  124.32        2976.75           2365         241.00      1040.15
  124.35        2977.00           2369         246.00      1061.95
  124.39        2977.25           2372         237.00      1022.71
  124.42        2977.50           2376         256.00      1105.54
  124.45        2977.75           2379         237.00      1022.71
  124.48        2978.00           2383         219.00       944.24
  124.51        2978.25           2387         217.00       935.52
  124.54        2978.50           2390         229.00       987.83
  124.57        2978.75           2394         201.00       865.77
  124.60        2979.00           2397         205.00       883.20
  124.63        2979.25           2401         203.00       874.49
  124.66        2979.50           2404         201.00       865.77
  124.69        2979.75           2408         202.00       870.13
  124.72        2980.00           2411         197.00       848.33
  124.75        2980.25           2415         186.00       800.37
  124.78        2980.50           2419         197.00       848.33
  124.81        2980.75           2422         186.00       800.37
  124.84        2981.00           2426         195.00       839.61
  124.87        2981.25           2429         185.00       796.01
  124.91        2981.50           2433         173.00       743.70
  124.94        2981.75           2436         178.00       765.50
  124.97        2982.00           2440         177.00       761.14
  125.00        2982.25           2444         174.00       748.06
  125.03        2982.50           2447         176.00       756.78
  125.06        2982.75           2451         171.00       734.98
  125.09        2983.00           2454         171.00       734.98
  125.12        2983.25           2458         164.00       704.47
  125.15        2983.50           2461         164.00       704.47
  125.18        2983.75           2465         158.00       678.31
  125.21        2984.00           2469         180.00       774.22
HS scan finished at 02:05:25
end
************************************************************
  HS Scan of (1) Internal mercury lamp
************************************************************
Integration time is 0.2294 seconds per sample
dh230619El Arenosillo 37.1 6.73 3.15pr1000
************************************************************
Dead Time -------------------------  4E-08 
Number of Cycles Used -------------  4 
Starting Wavelength (Angstroms) ---  2950 
Final Wavelength (Angstoms) -------  2984 
Wavelength Increment (Angstroms) --  .25 
Filter Wheel #1 Position ---------- (1) Ground quartz diffuser (ND=2.32)
Filter Wheel #2 Position ---------- (1) Neutral Density 0.494



************************************************************
HS scan start time = 21:45:39
Dark Count =  3.6 


Time (GMT)  Wavelength (Ang)  Step Number  Raw Counts  Counts/Second

 1306.41        2950.00           1985         187.00       799.50
 1306.59        2950.25           1988         187.00       799.50
 1306.62        2950.50           1992         177.00       755.91
 1306.65        2950.75           1996         176.00       751.55
 1306.68        2951.00           1999         174.00       742.83
 1306.71        2951.25           2003         207.00       886.69
 1306.74        2951.50           2006         196.00       838.74
 1306.77        2951.75           2010         199.00       851.82
 1306.80        2952.00           2013         181.00       773.35
 1306.84        2952.25           2017         196.00       838.74
 1306.87        2952.50           2020         234.00      1004.40
 1306.90        2952.75           2024         189.00       808.22
 1306.93        2953.00           2027         197.00       843.10
 1306.96        2953.25           2031         210.00       899.77
 1306.99        2953.50           2034         211.00       904.13
 1307.02        2953.75           2038         209.00       895.41
 1307.05        2954.00           2042         213.00       912.85
 1307.08        2954.25           2045         236.00      1013.12
 1307.11        2954.50           2049         226.00       969.52
 1307.14        2954.75           2052         247.00      1061.07
 1307.17        2955.00           2056         250.00      1074.15
 1307.20        2955.25           2059         211.00       904.13
 1307.23        2955.50           2063         239.00      1026.20
 1307.26        2955.75           2066         224.00       960.80
 1307.29        2956.00           2070         293.00      1261.62
 1307.32        2956.25           2074         253.00      1087.23
 1307.36        2956.50           2077         264.00      1135.19
 1307.39        2956.75           2081         242.00      1039.28
 1307.42        2957.00           2084         244.00      1048.00
 1307.45        2957.25           2088         240.00      1030.56
 1307.48        2957.50           2091         285.00      1226.74
 1307.51        2957.75           2095         273.00      1174.42
 1307.54        2958.00           2098         273.00      1174.42
 1307.57        2958.25           2102         261.00      1122.11
 1307.60        2958.50           2105         273.00      1174.42
 1307.63        2958.75           2109         294.00      1265.98
 1307.66        2959.00           2113         292.00      1257.26
 1307.69        2959.25           2116         309.00      1331.37
 1307.72        2959.50           2120         311.00      1340.09
 1307.75        2959.75           2123         339.00      1462.16
 1307.78        2960.00           2127         326.00      1405.48
 1307.81        2960.25           2130         368.00      1588.59
 1307.85        2960.50           2134         353.00      1523.20
 1307.88        2960.75           2137         382.00      1649.63
 1307.91        2961.00           2141         432.00      1867.62
 1307.94        2961.25           2145         941.00      4086.98
 1307.97        2961.50           2148        2182.00      9499.68
 1308.00        2961.75           2152        5732.00     24996.21
 1308.03        2962.00           2155        8819.00     38487.28
 1308.06        2962.25           2159       12527.00     54711.58
 1308.09        2962.50           2162       15553.00     67967.45
 1308.12        2962.75           2166       19641.00     85897.96
 1308.15        2963.00           2169       23144.00    101283.10
 1308.18        2963.25           2173       27608.00    120916.50
 1308.21        2963.50           2177       32150.00    140924.70
 1308.24        2963.75           2180       35261.00    154647.70
 1308.27        2964.00           2184       39511.00    173419.40
 1308.30        2964.25           2187       42897.00    188395.20
 1308.33        2964.50           2191       47325.00    208006.90
 1308.36        2964.75           2194       50206.00    220783.50
 1308.40        2965.00           2198       54570.00    240161.80
 1308.43        2965.25           2201       57554.00    253429.70
 1308.46        2965.50           2205       61595.00    271419.90
 1308.49        2965.75           2209       65642.00    289463.00
 1308.52        2966.00           2212       67859.00    299358.40
 1308.55        2966.25           2216       69110.00    304945.50
 1308.58        2966.50           2219       69370.00    306107.10
 1308.61        2966.75           2223       69463.00    306522.60
 1308.64        2967.00           2226       69285.00    305727.40
 1308.67        2967.25           2230       69320.00    305883.70
 1308.70        2967.50           2233       69213.00    305405.70
 1308.73        2967.75           2237       67453.00    297545.60
 1308.76        2968.00           2241       64574.00    284698.90
 1308.79        2968.25           2244       61902.00    272787.70
 1308.82        2968.50           2248       58108.00    255894.50
 1308.85        2968.75           2251       54400.00    239406.40
 1308.88        2969.00           2255       51130.00    224884.00
 1308.92        2969.25           2258       48639.00    213832.50
 1308.95        2969.50           2262       44778.00    196722.40
 1308.98        2969.75           2265       41772.00    183417.50
 1309.01        2970.00           2269       37462.00    164365.70
 1309.04        2970.25           2273       33057.00    144924.00
 1309.07        2970.50           2276       30047.00    131656.60
 1309.10        2970.75           2280       25502.00    111650.10
 1309.13        2971.00           2283       22087.00     96638.75
 1309.16        2971.25           2287       17409.00     76104.91
 1309.19        2971.50           2290       14396.00     62897.37
 1309.22        2971.75           2294       10131.00     44225.51
 1309.25        2972.00           2297        7193.00     31379.38
 1309.28        2972.25           2301        3747.00     16328.88
 1309.31        2972.50           2305        1353.00      5883.69
 1309.34        2972.75           2308         688.00      2983.79
 1309.37        2973.00           2312         443.00      1915.58
 1309.40        2973.25           2315         395.00      1706.31
 1309.44        2973.50           2319         393.00      1697.59
 1309.47        2973.75           2322         379.00      1636.55
 1309.50        2974.00           2326         366.00      1579.87
 1309.53        2974.25           2329         347.00      1497.04
 1309.56        2974.50           2333         361.00      1558.07
 1309.59        2974.75           2337         336.00      1449.08
 1309.62        2975.00           2340         314.00      1353.17
 1309.65        2975.25           2344         313.00      1348.81
 1309.68        2975.50           2347         318.00      1370.61
 1309.71        2975.75           2351         308.00      1327.01
 1309.74        2976.00           2354         303.00      1305.21
 1309.77        2976.25           2358         281.00      1209.30
 1309.80        2976.50           2362         288.00      1239.82
 1309.83        2976.75           2365         308.00      1327.01
 1309.86        2977.00           2369         266.00      1143.91
 1309.89        2977.25           2372         279.00      1200.58
 1309.92        2977.50           2376         271.00      1165.70
 1309.96        2977.75           2379         271.00      1165.70
 1309.99        2978.00           2383         265.00      1139.55
 1310.02        2978.25           2387         241.00      1034.92
 1310.05        2978.50           2390         243.00      1043.64
 1310.08        2978.75           2394         242.00      1039.28
 1310.11        2979.00           2397         239.00      1026.20
 1310.14        2979.25           2401         234.00      1004.40
 1310.17        2979.50           2404         230.00       986.96
 1310.20        2979.75           2408         251.00      1078.51
 1310.23        2980.00           2411         238.00      1021.84
 1310.26        2980.25           2415         213.00       912.85
 1310.29        2980.50           2419         229.00       982.60
 1310.32        2980.75           2422         222.00       952.09
 1310.35        2981.00           2426         209.00       895.41
 1310.38        2981.25           2429         223.00       956.44
 1310.41        2981.50           2433         213.00       912.85
 1310.44        2981.75           2436         203.00       869.25
 1310.48        2982.00           2440         215.00       921.57
 1310.51        2982.25           2444         209.00       895.41
 1310.54        2982.50           2447         195.00       834.38
 1310.57        2982.75           2451         196.00       838.74
 1310.60        2983.00           2454         202.00       864.89
 1310.63        2983.25           2458         205.00       877.97
 1310.66        2983.50           2461         187.00       799.50
 1310.69        2983.75           2465         183.00       782.06
 1310.72        2984.00           2469         187.00       799.50
HS scan finished at 21:50:56
end
