************************************************************
  HS Scan of (1) Internal mercury lamp
************************************************************
Integration time is 0.2294 seconds per sample
dh200619El Arenosillo 37.1 6.73 3.05pr1000
************************************************************
Dead Time -------------------------  4E-08 
Number of Cycles Used -------------  4 
Starting Wavelength (Angstroms) ---  2950 
Final Wavelength (Angstoms) -------  2984 
Wavelength Increment (Angstroms) --  .25 
Filter Wheel #1 Position ---------- (1) Ground quartz diffuser (ND=2.32)
Filter Wheel #2 Position ---------- (1) Neutral Density 0.494



************************************************************
HS scan start time = 01:58:58
Dark Count =  2.3 


Time (GMT)  Wavelength (Ang)  Step Number  Raw Counts  Counts/Second

  119.72        2950.00           1985         146.00       626.43
  119.90        2950.25           1988         143.00       613.35
  119.93        2950.50           1992         128.00       547.96
  119.96        2950.75           1996         140.00       600.28
  119.99        2951.00           1999         145.00       622.07
  120.02        2951.25           2003         131.00       561.04
  120.05        2951.50           2006         167.00       717.98
  120.08        2951.75           2010         153.00       656.95
  120.11        2952.00           2013         133.00       569.76
  120.14        2952.25           2017         160.00       687.46
  120.18        2952.50           2020         127.00       543.60
  120.21        2952.75           2024         147.00       630.79
  120.24        2953.00           2027         162.00       696.18
  120.27        2953.25           2031         133.00       569.76
  120.30        2953.50           2034         144.00       617.71
  120.33        2953.75           2038         173.00       744.14
  120.36        2954.00           2042         132.00       565.40
  120.39        2954.25           2045         172.00       739.78
  120.42        2954.50           2049         151.00       648.23
  120.45        2954.75           2052         167.00       717.98
  120.48        2955.00           2056         159.00       683.11
  120.51        2955.25           2059         163.00       700.54
  120.54        2955.50           2063         174.00       748.50
  120.57        2955.75           2066         166.00       713.62
  120.60        2956.00           2070         146.00       626.43
  120.63        2956.25           2074         166.00       713.62
  120.66        2956.50           2077         167.00       717.98
  120.70        2956.75           2081         167.00       717.98
  120.73        2957.00           2084         172.00       739.78
  120.76        2957.25           2088         170.00       731.06
  120.79        2957.50           2091         170.00       731.06
  120.82        2957.75           2095         200.00       861.84
  120.85        2958.00           2098         177.00       761.58
  120.88        2958.25           2102         200.00       861.84
  120.91        2958.50           2105         195.00       840.05
  120.94        2958.75           2109         191.00       822.61
  120.97        2959.00           2113         201.00       866.20
  121.00        2959.25           2116         213.00       918.52
  121.03        2959.50           2120         212.00       914.16
  121.06        2959.75           2123         220.00       949.03
  121.09        2960.00           2127         218.00       940.31
  121.12        2960.25           2130         238.00      1027.51
  121.15        2960.50           2134         226.00       975.19
  121.18        2960.75           2137         260.00      1123.42
  121.22        2961.00           2141         303.00      1310.88
  121.25        2961.25           2145         578.00      2509.84
  121.28        2961.50           2148        1334.00      5806.49
  121.31        2961.75           2152        3309.00     14422.88
  121.34        2962.00           2155        5157.00     22490.59
  121.37        2962.25           2159        7757.00     33850.08
  121.40        2962.50           2162        9831.00     42918.87
  121.43        2962.75           2166       12641.00     55216.42
  121.46        2963.00           2169       14667.00     64090.43
  121.49        2963.25           2173       17643.00     77136.95
  121.52        2963.50           2177       20610.00     90157.59
  121.55        2963.75           2180       22759.00     99596.96
  121.58        2964.00           2184       25108.00    109923.00
  121.61        2964.25           2187       27242.00    119311.30
  121.64        2964.50           2191       30292.00    132741.70
  121.67        2964.75           2194       32213.00    141208.20
  121.70        2965.00           2198       35149.00    154159.10
  121.73        2965.25           2201       37034.00    162481.10
  121.77        2965.50           2205       39863.00    174981.20
  121.80        2965.75           2209       42086.00    184812.40
  121.83        2966.00           2212       43238.00    189910.10
  121.86        2966.25           2216       44868.00    197126.70
  121.89        2966.50           2219       44902.00    197277.30
  121.92        2966.75           2223       44925.00    197379.20
  121.95        2967.00           2226       45022.00    197808.70
  121.98        2967.25           2230       44916.00    197339.30
  122.01        2967.50           2233       44921.00    197361.40
  122.04        2967.75           2237       44544.00    195691.90
  122.07        2968.00           2241       43597.00    191499.20
  122.10        2968.25           2244       41540.00    182397.00
  122.13        2968.50           2248       38146.00    167393.00
  122.16        2968.75           2251       36098.00    158348.10
  122.19        2969.00           2255       33283.00    145926.50
  122.22        2969.25           2258       30920.00    135508.90
  122.25        2969.50           2262       27748.00    121538.40
  122.29        2969.75           2265       25418.00    111286.40
  122.32        2970.00           2269       22757.00     99588.16
  122.35        2970.25           2273       19886.00     86979.07
  122.38        2970.50           2276       17898.00     78255.47
  122.41        2970.75           2280       14853.00     64905.44
  122.44        2971.00           2283       12578.00     54940.58
  122.47        2971.25           2287        9820.00     42870.75
  122.50        2971.50           2290        7778.00     33941.87
  122.53        2971.75           2294        4894.00     21342.10
  122.56        2972.00           2297        3227.00     14065.02
  122.59        2972.25           2301        1485.00      6465.05
  122.62        2972.50           2305         507.00      2200.28
  122.65        2972.75           2308         334.00      1446.03
  122.68        2973.00           2312         292.00      1262.92
  122.71        2973.25           2315         265.00      1145.21
  122.74        2973.50           2319         250.00      1079.82
  122.77        2973.75           2322         249.00      1075.46
  122.81        2974.00           2326         220.00       949.03
  122.84        2974.25           2329         236.00      1018.79
  122.87        2974.50           2333         211.00       909.80
  122.90        2974.75           2337         218.00       940.31
  122.93        2975.00           2340         221.00       953.39
  122.96        2975.25           2344         200.00       861.84
  122.99        2975.50           2347         206.00       888.00
  123.02        2975.75           2351         206.00       888.00
  123.05        2976.00           2354         190.00       818.25
  123.08        2976.25           2358         194.00       835.69
  123.11        2976.50           2362         182.00       783.37
  123.14        2976.75           2365         177.00       761.58
  123.17        2977.00           2369         191.00       822.61
  123.20        2977.25           2372         180.00       774.65
  123.23        2977.50           2376         178.00       765.93
  123.26        2977.75           2379         177.00       761.58
  123.29        2978.00           2383         173.00       744.14
  123.33        2978.25           2387         162.00       696.18
  123.36        2978.50           2390         181.00       779.01
  123.39        2978.75           2394         161.00       691.82
  123.42        2979.00           2397         165.00       709.26
  123.45        2979.25           2401         160.00       687.46
  123.48        2979.50           2404         161.00       691.82
  123.51        2979.75           2408         163.00       700.54
  123.54        2980.00           2411         149.00       639.51
  123.57        2980.25           2415         153.00       656.95
  123.60        2980.50           2419         162.00       696.18
  123.63        2980.75           2422         158.00       678.75
  123.66        2981.00           2426         150.00       643.87
  123.69        2981.25           2429         150.00       643.87
  123.72        2981.50           2433         147.00       630.79
  123.75        2981.75           2436         139.00       595.92
  123.78        2982.00           2440         158.00       678.75
  123.81        2982.25           2444         140.00       600.28
  123.85        2982.50           2447         134.00       574.12
  123.88        2982.75           2451         134.00       574.12
  123.91        2983.00           2454         140.00       600.28
  123.94        2983.25           2458         129.00       552.32
  123.97        2983.50           2461         145.00       622.07
  124.00        2983.75           2465         179.00       770.29
  124.03        2984.00           2469         144.00       617.71
HS scan finished at 02:04:14
end
