************************************************************
  HS Scan of (1) Internal mercury lamp
************************************************************
Integration time is 0.2294 seconds per sample
dh190619El Arenosillo 37.1 6.73 3.21pr1000
************************************************************
Dead Time -------------------------  4E-08 
Number of Cycles Used -------------  4 
Starting Wavelength (Angstroms) ---  2950 
Final Wavelength (Angstoms) -------  2984 
Wavelength Increment (Angstroms) --  .25 
Filter Wheel #1 Position ---------- (1) Ground quartz diffuser (ND=2.32)
Filter Wheel #2 Position ---------- (1) Neutral Density 0.494



************************************************************
HS scan start time = 02:00:42
Dark Count =  3.1 


Time (GMT)  Wavelength (Ang)  Step Number  Raw Counts  Counts/Second

  121.46        2950.00           1985         136.00       579.35
  121.65        2950.25           1988         124.00       527.04
  121.68        2950.50           1992         134.00       570.63
  121.71        2950.75           1996         118.00       500.88
  121.74        2951.00           1999         125.00       531.40
  121.77        2951.25           2003         125.00       531.40
  121.80        2951.50           2006         116.00       492.16
  121.83        2951.75           2010         129.00       548.84
  121.86        2952.00           2013         147.00       627.30
  121.89        2952.25           2017         129.00       548.84
  121.92        2952.50           2020         127.00       540.12
  121.95        2952.75           2024         138.00       588.07
  121.98        2953.00           2027         139.00       592.43
  122.01        2953.25           2031         151.00       644.74
  122.04        2953.50           2034         145.00       618.59
  122.07        2953.75           2038         143.00       609.87
  122.10        2954.00           2042         147.00       627.30
  122.13        2954.25           2045         162.00       692.70
  122.16        2954.50           2049         151.00       644.74
  122.20        2954.75           2052         140.00       596.79
  122.23        2955.00           2056         144.00       614.23
  122.26        2955.25           2059         143.00       609.87
  122.29        2955.50           2063         158.00       675.26
  122.32        2955.75           2066         174.00       745.01
  122.35        2956.00           2070         156.00       666.54
  122.38        2956.25           2074         166.00       710.13
  122.41        2956.50           2077         159.00       679.62
  122.44        2956.75           2081         181.00       775.53
  122.47        2957.00           2084         171.00       731.93
  122.50        2957.25           2088         160.00       683.98
  122.53        2957.50           2091         168.00       718.85
  122.56        2957.75           2095         171.00       731.93
  122.59        2958.00           2098         169.00       723.21
  122.62        2958.25           2102         184.00       788.60
  122.65        2958.50           2105         181.00       775.53
  122.68        2958.75           2109         199.00       854.00
  122.72        2959.00           2113         196.00       840.92
  122.75        2959.25           2116         214.00       919.39
  122.78        2959.50           2120         205.00       880.15
  122.81        2959.75           2123         215.00       923.75
  122.84        2960.00           2127         211.00       906.31
  122.87        2960.25           2130         234.00      1006.58
  122.90        2960.50           2134         230.00       989.14
  122.93        2960.75           2137         236.00      1015.30
  122.96        2961.00           2141         276.00      1189.68
  122.99        2961.25           2145         528.00      2288.35
  123.02        2961.50           2148        1173.00      5100.87
  123.05        2961.75           2152        3034.00     13219.28
  123.08        2962.00           2155        4758.00     20744.76
  123.11        2962.25           2159        7297.00     31836.07
  123.14        2962.50           2162        9369.00     40894.65
  123.17        2962.75           2166       12069.00     52708.66
  123.20        2963.00           2169       14086.00     61541.46
  123.23        2963.25           2173       16742.00     73182.10
  123.27        2963.50           2177       19616.00     85790.41
  123.30        2963.75           2180       21908.00     95854.62
  123.33        2964.00           2184       24574.00    107571.30
  123.36        2964.25           2187       26862.00    117635.50
  123.39        2964.50           2191       29922.00    131108.20
  123.42        2964.75           2194       31914.00    139886.50
  123.45        2965.00           2198       34493.00    151260.70
  123.48        2965.25           2201       36543.00    160309.40
  123.51        2965.50           2205       38897.00    170707.90
  123.54        2965.75           2209       41558.00    182473.10
  123.57        2966.00           2212       43064.00    189136.50
  123.60        2966.25           2216       44211.00    194213.90
  123.63        2966.50           2219       44545.00    195692.80
  123.66        2966.75           2223       44736.00    196538.60
  123.69        2967.00           2226       44204.00    194182.90
  123.72        2967.25           2230       44683.00    196303.90
  123.75        2967.50           2233       44425.00    195161.50
  123.79        2967.75           2237       43814.00    192456.30
  123.82        2968.00           2241       42053.00    184662.80
  123.85        2968.25           2244       39914.00    175203.10
  123.88        2968.50           2248       36956.00    162133.10
  123.91        2968.75           2251       35025.00    153608.30
  123.94        2969.00           2255       31905.00    139846.80
  123.97        2969.25           2258       29907.00    131042.10
  124.00        2969.50           2262       26914.00    117864.30
  124.03        2969.75           2265       24647.00    107892.30
  124.06        2970.00           2269       21618.00     94580.78
  124.09        2970.25           2273       18904.00     82665.66
  124.12        2970.50           2276       16957.00     74124.86
  124.15        2970.75           2280       14555.00     63596.20
  124.18        2971.00           2283       12321.00     53811.88
  124.21        2971.25           2287        9326.00     40706.60
  124.24        2971.50           2290        7333.00     31993.40
  124.27        2971.75           2294        4423.00     19282.08
  124.30        2972.00           2297        2524.00     10993.94
  124.34        2972.25           2301        1055.00      4586.28
  124.37        2972.50           2305         428.00      1852.36
  124.40        2972.75           2308         305.00      1316.11
  124.43        2973.00           2312         280.00      1207.12
  124.46        2973.25           2315         267.00      1150.45
  124.49        2973.50           2319         283.00      1220.20
  124.52        2973.75           2322         225.00       967.34
  124.55        2974.00           2326         227.00       976.06
  124.58        2974.25           2329         237.00      1019.66
  124.61        2974.50           2333         222.00       954.26
  124.64        2974.75           2337         202.00       867.07
  124.67        2975.00           2340         205.00       880.15
  124.70        2975.25           2344         202.00       867.07
  124.73        2975.50           2347         204.00       875.79
  124.76        2975.75           2351         187.00       801.68
  124.79        2976.00           2354         192.00       823.48
  124.82        2976.25           2358         185.00       792.96
  124.86        2976.50           2362         176.00       753.73
  124.89        2976.75           2365         178.00       762.45
  124.92        2977.00           2369         172.00       736.29
  124.95        2977.25           2372         177.00       758.09
  124.98        2977.50           2376         167.00       714.49
  125.01        2977.75           2379         165.00       705.77
  125.04        2978.00           2383         167.00       714.49
  125.07        2978.25           2387         163.00       697.06
  125.10        2978.50           2390         160.00       683.98
  125.13        2978.75           2394         170.00       727.57
  125.16        2979.00           2397         162.00       692.70
  125.19        2979.25           2401         164.00       701.41
  125.22        2979.50           2404         150.00       640.38
  125.25        2979.75           2408         157.00       670.90
  125.28        2980.00           2411         147.00       627.30
  125.31        2980.25           2415         137.00       583.71
  125.34        2980.50           2419         156.00       666.54
  125.37        2980.75           2422         135.00       574.99
  125.40        2981.00           2426         134.00       570.63
  125.44        2981.25           2429         151.00       644.74
  125.47        2981.50           2433         144.00       614.23
  125.50        2981.75           2436         159.00       679.62
  125.53        2982.00           2440         181.00       775.53
  125.56        2982.25           2444         142.00       605.51
  125.59        2982.50           2447         124.00       527.04
  125.62        2982.75           2451         142.00       605.51
  125.65        2983.00           2454         125.00       531.40
  125.68        2983.25           2458         142.00       605.51
  125.71        2983.50           2461         119.00       505.24
  125.74        2983.75           2465         138.00       588.07
  125.77        2984.00           2469         135.00       574.99
HS scan finished at 02:05:59
end
