************************************************************
  HS Scan of (1) Internal mercury lamp
************************************************************
Integration time is 0.2294 seconds per sample
dh220619El Arenosillo 37.1 6.73 3.27pr1000
************************************************************
Dead Time -------------------------  4E-08 
Number of Cycles Used -------------  4 
Starting Wavelength (Angstroms) ---  2950 
Final Wavelength (Angstoms) -------  2984 
Wavelength Increment (Angstroms) --  .25 
Filter Wheel #1 Position ---------- (1) Ground quartz diffuser (ND=2.32)
Filter Wheel #2 Position ---------- (1) Neutral Density 0.494



************************************************************
HS scan start time = 02:00:07
Dark Count =  4.3 


Time (GMT)  Wavelength (Ang)  Step Number  Raw Counts  Counts/Second

  120.88        2950.00           1985         162.00       687.46
  121.06        2950.25           1988         168.00       713.62
  121.09        2950.50           1992         172.00       731.06
  121.12        2950.75           1996         150.00       635.15
  121.15        2951.00           1999         157.00       665.67
  121.18        2951.25           2003         161.00       683.11
  121.21        2951.50           2006         166.00       704.90
  121.24        2951.75           2010         169.00       717.98
  121.27        2952.00           2013         168.00       713.62
  121.30        2952.25           2017         178.00       757.22
  121.34        2952.50           2020         174.00       739.78
  121.37        2952.75           2024         173.00       735.42
  121.40        2953.00           2027         170.00       722.34
  121.43        2953.25           2031         190.00       809.53
  121.46        2953.50           2034         179.00       761.58
  121.49        2953.75           2038         178.00       757.22
  121.52        2954.00           2042         187.00       796.45
  121.55        2954.25           2045         186.00       792.09
  121.58        2954.50           2049         197.00       840.05
  121.61        2954.75           2052         179.00       761.58
  121.64        2955.00           2056         202.00       861.84
  121.67        2955.25           2059         189.00       805.17
  121.70        2955.50           2063         198.00       844.41
  121.73        2955.75           2066         224.00       957.75
  121.76        2956.00           2070         206.00       879.28
  121.79        2956.25           2074         216.00       922.88
  121.82        2956.50           2077         217.00       927.24
  121.85        2956.75           2081         208.00       888.00
  121.89        2957.00           2084         225.00       962.11
  121.92        2957.25           2088         206.00       879.28
  121.95        2957.50           2091         221.00       944.67
  121.98        2957.75           2095         223.00       953.39
  122.01        2958.00           2098         239.00      1023.15
  122.04        2958.25           2102         237.00      1014.43
  122.07        2958.50           2105         228.00       975.19
  122.10        2958.75           2109         279.00      1197.53
  122.13        2959.00           2113         281.00      1206.25
  122.16        2959.25           2116         279.00      1197.53
  122.19        2959.50           2120         273.00      1171.37
  122.22        2959.75           2123         261.00      1119.06
  122.25        2960.00           2127         283.00      1214.97
  122.28        2960.25           2130         274.00      1175.73
  122.31        2960.50           2134         297.00      1276.00
  122.34        2960.75           2137         310.00      1332.68
  122.37        2961.00           2141         324.00      1393.71
  122.41        2961.25           2145         333.00      1432.95
  122.44        2961.50           2148         423.00      1825.33
  122.47        2961.75           2152         959.00      4162.42
  122.50        2962.00           2155        2180.00      9487.91
  122.53        2962.25           2159        5172.00     22547.36
  122.56        2962.50           2162        8027.00     35021.57
  122.59        2962.75           2166       11964.00     52243.76
  122.62        2963.00           2169       15422.00     67390.22
  122.65        2963.25           2173       19744.00     86346.97
  122.68        2963.50           2177       23016.00    100717.50
  122.71        2963.75           2180       25113.00    109936.20
  122.74        2964.00           2184       29253.00    128156.20
  122.77        2964.25           2187       32297.00    141569.70
  122.80        2964.50           2191       35939.00    157637.30
  122.83        2964.75           2194       38859.00    170534.70
  122.86        2965.00           2198       43915.00    192898.10
  122.89        2965.25           2201       47532.00    208921.30
  122.93        2965.50           2205       51547.00    226731.80
  122.96        2965.75           2209       55798.00    245617.10
  122.99        2966.00           2212       58421.00    257284.20
  123.02        2966.25           2216       60782.00    267795.30
  123.05        2966.50           2219       61265.00    269946.70
  123.08        2966.75           2223       61618.00    271519.30
  123.11        2967.00           2226       61453.00    270784.20
  123.14        2967.25           2230       61274.00    269986.80
  123.17        2967.50           2233       61178.00    269559.10
  123.20        2967.75           2237       60314.00    265711.00
  123.23        2968.00           2241       57912.00    255019.30
  123.26        2968.25           2244       55458.00    244105.60
  123.29        2968.50           2248       51741.00    227593.10
  123.32        2968.75           2251       49107.00    215905.00
  123.35        2969.00           2255       45683.00    200727.70
  123.38        2969.25           2258       42681.00    187436.20
  123.41        2969.50           2262       39140.00    171776.50
  123.44        2969.75           2265       36436.00    159831.60
  123.47        2970.00           2269       31940.00    139995.80
  123.51        2970.25           2273       27983.00    122564.10
  123.54        2970.50           2276       24917.00    109074.20
  123.57        2970.75           2280       20570.00     89973.18
  123.60        2971.00           2283       17969.00     78558.15
  123.63        2971.25           2287       14015.00     61225.18
  123.66        2971.50           2290       10819.00     47232.57
  123.69        2971.75           2294        7196.00     31389.43
  123.72        2972.00           2297        4824.00     21027.71
  123.75        2972.25           2301        1901.00      8270.83
  123.78        2972.50           2305         649.00      2810.69
  123.81        2972.75           2308         416.00      1794.81
  123.84        2973.00           2312         343.00      1476.55
  123.87        2973.25           2315         340.00      1463.47
  123.90        2973.50           2319         332.00      1428.59
  123.93        2973.75           2322         324.00      1393.71
  123.96        2974.00           2326         304.00      1306.52
  123.99        2974.25           2329         302.00      1297.80
  124.03        2974.50           2333         302.00      1297.80
  124.06        2974.75           2337         285.00      1223.69
  124.09        2975.00           2340         284.00      1219.33
  124.12        2975.25           2344         297.00      1276.00
  124.15        2975.50           2347         304.00      1306.52
  124.18        2975.75           2351         275.00      1180.09
  124.21        2976.00           2354         262.00      1123.42
  124.24        2976.25           2358         243.00      1040.58
  124.27        2976.50           2362         258.00      1105.98
  124.30        2976.75           2365         247.00      1058.02
  124.33        2977.00           2369         254.00      1088.54
  124.36        2977.25           2372         248.00      1062.38
  124.39        2977.50           2376         255.00      1092.90
  124.42        2977.75           2379         224.00       957.75
  124.45        2978.00           2383         216.00       922.88
  124.48        2978.25           2387         235.00      1005.71
  124.51        2978.50           2390         226.00       966.47
  124.54        2978.75           2394         210.00       896.72
  124.58        2979.00           2397         214.00       914.16
  124.61        2979.25           2401         214.00       914.16
  124.64        2979.50           2404         203.00       866.20
  124.67        2979.75           2408         202.00       861.84
  124.70        2980.00           2411         201.00       857.48
  124.73        2980.25           2415         198.00       844.41
  124.76        2980.50           2419         192.00       818.25
  124.79        2980.75           2422         198.00       844.41
  124.82        2981.00           2426         185.00       787.73
  124.85        2981.25           2429         191.00       813.89
  124.88        2981.50           2433         186.00       792.09
  124.91        2981.75           2436         182.00       774.65
  124.94        2982.00           2440         182.00       774.65
  124.97        2982.25           2444         176.00       748.50
  125.00        2982.50           2447         175.00       744.14
  125.03        2982.75           2451         168.00       713.62
  125.06        2983.00           2454         167.00       709.26
  125.10        2983.25           2458         181.00       770.29
  125.13        2983.50           2461         173.00       735.42
  125.16        2983.75           2465         171.00       726.70
  125.19        2984.00           2469         163.00       691.82
HS scan finished at 02:05:24
end
************************************************************
  HS Scan of (1) Internal mercury lamp
************************************************************
Integration time is 0.2294 seconds per sample
dh220619El Arenosillo 37.1 6.73 3.13pr1000
************************************************************
Dead Time -------------------------  4E-08 
Number of Cycles Used -------------  4 
Starting Wavelength (Angstroms) ---  2950 
Final Wavelength (Angstoms) -------  2984 
Wavelength Increment (Angstroms) --  .25 
Filter Wheel #1 Position ---------- (1) Ground quartz diffuser (ND=2.32)
Filter Wheel #2 Position ---------- (1) Neutral Density 0.494



************************************************************
HS scan start time = 21:45:42
Dark Count =  2.8 


Time (GMT)  Wavelength (Ang)  Step Number  Raw Counts  Counts/Second

 1306.45        2950.00           1985         159.00       680.93
 1306.64        2950.25           1988         158.00       676.57
 1306.67        2950.50           1992         170.00       728.88
 1306.70        2950.75           1996         161.00       689.64
 1306.73        2951.00           1999         170.00       728.88
 1306.76        2951.25           2003         160.00       685.28
 1306.79        2951.50           2006         173.00       741.96
 1306.82        2951.75           2010         166.00       711.44
 1306.85        2952.00           2013         178.00       763.75
 1306.88        2952.25           2017         166.00       711.44
 1306.91        2952.50           2020         170.00       728.88
 1306.94        2952.75           2024         162.00       694.00
 1306.97        2953.00           2027         177.00       759.40
 1307.00        2953.25           2031         176.00       755.04
 1307.03        2953.50           2034         175.00       750.68
 1307.06        2953.75           2038         186.00       798.63
 1307.09        2954.00           2042         184.00       789.91
 1307.12        2954.25           2045         189.00       811.71
 1307.16        2954.50           2049         195.00       837.87
 1307.19        2954.75           2052         193.00       829.15
 1307.22        2955.00           2056         186.00       798.63
 1307.25        2955.25           2059         184.00       789.91
 1307.28        2955.50           2063         204.00       877.10
 1307.31        2955.75           2066         200.00       859.66
 1307.34        2956.00           2070         215.00       925.06
 1307.37        2956.25           2074         226.00       973.01
 1307.40        2956.50           2077         214.00       920.70
 1307.43        2956.75           2081         201.00       864.02
 1307.46        2957.00           2084         202.00       868.38
 1307.49        2957.25           2088         219.00       942.49
 1307.52        2957.50           2091         219.00       942.49
 1307.55        2957.75           2095         236.00      1016.61
 1307.58        2958.00           2098         270.00      1164.83
 1307.61        2958.25           2102         235.00      1012.25
 1307.64        2958.50           2105         280.00      1208.43
 1307.67        2958.75           2109         265.00      1143.03
 1307.71        2959.00           2113         279.00      1204.07
 1307.74        2959.25           2116         295.00      1273.82
 1307.77        2959.50           2120         270.00      1164.83
 1307.80        2959.75           2123         275.00      1186.63
 1307.83        2960.00           2127         281.00      1212.79
 1307.86        2960.25           2130         294.00      1269.46
 1307.89        2960.50           2134         306.00      1321.78
 1307.92        2960.75           2137         334.00      1443.85
 1307.95        2961.00           2141         351.00      1517.96
 1307.98        2961.25           2145         629.00      2730.03
 1308.01        2961.50           2148        1554.00      6763.82
 1308.04        2961.75           2152        3984.00     17366.90
 1308.07        2962.00           2155        6231.00     27179.49
 1308.10        2962.25           2159        9540.00     41643.85
 1308.13        2962.50           2162       12070.00     52714.35
 1308.16        2962.75           2166       15517.00     67813.16
 1308.19        2963.00           2169       18186.00     79516.68
 1308.23        2963.25           2173       21831.00     95517.69
 1308.26        2963.50           2177       24857.00    108817.00
 1308.29        2963.75           2180       27545.00    120642.70
 1308.32        2964.00           2184       31309.00    137221.00
 1308.35        2964.25           2187       34104.00    149545.80
 1308.38        2964.50           2191       37664.00    165261.50
 1308.41        2964.75           2194       40525.00    177905.80
 1308.44        2965.00           2198       44708.00    196415.90
 1308.47        2965.25           2201       47131.00    207150.50
 1308.50        2965.50           2205       50275.00    221093.20
 1308.53        2965.75           2209       54043.00    237823.60
 1308.56        2966.00           2212       55989.00    246473.00
 1308.59        2966.25           2216       58175.00    256196.20
 1308.62        2966.50           2219       58645.00    258287.70
 1308.65        2966.75           2223       58554.00    257882.70
 1308.68        2967.00           2226       58333.00    256899.30
 1308.71        2967.25           2230       58498.00    257633.50
 1308.75        2967.50           2233       58094.00    255835.80
 1308.78        2967.75           2237       57421.00    252841.60
 1308.81        2968.00           2241       54899.00    241627.50
 1308.84        2968.25           2244       52490.00    230925.40
 1308.87        2968.50           2248       48999.00    215432.60
 1308.90        2968.75           2251       46592.00    204761.80
 1308.93        2969.00           2255       42558.00    186898.60
 1308.96        2969.25           2258       39879.00    175049.70
 1308.99        2969.50           2262       35410.00    155308.90
 1309.02        2969.75           2265       32303.00    141602.80
 1309.05        2970.00           2269       28259.00    123785.80
 1309.08        2970.25           2273       24507.00    107278.00
 1309.11        2970.50           2276       22230.00     97270.49
 1309.14        2970.75           2280       19627.00     85840.02
 1309.17        2971.00           2283       17085.00     74687.48
 1309.20        2971.25           2287       13257.00     57911.68
 1309.24        2971.50           2290       10324.00     45073.35
 1309.27        2971.75           2294        6795.00     29643.68
 1309.30        2972.00           2297        4138.00     18039.17
 1309.33        2972.25           2301        1750.00      7618.71
 1309.36        2972.50           2305         718.00      3118.09
 1309.39        2972.75           2308         448.00      1940.87
 1309.42        2973.00           2312         343.00      1483.09
 1309.45        2973.25           2315         341.00      1474.37
 1309.48        2973.50           2319         322.00      1391.53
 1309.51        2973.75           2322         309.00      1334.86
 1309.54        2974.00           2326         309.00      1334.86
 1309.57        2974.25           2329         290.00      1252.02
 1309.60        2974.50           2333         295.00      1273.82
 1309.63        2974.75           2337         275.00      1186.63
 1309.66        2975.00           2340         272.00      1173.55
 1309.69        2975.25           2344         267.00      1151.75
 1309.72        2975.50           2347         286.00      1234.59
 1309.76        2975.75           2351         257.00      1108.16
 1309.79        2976.00           2354         250.00      1077.64
 1309.82        2976.25           2358         240.00      1034.04
 1309.85        2976.50           2362         222.00       955.57
 1309.88        2976.75           2365         256.00      1103.80
 1309.91        2977.00           2369         247.00      1064.56
 1309.94        2977.25           2372         243.00      1047.12
 1309.97        2977.50           2376         233.00      1003.53
 1310.00        2977.75           2379         222.00       955.57
 1310.03        2978.00           2383         226.00       973.01
 1310.06        2978.25           2387         223.00       959.93
 1310.09        2978.50           2390         208.00       894.54
 1310.12        2978.75           2394         210.00       903.26
 1310.15        2979.00           2397         201.00       864.02
 1310.18        2979.25           2401         204.00       877.10
 1310.21        2979.50           2404         200.00       859.66
 1310.24        2979.75           2408         200.00       859.66
 1310.28        2980.00           2411         193.00       829.15
 1310.31        2980.25           2415         192.00       824.79
 1310.34        2980.50           2419         182.00       781.19
 1310.37        2980.75           2422         177.00       759.40
 1310.40        2981.00           2426         197.00       846.58
 1310.43        2981.25           2429         184.00       789.91
 1310.46        2981.50           2433         169.00       724.52
 1310.49        2981.75           2436         179.00       768.11
 1310.52        2982.00           2440         191.00       820.43
 1310.55        2982.25           2444         168.00       720.16
 1310.58        2982.50           2447         181.00       776.83
 1310.61        2982.75           2451         172.00       737.60
 1310.64        2983.00           2454         171.00       733.24
 1310.67        2983.25           2458         177.00       759.40
 1310.70        2983.50           2461         160.00       685.28
 1310.73        2983.75           2465         169.00       724.52
 1310.76        2984.00           2469         174.00       746.32
HS scan finished at 21:50:59
end
