************************************************************
  HS Scan of (1) Internal mercury lamp
************************************************************
Integration time is 0.2294 seconds per sample
dh220619El Arenosillo 37.1 6.73 3.27pr1000
************************************************************
Dead Time -------------------------  4E-08 
Number of Cycles Used -------------  4 
Starting Wavelength (Angstroms) ---  2950 
Final Wavelength (Angstoms) -------  2984 
Wavelength Increment (Angstroms) --  .25 
Filter Wheel #1 Position ---------- (1) Ground quartz diffuser (ND=2.32)
Filter Wheel #2 Position ---------- (1) Neutral Density 0.494



************************************************************
HS scan start time = 02:00:07
Dark Count =  4.3 


Time (GMT)  Wavelength (Ang)  Step Number  Raw Counts  Counts/Second

  120.88        2950.00           1985         162.00       687.46
  121.06        2950.25           1988         168.00       713.62
  121.09        2950.50           1992         172.00       731.06
  121.12        2950.75           1996         150.00       635.15
  121.15        2951.00           1999         157.00       665.67
  121.18        2951.25           2003         161.00       683.11
  121.21        2951.50           2006         166.00       704.90
  121.24        2951.75           2010         169.00       717.98
  121.27        2952.00           2013         168.00       713.62
  121.30        2952.25           2017         178.00       757.22
  121.34        2952.50           2020         174.00       739.78
  121.37        2952.75           2024         173.00       735.42
  121.40        2953.00           2027         170.00       722.34
  121.43        2953.25           2031         190.00       809.53
  121.46        2953.50           2034         179.00       761.58
  121.49        2953.75           2038         178.00       757.22
  121.52        2954.00           2042         187.00       796.45
  121.55        2954.25           2045         186.00       792.09
  121.58        2954.50           2049         197.00       840.05
  121.61        2954.75           2052         179.00       761.58
  121.64        2955.00           2056         202.00       861.84
  121.67        2955.25           2059         189.00       805.17
  121.70        2955.50           2063         198.00       844.41
  121.73        2955.75           2066         224.00       957.75
  121.76        2956.00           2070         206.00       879.28
  121.79        2956.25           2074         216.00       922.88
  121.82        2956.50           2077         217.00       927.24
  121.85        2956.75           2081         208.00       888.00
  121.89        2957.00           2084         225.00       962.11
  121.92        2957.25           2088         206.00       879.28
  121.95        2957.50           2091         221.00       944.67
  121.98        2957.75           2095         223.00       953.39
  122.01        2958.00           2098         239.00      1023.15
  122.04        2958.25           2102         237.00      1014.43
  122.07        2958.50           2105         228.00       975.19
  122.10        2958.75           2109         279.00      1197.53
  122.13        2959.00           2113         281.00      1206.25
  122.16        2959.25           2116         279.00      1197.53
  122.19        2959.50           2120         273.00      1171.37
  122.22        2959.75           2123         261.00      1119.06
  122.25        2960.00           2127         283.00      1214.97
  122.28        2960.25           2130         274.00      1175.73
  122.31        2960.50           2134         297.00      1276.00
  122.34        2960.75           2137         310.00      1332.68
  122.37        2961.00           2141         324.00      1393.71
  122.41        2961.25           2145         333.00      1432.95
  122.44        2961.50           2148         423.00      1825.33
  122.47        2961.75           2152         959.00      4162.42
  122.50        2962.00           2155        2180.00      9487.91
  122.53        2962.25           2159        5172.00     22547.36
  122.56        2962.50           2162        8027.00     35021.57
  122.59        2962.75           2166       11964.00     52243.76
  122.62        2963.00           2169       15422.00     67390.22
  122.65        2963.25           2173       19744.00     86346.97
  122.68        2963.50           2177       23016.00    100717.50
  122.71        2963.75           2180       25113.00    109936.20
  122.74        2964.00           2184       29253.00    128156.20
  122.77        2964.25           2187       32297.00    141569.70
  122.80        2964.50           2191       35939.00    157637.30
  122.83        2964.75           2194       38859.00    170534.70
  122.86        2965.00           2198       43915.00    192898.10
  122.89        2965.25           2201       47532.00    208921.30
  122.93        2965.50           2205       51547.00    226731.80
  122.96        2965.75           2209       55798.00    245617.10
  122.99        2966.00           2212       58421.00    257284.20
  123.02        2966.25           2216       60782.00    267795.30
  123.05        2966.50           2219       61265.00    269946.70
  123.08        2966.75           2223       61618.00    271519.30
  123.11        2967.00           2226       61453.00    270784.20
  123.14        2967.25           2230       61274.00    269986.80
  123.17        2967.50           2233       61178.00    269559.10
  123.20        2967.75           2237       60314.00    265711.00
  123.23        2968.00           2241       57912.00    255019.30
  123.26        2968.25           2244       55458.00    244105.60
  123.29        2968.50           2248       51741.00    227593.10
  123.32        2968.75           2251       49107.00    215905.00
  123.35        2969.00           2255       45683.00    200727.70
  123.38        2969.25           2258       42681.00    187436.20
  123.41        2969.50           2262       39140.00    171776.50
  123.44        2969.75           2265       36436.00    159831.60
  123.47        2970.00           2269       31940.00    139995.80
  123.51        2970.25           2273       27983.00    122564.10
  123.54        2970.50           2276       24917.00    109074.20
  123.57        2970.75           2280       20570.00     89973.18
  123.60        2971.00           2283       17969.00     78558.15
  123.63        2971.25           2287       14015.00     61225.18
  123.66        2971.50           2290       10819.00     47232.57
  123.69        2971.75           2294        7196.00     31389.43
  123.72        2972.00           2297        4824.00     21027.71
  123.75        2972.25           2301        1901.00      8270.83
  123.78        2972.50           2305         649.00      2810.69
  123.81        2972.75           2308         416.00      1794.81
  123.84        2973.00           2312         343.00      1476.55
  123.87        2973.25           2315         340.00      1463.47
  123.90        2973.50           2319         332.00      1428.59
  123.93        2973.75           2322         324.00      1393.71
  123.96        2974.00           2326         304.00      1306.52
  123.99        2974.25           2329         302.00      1297.80
  124.03        2974.50           2333         302.00      1297.80
  124.06        2974.75           2337         285.00      1223.69
  124.09        2975.00           2340         284.00      1219.33
  124.12        2975.25           2344         297.00      1276.00
  124.15        2975.50           2347         304.00      1306.52
  124.18        2975.75           2351         275.00      1180.09
  124.21        2976.00           2354         262.00      1123.42
  124.24        2976.25           2358         243.00      1040.58
  124.27        2976.50           2362         258.00      1105.98
  124.30        2976.75           2365         247.00      1058.02
  124.33        2977.00           2369         254.00      1088.54
  124.36        2977.25           2372         248.00      1062.38
  124.39        2977.50           2376         255.00      1092.90
  124.42        2977.75           2379         224.00       957.75
  124.45        2978.00           2383         216.00       922.88
  124.48        2978.25           2387         235.00      1005.71
  124.51        2978.50           2390         226.00       966.47
  124.54        2978.75           2394         210.00       896.72
  124.58        2979.00           2397         214.00       914.16
  124.61        2979.25           2401         214.00       914.16
  124.64        2979.50           2404         203.00       866.20
  124.67        2979.75           2408         202.00       861.84
  124.70        2980.00           2411         201.00       857.48
  124.73        2980.25           2415         198.00       844.41
  124.76        2980.50           2419         192.00       818.25
  124.79        2980.75           2422         198.00       844.41
  124.82        2981.00           2426         185.00       787.73
  124.85        2981.25           2429         191.00       813.89
  124.88        2981.50           2433         186.00       792.09
  124.91        2981.75           2436         182.00       774.65
  124.94        2982.00           2440         182.00       774.65
  124.97        2982.25           2444         176.00       748.50
  125.00        2982.50           2447         175.00       744.14
  125.03        2982.75           2451         168.00       713.62
  125.06        2983.00           2454         167.00       709.26
  125.10        2983.25           2458         181.00       770.29
  125.13        2983.50           2461         173.00       735.42
  125.16        2983.75           2465         171.00       726.70
  125.19        2984.00           2469         163.00       691.82
HS scan finished at 02:05:24
end
