************************************************************
  HS Scan of (1) Internal mercury lamp
************************************************************
Integration time is 0.2294 seconds per sample
dh210619El Arenosillo 37.1 6.73 3.07pr1000
************************************************************
Dead Time -------------------------  4E-08 
Number of Cycles Used -------------  4 
Starting Wavelength (Angstroms) ---  2950 
Final Wavelength (Angstoms) -------  2984 
Wavelength Increment (Angstroms) --  .25 
Filter Wheel #1 Position ---------- (1) Ground quartz diffuser (ND=2.32)
Filter Wheel #2 Position ---------- (1) Neutral Density 0.494



************************************************************
HS scan start time = 01:58:58
Dark Count =  2.5 


Time (GMT)  Wavelength (Ang)  Step Number  Raw Counts  Counts/Second

  119.72        2950.00           1985         126.00       538.37
  119.91        2950.25           1988         142.00       608.12
  119.94        2950.50           1992         144.00       616.84
  119.97        2950.75           1996         141.00       603.76
  120.00        2951.00           1999         134.00       573.25
  120.03        2951.25           2003         147.00       629.92
  120.06        2951.50           2006         148.00       634.28
  120.09        2951.75           2010         129.00       551.45
  120.12        2952.00           2013         141.00       603.76
  120.15        2952.25           2017         145.00       621.20
  120.18        2952.50           2020         159.00       682.23
  120.21        2952.75           2024         157.00       673.51
  120.24        2953.00           2027         144.00       616.84
  120.27        2953.25           2031         171.00       734.55
  120.30        2953.50           2034         152.00       651.72
  120.33        2953.75           2038         147.00       629.92
  120.36        2954.00           2042         150.00       643.00
  120.39        2954.25           2045         140.00       599.40
  120.43        2954.50           2049         148.00       634.28
  120.46        2954.75           2052         174.00       747.62
  120.49        2955.00           2056         169.00       725.83
  120.52        2955.25           2059         160.00       686.59
  120.55        2955.50           2063         157.00       673.51
  120.58        2955.75           2066         157.00       673.51
  120.61        2956.00           2070         157.00       673.51
  120.64        2956.25           2074         173.00       743.27
  120.67        2956.50           2077         168.00       721.47
  120.70        2956.75           2081         160.00       686.59
  120.73        2957.00           2084         178.00       765.06
  120.76        2957.25           2088         176.00       756.34
  120.79        2957.50           2091         182.00       782.50
  120.82        2957.75           2095         186.00       799.94
  120.85        2958.00           2098         195.00       839.17
  120.88        2958.25           2102         205.00       882.77
  120.91        2958.50           2105         198.00       852.25
  120.94        2958.75           2109         204.00       878.41
  120.98        2959.00           2113         204.00       878.41
  121.01        2959.25           2116         205.00       882.77
  121.04        2959.50           2120         221.00       952.52
  121.07        2959.75           2123         228.00       983.04
  121.10        2960.00           2127         255.00      1100.75
  121.13        2960.25           2130         231.00       996.12
  121.16        2960.50           2134         267.00      1153.06
  121.19        2960.75           2137         265.00      1144.34
  121.22        2961.00           2141         285.00      1231.53
  121.25        2961.25           2145         449.00      1946.53
  121.28        2961.50           2148        1019.00      4431.91
  121.31        2961.75           2152        2883.00     12562.98
  121.34        2962.00           2155        4667.00     20350.04
  121.37        2962.25           2159        7283.00     31777.51
  121.40        2962.50           2162        9320.00     40682.98
  121.43        2962.75           2166       12206.00     53311.03
  121.46        2963.00           2169       14393.00     62889.05
  121.50        2963.25           2173       17296.00     75614.15
  121.53        2963.50           2177       20212.00     88409.31
  121.56        2963.75           2180       22589.00     98849.09
  121.59        2964.00           2184       25722.00    112622.60
  121.62        2964.25           2187       27808.00    121801.70
  121.65        2964.50           2191       30954.00    135657.90
  121.68        2964.75           2194       33323.00    146102.00
  121.71        2965.00           2198       36381.00    159596.70
  121.74        2965.25           2201       38647.00    169605.80
  121.77        2965.50           2205       41616.00    182732.30
  121.80        2965.75           2209       44256.00    194415.80
  121.83        2966.00           2212       45814.00    201316.00
  121.86        2966.25           2216       47194.00    207431.10
  121.89        2966.50           2219       47688.00    209620.80
  121.92        2966.75           2223       47615.00    209297.20
  121.95        2967.00           2226       47497.00    208774.10
  121.98        2967.25           2230       47872.00    210436.50
  122.02        2967.50           2233       47343.00    208091.50
  122.05        2967.75           2237       46666.00    205091.10
  122.08        2968.00           2241       45013.00    197768.00
  122.11        2968.25           2244       42973.00    188736.40
  122.14        2968.50           2248       40388.00    177301.40
  122.17        2968.75           2251       37858.00    166119.80
  122.20        2969.00           2255       34831.00    152754.90
  122.23        2969.25           2258       32693.00    143323.70
  122.26        2969.50           2262       29271.00    128243.40
  122.29        2969.75           2265       26828.00    117488.50
  122.32        2970.00           2269       23216.00    101604.30
  122.35        2970.25           2273       20468.00     89533.24
  122.38        2970.50           2276       18370.00     80325.25
  122.41        2970.75           2280       16156.00     70615.49
  122.44        2971.00           2283       14143.00     61793.79
  122.47        2971.25           2287       11016.00     48102.49
  122.50        2971.50           2290        8699.00     37967.38
  122.54        2971.75           2294        5507.00     24018.27
  122.57        2972.00           2297        3272.00     14260.53
  122.60        2972.25           2301        1365.00      5940.82
  122.63        2972.50           2305         525.00      2277.89
  122.66        2972.75           2308         342.00      1480.04
  122.69        2973.00           2312         276.00      1192.30
  122.72        2973.25           2315         281.00      1214.10
  122.75        2973.50           2319         295.00      1275.13
  122.78        2973.75           2322         261.00      1126.90
  122.81        2974.00           2326         251.00      1083.31
  122.84        2974.25           2329         266.00      1148.70
  122.87        2974.50           2333         237.00      1022.27
  122.90        2974.75           2337         231.00       996.12
  122.93        2975.00           2340         221.00       952.52
  122.96        2975.25           2344         231.00       996.12
  122.99        2975.50           2347         217.00       935.08
  123.02        2975.75           2351         221.00       952.52
  123.06        2976.00           2354         215.00       926.36
  123.09        2976.25           2358         215.00       926.36
  123.12        2976.50           2362         208.00       895.85
  123.15        2976.75           2365         200.00       860.97
  123.18        2977.00           2369         185.00       795.58
  123.21        2977.25           2372         193.00       830.45
  123.24        2977.50           2376         197.00       847.89
  123.27        2977.75           2379         190.00       817.38
  123.30        2978.00           2383         179.00       769.42
  123.33        2978.25           2387         175.00       751.98
  123.36        2978.50           2390         183.00       786.86
  123.39        2978.75           2394         173.00       743.27
  123.42        2979.00           2397         176.00       756.34
  123.45        2979.25           2401         178.00       765.06
  123.48        2979.50           2404         169.00       725.83
  123.51        2979.75           2408         155.00       664.80
  123.54        2980.00           2411         159.00       682.23
  123.58        2980.25           2415         176.00       756.34
  123.61        2980.50           2419         163.00       699.67
  123.64        2980.75           2422         171.00       734.55
  123.67        2981.00           2426         165.00       708.39
  123.70        2981.25           2429         149.00       638.64
  123.73        2981.50           2433         157.00       673.51
  123.76        2981.75           2436         158.00       677.87
  123.79        2982.00           2440         157.00       673.51
  123.82        2982.25           2444         140.00       599.40
  123.85        2982.50           2447         145.00       621.20
  123.88        2982.75           2451         140.00       599.40
  123.91        2983.00           2454         165.00       708.39
  123.94        2983.25           2458         143.00       612.48
  123.97        2983.50           2461         135.00       577.61
  124.00        2983.75           2465         149.00       638.64
  124.03        2984.00           2469         141.00       603.76
HS scan finished at 02:04:15
end
