************************************************************
  HS Scan of (1) Internal mercury lamp
************************************************************
Integration time is 0.2294 seconds per sample
dh230619El Arenosillo 37.1 6.73 3.01pr1000
************************************************************
Dead Time -------------------------  4E-08 
Number of Cycles Used -------------  4 
Starting Wavelength (Angstroms) ---  2950 
Final Wavelength (Angstoms) -------  2984 
Wavelength Increment (Angstroms) --  .25 
Filter Wheel #1 Position ---------- (1) Ground quartz diffuser (ND=2.32)
Filter Wheel #2 Position ---------- (1) Neutral Density 0.494



************************************************************
HS scan start time = 00:59:32
Dark Count =  1.9 


Time (GMT)  Wavelength (Ang)  Step Number  Raw Counts  Counts/Second

   60.30        2950.00           1985         171.00       737.16
   60.48        2950.25           1988         163.00       702.29
   60.51        2950.50           1992         183.00       789.48
   60.54        2950.75           1996         182.00       785.12
   60.57        2951.00           1999         167.00       719.72
   60.60        2951.25           2003         174.00       750.24
   60.63        2951.50           2006         182.00       785.12
   60.66        2951.75           2010         170.00       732.80
   60.69        2952.00           2013         181.00       780.76
   60.72        2952.25           2017         176.00       758.96
   60.75        2952.50           2020         179.00       772.04
   60.78        2952.75           2024         188.00       811.27
   60.81        2953.00           2027         183.00       789.48
   60.84        2953.25           2031         182.00       785.12
   60.87        2953.50           2034         186.00       802.55
   60.91        2953.75           2038         185.00       798.19
   60.94        2954.00           2042         197.00       850.51
   60.97        2954.25           2045         202.00       872.31
   61.00        2954.50           2049         200.00       863.59
   61.03        2954.75           2052         225.00       972.57
   61.06        2955.00           2056         193.00       833.07
   61.09        2955.25           2059         214.00       924.62
   61.12        2955.50           2063         212.00       915.90
   61.15        2955.75           2066         208.00       898.46
   61.18        2956.00           2070         212.00       915.90
   61.21        2956.25           2074         221.00       955.14
   61.24        2956.50           2077         218.00       942.06
   61.27        2956.75           2081         241.00      1042.33
   61.30        2957.00           2084         226.00       976.93
   61.33        2957.25           2088         228.00       985.65
   61.36        2957.50           2091         233.00      1007.45
   61.39        2957.75           2095         234.00      1011.81
   61.43        2958.00           2098         269.00      1164.40
   61.46        2958.25           2102         238.00      1029.25
   61.49        2958.50           2105         276.00      1194.91
   61.52        2958.75           2109         267.00      1155.68
   61.55        2959.00           2113         272.00      1177.47
   61.58        2959.25           2116         279.00      1207.99
   61.61        2959.50           2120         286.00      1238.51
   61.64        2959.75           2123         301.00      1303.90
   61.67        2960.00           2127         308.00      1334.42
   61.70        2960.25           2130         303.00      1312.62
   61.73        2960.50           2134         302.00      1308.26
   61.76        2960.75           2137         345.00      1495.73
   61.79        2961.00           2141         341.00      1478.29
   61.82        2961.25           2145         540.00      2345.90
   61.85        2961.50           2148        1095.00      4765.95
   61.88        2961.75           2152        3514.00     15319.32
   61.91        2962.00           2155        5970.00     26043.25
   61.95        2962.25           2159        9166.00     40012.11
   61.98        2962.50           2162       11477.00     50122.62
   62.01        2962.75           2166       15061.00     65818.65
   62.04        2963.00           2169       17646.00     77151.86
   62.07        2963.25           2173       21516.00     94138.03
   62.10        2963.50           2177       25443.00    111398.10
   62.13        2963.75           2180       28333.00    124115.50
   62.16        2964.00           2184       32414.00    142096.10
   62.19        2964.25           2187       35246.00    154589.00
   62.22        2964.50           2191       39409.00    172976.10
   62.25        2964.75           2194       42017.00    184508.90
   62.28        2965.00           2198       45910.00    201744.00
   62.31        2965.25           2201       48940.00    215174.90
   62.34        2965.50           2205       52074.00    229082.20
   62.37        2965.75           2209       56198.00    247406.30
   62.40        2966.00           2212       58571.00    257962.40
   62.43        2966.25           2216       60809.00    267926.30
   62.47        2966.50           2219       61230.00    269801.50
   62.50        2966.75           2223       61245.00    269868.30
   62.53        2967.00           2226       61388.00    270505.30
   62.56        2967.25           2230       61134.00    269373.90
   62.59        2967.50           2233       60963.00    268612.10
   62.62        2967.75           2237       59746.00    263192.70
   62.65        2968.00           2241       57433.00    252899.00
   62.68        2968.25           2244       54822.00    241289.30
   62.71        2968.50           2248       51634.00    227128.70
   62.74        2968.75           2251       49139.00    216057.60
   62.77        2969.00           2255       45676.00    200707.30
   62.80        2969.25           2258       43407.00    190659.90
   62.83        2969.50           2262       39540.00    173555.10
   62.86        2969.75           2265       36435.00    159837.80
   62.89        2970.00           2269       32309.00    141633.20
   62.92        2970.25           2273       28567.00    125145.80
   62.95        2970.50           2276       25611.00    112137.00
   62.99        2970.75           2280       21737.00     95108.74
   63.02        2971.00           2283       18844.00     82407.65
   63.05        2971.25           2287       15414.00     67365.68
   63.08        2971.50           2290       12431.00     54298.71
   63.11        2971.75           2294        8840.00     38586.54
   63.14        2972.00           2297        6110.00     26654.82
   63.17        2972.25           2301        3010.00     13119.79
   63.20        2972.50           2305        1061.00      4617.68
   63.23        2972.75           2308         551.00      2393.86
   63.26        2973.00           2312         398.00      1726.80
   63.29        2973.25           2315         384.00      1665.76
   63.32        2973.50           2319         342.00      1482.65
   63.35        2973.75           2322         320.00      1386.74
   63.38        2974.00           2326         323.00      1399.82
   63.41        2974.25           2329         316.00      1369.30
   63.44        2974.50           2333         301.00      1303.90
   63.47        2974.75           2337         291.00      1260.31
   63.51        2975.00           2340         281.00      1216.71
   63.54        2975.25           2344         284.00      1229.79
   63.57        2975.50           2347         280.00      1212.35
   63.60        2975.75           2351         251.00      1085.92
   63.63        2976.00           2354         274.00      1186.19
   63.66        2976.25           2358         287.00      1242.87
   63.69        2976.50           2362         261.00      1129.52
   63.72        2976.75           2365         260.00      1125.16
   63.75        2977.00           2369         285.00      1234.15
   63.78        2977.25           2372         237.00      1024.89
   63.81        2977.50           2376         244.00      1055.41
   63.84        2977.75           2379         230.00       994.37
   63.87        2978.00           2383         225.00       972.57
   63.90        2978.25           2387         229.00       990.01
   63.93        2978.50           2390         234.00      1011.81
   63.96        2978.75           2394         221.00       955.14
   63.99        2979.00           2397         206.00       889.74
   64.03        2979.25           2401         215.00       928.98
   64.06        2979.50           2404         213.00       920.26
   64.09        2979.75           2408         216.00       933.34
   64.12        2980.00           2411         216.00       933.34
   64.15        2980.25           2415         207.00       894.10
   64.18        2980.50           2419         211.00       911.54
   64.21        2980.75           2422         190.00       819.99
   64.24        2981.00           2426         193.00       833.07
   64.27        2981.25           2429         187.00       806.91
   64.30        2981.50           2433         203.00       876.67
   64.33        2981.75           2436         184.00       793.84
   64.36        2982.00           2440         190.00       819.99
   64.39        2982.25           2444         194.00       837.43
   64.42        2982.50           2447         176.00       758.96
   64.45        2982.75           2451         178.00       767.68
   64.48        2983.00           2454         174.00       750.24
   64.51        2983.25           2458         174.00       750.24
   64.55        2983.50           2461         169.00       728.44
   64.58        2983.75           2465         176.00       758.96
   64.61        2984.00           2469         171.00       737.16
HS scan finished at 01:04:49
end
