************************************************************
  HS Scan of (1) Internal mercury lamp
************************************************************
Integration time is 0.2294 seconds per sample
dh210619El Arenosillo 37.1 6.73 3.07pr1000
************************************************************
Dead Time -------------------------  4E-08 
Number of Cycles Used -------------  4 
Starting Wavelength (Angstroms) ---  2950 
Final Wavelength (Angstoms) -------  2984 
Wavelength Increment (Angstroms) --  .25 
Filter Wheel #1 Position ---------- (1) Ground quartz diffuser (ND=2.32)
Filter Wheel #2 Position ---------- (1) Neutral Density 0.494



************************************************************
HS scan start time = 01:58:58
Dark Count =  2.5 


Time (GMT)  Wavelength (Ang)  Step Number  Raw Counts  Counts/Second

  119.72        2950.00           1985         126.00       538.37
  119.91        2950.25           1988         142.00       608.12
  119.94        2950.50           1992         144.00       616.84
  119.97        2950.75           1996         141.00       603.76
  120.00        2951.00           1999         134.00       573.25
  120.03        2951.25           2003         147.00       629.92
  120.06        2951.50           2006         148.00       634.28
  120.09        2951.75           2010         129.00       551.45
  120.12        2952.00           2013         141.00       603.76
  120.15        2952.25           2017         145.00       621.20
  120.18        2952.50           2020         159.00       682.23
  120.21        2952.75           2024         157.00       673.51
  120.24        2953.00           2027         144.00       616.84
  120.27        2953.25           2031         171.00       734.55
  120.30        2953.50           2034         152.00       651.72
  120.33        2953.75           2038         147.00       629.92
  120.36        2954.00           2042         150.00       643.00
  120.39        2954.25           2045         140.00       599.40
  120.43        2954.50           2049         148.00       634.28
  120.46        2954.75           2052         174.00       747.62
  120.49        2955.00           2056         169.00       725.83
  120.52        2955.25           2059         160.00       686.59
  120.55        2955.50           2063         157.00       673.51
  120.58        2955.75           2066         157.00       673.51
  120.61        2956.00           2070         157.00       673.51
  120.64        2956.25           2074         173.00       743.27
  120.67        2956.50           2077         168.00       721.47
  120.70        2956.75           2081         160.00       686.59
  120.73        2957.00           2084         178.00       765.06
  120.76        2957.25           2088         176.00       756.34
  120.79        2957.50           2091         182.00       782.50
  120.82        2957.75           2095         186.00       799.94
  120.85        2958.00           2098         195.00       839.17
  120.88        2958.25           2102         205.00       882.77
  120.91        2958.50           2105         198.00       852.25
  120.94        2958.75           2109         204.00       878.41
  120.98        2959.00           2113         204.00       878.41
  121.01        2959.25           2116         205.00       882.77
  121.04        2959.50           2120         221.00       952.52
  121.07        2959.75           2123         228.00       983.04
  121.10        2960.00           2127         255.00      1100.75
  121.13        2960.25           2130         231.00       996.12
  121.16        2960.50           2134         267.00      1153.06
  121.19        2960.75           2137         265.00      1144.34
  121.22        2961.00           2141         285.00      1231.53
  121.25        2961.25           2145         449.00      1946.53
  121.28        2961.50           2148        1019.00      4431.91
  121.31        2961.75           2152        2883.00     12562.98
  121.34        2962.00           2155        4667.00     20350.04
  121.37        2962.25           2159        7283.00     31777.51
  121.40        2962.50           2162        9320.00     40682.98
  121.43        2962.75           2166       12206.00     53311.03
  121.46        2963.00           2169       14393.00     62889.05
  121.50        2963.25           2173       17296.00     75614.15
  121.53        2963.50           2177       20212.00     88409.31
  121.56        2963.75           2180       22589.00     98849.09
  121.59        2964.00           2184       25722.00    112622.60
  121.62        2964.25           2187       27808.00    121801.70
  121.65        2964.50           2191       30954.00    135657.90
  121.68        2964.75           2194       33323.00    146102.00
  121.71        2965.00           2198       36381.00    159596.70
  121.74        2965.25           2201       38647.00    169605.80
  121.77        2965.50           2205       41616.00    182732.30
  121.80        2965.75           2209       44256.00    194415.80
  121.83        2966.00           2212       45814.00    201316.00
  121.86        2966.25           2216       47194.00    207431.10
  121.89        2966.50           2219       47688.00    209620.80
  121.92        2966.75           2223       47615.00    209297.20
  121.95        2967.00           2226       47497.00    208774.10
  121.98        2967.25           2230       47872.00    210436.50
  122.02        2967.50           2233       47343.00    208091.50
  122.05        2967.75           2237       46666.00    205091.10
  122.08        2968.00           2241       45013.00    197768.00
  122.11        2968.25           2244       42973.00    188736.40
  122.14        2968.50           2248       40388.00    177301.40
  122.17        2968.75           2251       37858.00    166119.80
  122.20        2969.00           2255       34831.00    152754.90
  122.23        2969.25           2258       32693.00    143323.70
  122.26        2969.50           2262       29271.00    128243.40
  122.29        2969.75           2265       26828.00    117488.50
  122.32        2970.00           2269       23216.00    101604.30
  122.35        2970.25           2273       20468.00     89533.24
  122.38        2970.50           2276       18370.00     80325.25
  122.41        2970.75           2280       16156.00     70615.49
  122.44        2971.00           2283       14143.00     61793.79
  122.47        2971.25           2287       11016.00     48102.49
  122.50        2971.50           2290        8699.00     37967.38
  122.54        2971.75           2294        5507.00     24018.27
  122.57        2972.00           2297        3272.00     14260.53
  122.60        2972.25           2301        1365.00      5940.82
  122.63        2972.50           2305         525.00      2277.89
  122.66        2972.75           2308         342.00      1480.04
  122.69        2973.00           2312         276.00      1192.30
  122.72        2973.25           2315         281.00      1214.10
  122.75        2973.50           2319         295.00      1275.13
  122.78        2973.75           2322         261.00      1126.90
  122.81        2974.00           2326         251.00      1083.31
  122.84        2974.25           2329         266.00      1148.70
  122.87        2974.50           2333         237.00      1022.27
  122.90        2974.75           2337         231.00       996.12
  122.93        2975.00           2340         221.00       952.52
  122.96        2975.25           2344         231.00       996.12
  122.99        2975.50           2347         217.00       935.08
  123.02        2975.75           2351         221.00       952.52
  123.06        2976.00           2354         215.00       926.36
  123.09        2976.25           2358         215.00       926.36
  123.12        2976.50           2362         208.00       895.85
  123.15        2976.75           2365         200.00       860.97
  123.18        2977.00           2369         185.00       795.58
  123.21        2977.25           2372         193.00       830.45
  123.24        2977.50           2376         197.00       847.89
  123.27        2977.75           2379         190.00       817.38
  123.30        2978.00           2383         179.00       769.42
  123.33        2978.25           2387         175.00       751.98
  123.36        2978.50           2390         183.00       786.86
  123.39        2978.75           2394         173.00       743.27
  123.42        2979.00           2397         176.00       756.34
  123.45        2979.25           2401         178.00       765.06
  123.48        2979.50           2404         169.00       725.83
  123.51        2979.75           2408         155.00       664.80
  123.54        2980.00           2411         159.00       682.23
  123.58        2980.25           2415         176.00       756.34
  123.61        2980.50           2419         163.00       699.67
  123.64        2980.75           2422         171.00       734.55
  123.67        2981.00           2426         165.00       708.39
  123.70        2981.25           2429         149.00       638.64
  123.73        2981.50           2433         157.00       673.51
  123.76        2981.75           2436         158.00       677.87
  123.79        2982.00           2440         157.00       673.51
  123.82        2982.25           2444         140.00       599.40
  123.85        2982.50           2447         145.00       621.20
  123.88        2982.75           2451         140.00       599.40
  123.91        2983.00           2454         165.00       708.39
  123.94        2983.25           2458         143.00       612.48
  123.97        2983.50           2461         135.00       577.61
  124.00        2983.75           2465         149.00       638.64
  124.03        2984.00           2469         141.00       603.76
HS scan finished at 02:04:15
end
************************************************************
  HS Scan of (1) Internal mercury lamp
************************************************************
Integration time is 0.2294 seconds per sample
dh210619El Arenosillo 37.1 6.73 3.25pr1000
************************************************************
Dead Time -------------------------  4E-08 
Number of Cycles Used -------------  4 
Starting Wavelength (Angstroms) ---  2950 
Final Wavelength (Angstoms) -------  2984 
Wavelength Increment (Angstroms) --  .25 
Filter Wheel #1 Position ---------- (1) Ground quartz diffuser (ND=2.32)
Filter Wheel #2 Position ---------- (1) Neutral Density 0.494



************************************************************
HS scan start time = 21:40:13
Dark Count =  4.3 


Time (GMT)  Wavelength (Ang)  Step Number  Raw Counts  Counts/Second

 1300.97        2950.00           1985         164.00       696.18
 1301.15        2950.25           1988         161.00       683.11
 1301.18        2950.50           1992         168.00       713.62
 1301.21        2950.75           1996         166.00       704.90
 1301.25        2951.00           1999         177.00       752.86
 1301.28        2951.25           2003         166.00       704.90
 1301.31        2951.50           2006         160.00       678.75
 1301.34        2951.75           2010         171.00       726.70
 1301.37        2952.00           2013         174.00       739.78
 1301.40        2952.25           2017         188.00       800.81
 1301.43        2952.50           2020         179.00       761.58
 1301.46        2952.75           2024         175.00       744.14
 1301.49        2953.00           2027         181.00       770.29
 1301.52        2953.25           2031         195.00       831.33
 1301.55        2953.50           2034         194.00       826.97
 1301.58        2953.75           2038         190.00       809.53
 1301.61        2954.00           2042         196.00       835.69
 1301.64        2954.25           2045         206.00       879.28
 1301.67        2954.50           2049         196.00       835.69
 1301.70        2954.75           2052         200.00       853.12
 1301.73        2955.00           2056         198.00       844.41
 1301.77        2955.25           2059         202.00       861.84
 1301.80        2955.50           2063         204.00       870.56
 1301.83        2955.75           2066         219.00       935.95
 1301.86        2956.00           2070         212.00       905.44
 1301.89        2956.25           2074         224.00       957.75
 1301.92        2956.50           2077         242.00      1036.22
 1301.95        2956.75           2081         245.00      1049.30
 1301.98        2957.00           2084         243.00      1040.58
 1302.01        2957.25           2088         235.00      1005.71
 1302.04        2957.50           2091         223.00       953.39
 1302.07        2957.75           2095         238.00      1018.79
 1302.10        2958.00           2098         235.00      1005.71
 1302.13        2958.25           2102         241.00      1031.86
 1302.16        2958.50           2105         253.00      1084.18
 1302.19        2958.75           2109         265.00      1136.49
 1302.22        2959.00           2113         294.00      1262.92
 1302.25        2959.25           2116         262.00      1123.42
 1302.28        2959.50           2120         286.00      1228.05
 1302.32        2959.75           2123         296.00      1271.64
 1302.35        2960.00           2127         292.00      1254.20
 1302.38        2960.25           2130         319.00      1371.91
 1302.41        2960.50           2134         315.00      1354.48
 1302.44        2960.75           2137         318.00      1367.56
 1302.47        2961.00           2141         353.00      1520.14
 1302.50        2961.25           2145         425.00      1834.05
 1302.53        2961.50           2148         761.00      3299.04
 1302.56        2961.75           2152        2063.00      8977.50
 1302.59        2962.00           2155        3959.00     17251.22
 1302.62        2962.25           2159        7179.00     31315.14
 1302.65        2962.50           2162       10191.00     44484.93
 1302.68        2962.75           2166       14088.00     61544.96
 1302.71        2963.00           2169       16667.00     72847.97
 1302.74        2963.25           2173       20295.00     88765.80
 1302.77        2963.50           2177       24252.00    106150.30
 1302.80        2963.75           2180       27574.00    120763.70
 1302.84        2964.00           2184       31767.00    139233.20
 1302.87        2964.25           2187       34947.00    153258.80
 1302.90        2964.50           2191       38709.00    169871.80
 1302.93        2964.75           2194       41198.00    180875.40
 1302.96        2965.00           2198       45041.00    197884.00
 1302.99        2965.25           2201       47764.00    209949.80
 1303.02        2965.50           2205       50733.00    223118.90
 1303.05        2965.75           2209       54683.00    240660.90
 1303.08        2966.00           2212       57021.00    251055.60
 1303.11        2966.25           2216       60242.00    265390.50
 1303.14        2966.50           2219       61140.00    269389.90
 1303.17        2966.75           2223       61277.00    270000.20
 1303.20        2967.00           2226       61223.00    269759.60
 1303.23        2967.25           2230       61175.00    269545.80
 1303.26        2967.50           2233       60516.00    266610.60
 1303.29        2967.75           2237       59909.00    263907.70
 1303.32        2968.00           2241       57605.00    253653.50
 1303.35        2968.25           2244       54803.00    241194.20
 1303.39        2968.50           2248       50694.00    222945.80
 1303.42        2968.75           2251       47745.00    209865.50
 1303.45        2969.00           2255       43543.00    191251.30
 1303.48        2969.25           2258       40620.00    178319.30
 1303.51        2969.50           2262       36659.00    160816.30
 1303.54        2969.75           2265       33774.00    148083.40
 1303.57        2970.00           2269       30163.00    132164.60
 1303.60        2970.25           2273       26385.00    115531.40
 1303.63        2970.50           2276       23191.00    101486.60
 1303.66        2970.75           2280       18935.00     82796.43
 1303.69        2971.00           2283       15864.00     69327.56
 1303.72        2971.25           2287       12048.00     52611.48
 1303.75        2971.50           2290        9166.00     40001.62
 1303.78        2971.75           2294        5744.00     25045.57
 1303.81        2972.00           2297        3560.00     15509.62
 1303.84        2972.25           2301        1574.00      6844.51
 1303.87        2972.50           2305         612.00      2649.37
 1303.91        2972.75           2308         383.00      1650.94
 1303.94        2973.00           2312         353.00      1520.14
 1303.97        2973.25           2315         330.00      1419.87
 1304.00        2973.50           2319         321.00      1380.63
 1304.03        2973.75           2322         304.00      1306.52
 1304.06        2974.00           2326         304.00      1306.52
 1304.09        2974.25           2329         296.00      1271.64
 1304.12        2974.50           2333         261.00      1119.06
 1304.15        2974.75           2337         301.00      1293.44
 1304.18        2975.00           2340         278.00      1193.17
 1304.21        2975.25           2344         262.00      1123.42
 1304.24        2975.50           2347         272.00      1167.01
 1304.27        2975.75           2351         251.00      1075.46
 1304.30        2976.00           2354         245.00      1049.30
 1304.33        2976.25           2358         245.00      1049.30
 1304.36        2976.50           2362         252.00      1079.82
 1304.39        2976.75           2365         227.00       970.83
 1304.42        2977.00           2369         210.00       896.72
 1304.45        2977.25           2372         221.00       944.67
 1304.49        2977.50           2376         212.00       905.44
 1304.52        2977.75           2379         221.00       944.67
 1304.55        2978.00           2383         215.00       918.52
 1304.58        2978.25           2387         204.00       870.56
 1304.61        2978.50           2390         210.00       896.72
 1304.64        2978.75           2394         206.00       879.28
 1304.67        2979.00           2397         187.00       796.45
 1304.70        2979.25           2401         190.00       809.53
 1304.73        2979.50           2404         179.00       761.58
 1304.76        2979.75           2408         192.00       818.25
 1304.79        2980.00           2411         177.00       752.86
 1304.82        2980.25           2415         183.00       779.01
 1304.85        2980.50           2419         186.00       792.09
 1304.88        2980.75           2422         179.00       761.58
 1304.91        2981.00           2426         180.00       765.93
 1304.94        2981.25           2429         178.00       757.22
 1304.97        2981.50           2433         172.00       731.06
 1305.01        2981.75           2436         175.00       744.14
 1305.04        2982.00           2440         167.00       709.26
 1305.07        2982.25           2444         174.00       739.78
 1305.10        2982.50           2447         161.00       683.11
 1305.13        2982.75           2451         163.00       691.82
 1305.16        2983.00           2454         155.00       656.95
 1305.19        2983.25           2458         166.00       704.90
 1305.22        2983.50           2461         159.00       674.39
 1305.25        2983.75           2465         163.00       691.82
 1305.28        2984.00           2469         167.00       709.26
HS scan finished at 21:45:30
end
