************************************************************
  HS Scan of (1) Internal mercury lamp
************************************************************
Integration time is 0.2294 seconds per sample
dh250619El Arenosillo 37.1 6.73 3.21pr1000
************************************************************
Dead Time -------------------------  4E-08 
Number of Cycles Used -------------  4 
Starting Wavelength (Angstroms) ---  2950 
Final Wavelength (Angstoms) -------  2984 
Wavelength Increment (Angstroms) --  .25 
Filter Wheel #1 Position ---------- (1) Ground quartz diffuser (ND=2.32)
Filter Wheel #2 Position ---------- (1) Neutral Density 0.494



************************************************************
HS scan start time = 01:51:58
Dark Count =  3.3 


Time (GMT)  Wavelength (Ang)  Step Number  Raw Counts  Counts/Second

  112.72        2950.00           1985         187.00       800.81
  112.90        2950.25           1988         174.00       744.14
  112.93        2950.50           1992         182.00       779.01
  112.96        2950.75           1996         189.00       809.53
  112.99        2951.00           1999         175.00       748.50
  113.03        2951.25           2003         219.00       940.31
  113.06        2951.50           2006         185.00       792.09
  113.09        2951.75           2010         203.00       870.56
  113.12        2952.00           2013         203.00       870.56
  113.15        2952.25           2017         197.00       844.41
  113.18        2952.50           2020         192.00       822.61
  113.21        2952.75           2024         193.00       826.97
  113.24        2953.00           2027         212.00       909.80
  113.27        2953.25           2031         207.00       888.00
  113.30        2953.50           2034         214.00       918.52
  113.33        2953.75           2038         215.00       922.88
  113.36        2954.00           2042         204.00       874.92
  113.39        2954.25           2045         210.00       901.08
  113.42        2954.50           2049         209.00       896.72
  113.45        2954.75           2052         244.00      1049.30
  113.48        2955.00           2056         234.00      1005.71
  113.51        2955.25           2059         234.00      1005.71
  113.54        2955.50           2063         217.00       931.60
  113.57        2955.75           2066         234.00      1005.71
  113.61        2956.00           2070         255.00      1097.26
  113.64        2956.25           2074         238.00      1023.15
  113.67        2956.50           2077         258.00      1110.34
  113.70        2956.75           2081         232.00       996.99
  113.73        2957.00           2084         262.00      1127.78
  113.76        2957.25           2088         251.00      1079.82
  113.79        2957.50           2091         253.00      1088.54
  113.82        2957.75           2095         277.00      1193.17
  113.85        2958.00           2098         273.00      1175.73
  113.88        2958.25           2102         279.00      1201.89
  113.91        2958.50           2105         286.00      1232.41
  113.94        2958.75           2109         290.00      1249.84
  113.97        2959.00           2113         297.00      1280.36
  114.00        2959.25           2116         309.00      1332.68
  114.03        2959.50           2120         316.00      1363.20
  114.06        2959.75           2123         326.00      1406.79
  114.09        2960.00           2127         321.00      1384.99
  114.13        2960.25           2130         323.00      1393.71
  114.16        2960.50           2134         345.00      1489.63
  114.19        2960.75           2137         344.00      1485.27
  114.22        2961.00           2141         360.00      1555.02
  114.25        2961.25           2145         404.00      1746.85
  114.28        2961.50           2148         596.00      2583.96
  114.31        2961.75           2152        1294.00      5627.68
  114.34        2962.00           2155        2840.00     12371.86
  114.37        2962.25           2159        6322.00     27574.86
  114.40        2962.50           2162        9490.00     41422.99
  114.43        2962.75           2166       14147.00     61807.82
  114.46        2963.00           2169       17617.00     77018.51
  114.49        2963.25           2173       22078.00     96600.52
  114.52        2963.50           2177       27457.00    120253.20
  114.55        2963.75           2180       31412.00    137672.80
  114.58        2964.00           2184       36426.00    159791.90
  114.61        2964.25           2187       39878.00    175043.00
  114.64        2964.50           2191       44274.00    194492.00
  114.68        2964.75           2194       46904.00    206142.20
  114.71        2965.00           2198       51012.00    224361.50
  114.74        2965.25           2201       54882.00    241549.70
  114.77        2965.50           2205       59301.00    261205.30
  114.80        2965.75           2209       63454.00    279706.10
  114.83        2966.00           2212       66422.00    292944.90
  114.86        2966.25           2216       69271.00    305666.10
  114.89        2966.50           2219       70580.00    311515.40
  114.92        2966.75           2223       70897.00    312932.40
  114.95        2967.00           2226       70577.00    311502.00
  114.98        2967.25           2230       70663.00    311886.40
  115.01        2967.50           2233       70580.00    311515.40
  115.04        2967.75           2237       70399.00    310706.50
  115.07        2968.00           2241       69197.00    305335.60
  115.10        2968.25           2244       66952.00    295310.50
  115.13        2968.50           2248       62551.00    275681.10
  115.16        2968.75           2251       58541.00    257822.70
  115.20        2969.00           2255       53993.00    237599.20
  115.23        2969.25           2258       50186.00    220696.00
  115.26        2969.50           2262       45955.00    201937.10
  115.29        2969.75           2265       42543.00    186830.00
  115.32        2970.00           2269       37797.00    165846.80
  115.35        2970.25           2273       33226.00    145670.70
  115.38        2970.50           2276       29631.00    129825.40
  115.41        2970.75           2280       25020.00    109531.60
  115.44        2971.00           2283       21641.00     94680.91
  115.47        2971.25           2287       16928.00     73996.81
  115.50        2971.50           2290       13471.00     58846.73
  115.53        2971.75           2294        9371.00     40902.53
  115.56        2972.00           2297        6367.00     27771.46
  115.59        2972.25           2301        3121.00     13598.07
  115.62        2972.50           2305        1181.00      5134.88
  115.65        2972.75           2308         596.00      2583.96
  115.68        2973.00           2312         424.00      1834.05
  115.71        2973.25           2315         404.00      1746.85
  115.74        2973.50           2319         375.00      1620.42
  115.78        2973.75           2322         375.00      1620.42
  115.81        2974.00           2326         364.00      1572.46
  115.84        2974.25           2329         341.00      1472.19
  115.87        2974.50           2333         330.00      1424.23
  115.90        2974.75           2337         322.00      1389.35
  115.93        2975.00           2340         338.00      1459.11
  115.96        2975.25           2344         306.00      1319.60
  115.99        2975.50           2347         292.00      1258.56
  116.02        2975.75           2351         301.00      1297.80
  116.05        2976.00           2354         292.00      1258.56
  116.08        2976.25           2358         263.00      1132.14
  116.11        2976.50           2362         290.00      1249.84
  116.14        2976.75           2365         291.00      1254.20
  116.17        2977.00           2369         278.00      1197.53
  116.20        2977.25           2372         254.00      1092.90
  116.23        2977.50           2376         269.00      1158.29
  116.26        2977.75           2379         243.00      1044.94
  116.30        2978.00           2383         257.00      1105.98
  116.33        2978.25           2387         254.00      1092.90
  116.36        2978.50           2390         253.00      1088.54
  116.39        2978.75           2394         257.00      1105.98
  116.42        2979.00           2397         254.00      1092.90
  116.45        2979.25           2401         250.00      1075.46
  116.48        2979.50           2404         245.00      1053.66
  116.51        2979.75           2408         234.00      1005.71
  116.54        2980.00           2411         219.00       940.31
  116.57        2980.25           2415         215.00       922.88
  116.60        2980.50           2419         245.00      1053.66
  116.63        2980.75           2422         224.00       962.11
  116.66        2981.00           2426         214.00       918.52
  116.69        2981.25           2429         201.00       861.84
  116.72        2981.50           2433         199.00       853.12
  116.75        2981.75           2436         203.00       870.56
  116.78        2982.00           2440         197.00       844.41
  116.81        2982.25           2444         191.00       818.25
  116.84        2982.50           2447         212.00       909.80
  116.88        2982.75           2451         200.00       857.48
  116.91        2983.00           2454         203.00       870.56
  116.94        2983.25           2458         186.00       796.45
  116.97        2983.50           2461         177.00       757.22
  117.00        2983.75           2465         188.00       805.17
  117.03        2984.00           2469         180.00       770.29
HS scan finished at 01:57:14
end
