************************************************************
  HS Scan of (1) Internal mercury lamp
************************************************************
Integration time is 0.2294 seconds per sample
dh240619El Arenosillo 37.1 6.73 3.13pr1000
************************************************************
Dead Time -------------------------  4E-08 
Number of Cycles Used -------------  4 
Starting Wavelength (Angstroms) ---  2950 
Final Wavelength (Angstoms) -------  2984 
Wavelength Increment (Angstroms) --  .25 
Filter Wheel #1 Position ---------- (1) Ground quartz diffuser (ND=2.32)
Filter Wheel #2 Position ---------- (1) Neutral Density 0.494



************************************************************
HS scan start time = 02:00:09
Dark Count =  2.3 


Time (GMT)  Wavelength (Ang)  Step Number  Raw Counts  Counts/Second

  120.91        2950.00           1985         158.00       678.75
  121.09        2950.25           1988         163.00       700.54
  121.12        2950.50           1992         157.00       674.39
  121.15        2950.75           1996         158.00       678.75
  121.18        2951.00           1999         167.00       717.98
  121.21        2951.25           2003         159.00       683.11
  121.24        2951.50           2006         165.00       709.26
  121.27        2951.75           2010         168.00       722.34
  121.30        2952.00           2013         163.00       700.54
  121.33        2952.25           2017         173.00       744.14
  121.36        2952.50           2020         180.00       774.65
  121.39        2952.75           2024         183.00       787.73
  121.43        2953.00           2027         179.00       770.29
  121.46        2953.25           2031         180.00       774.65
  121.49        2953.50           2034         185.00       796.45
  121.52        2953.75           2038         189.00       813.89
  121.55        2954.00           2042         187.00       805.17
  121.58        2954.25           2045         198.00       853.12
  121.61        2954.50           2049         193.00       831.33
  121.64        2954.75           2052         180.00       774.65
  121.67        2955.00           2056         201.00       866.20
  121.70        2955.25           2059         195.00       840.05
  121.73        2955.50           2063         201.00       866.20
  121.76        2955.75           2066         207.00       892.36
  121.79        2956.00           2070         199.00       857.48
  121.82        2956.25           2074         208.00       896.72
  121.85        2956.50           2077         221.00       953.39
  121.88        2956.75           2081         237.00      1023.15
  121.91        2957.00           2084         216.00       931.60
  121.95        2957.25           2088         216.00       931.60
  121.98        2957.50           2091         230.00       992.63
  122.01        2957.75           2095         239.00      1031.86
  122.04        2958.00           2098         226.00       975.19
  122.07        2958.25           2102         257.00      1110.34
  122.10        2958.50           2105         298.00      1289.08
  122.13        2958.75           2109         282.00      1219.33
  122.16        2959.00           2113         245.00      1058.02
  122.19        2959.25           2116         263.00      1136.49
  122.22        2959.50           2120         286.00      1236.77
  122.25        2959.75           2123         275.00      1188.81
  122.28        2960.00           2127         270.00      1167.01
  122.31        2960.25           2130         284.00      1228.05
  122.34        2960.50           2134         316.00      1367.56
  122.37        2960.75           2137         308.00      1332.68
  122.40        2961.00           2141         358.00      1550.66
  122.43        2961.25           2145         464.00      2012.80
  122.47        2961.50           2148         964.00      4192.94
  122.50        2961.75           2152        2823.00     12302.04
  122.53        2962.00           2155        5012.00     21857.38
  122.56        2962.25           2159        8225.00     35895.88
  122.59        2962.50           2162       10958.00     47849.57
  122.62        2962.75           2166       14709.00     64274.46
  122.65        2963.00           2169       17457.00     76321.13
  122.68        2963.25           2173       21152.00     92537.62
  122.71        2963.50           2177       24972.00    109324.90
  122.74        2963.75           2180       28280.00    123880.40
  122.77        2964.00           2184       31794.00    139361.00
  122.80        2964.25           2187       35123.00    154044.40
  122.83        2964.50           2191       38430.00    168647.80
  122.86        2964.75           2194       40835.00    179278.90
  122.89        2965.00           2198       44146.00    193929.70
  122.92        2965.25           2201       46668.00    205100.80
  122.95        2965.50           2205       50136.00    220478.60
  122.99        2965.75           2209       53041.00    233374.60
  123.02        2966.00           2212       55176.00    242860.90
  123.05        2966.25           2216       57776.00    254423.10
  123.08        2966.50           2219       58798.00    258970.90
  123.11        2966.75           2223       59149.00    260533.20
  123.14        2967.00           2226       58780.00    258890.80
  123.17        2967.25           2230       59293.00    261174.20
  123.20        2967.50           2233       58742.00    258721.70
  123.23        2967.75           2237       58769.00    258841.80
  123.26        2968.00           2241       57400.00    252750.40
  123.29        2968.25           2244       54171.00    238394.60
  123.32        2968.50           2248       50313.00    221264.00
  123.35        2968.75           2251       47375.00    208234.30
  123.38        2969.00           2255       43723.00    192057.00
  123.41        2969.25           2258       40787.00    179066.60
  123.44        2969.50           2262       37027.00    162450.20
  123.47        2969.75           2265       33905.00    148670.10
  123.51        2970.00           2269       29633.00    129838.70
  123.54        2970.25           2273       25340.00    110943.30
  123.57        2970.50           2276       21863.00     95660.46
  123.60        2970.75           2280       18043.00     78891.53
  123.63        2971.00           2283       15001.00     65553.97
  123.66        2971.25           2287       11367.00     49639.45
  123.69        2971.50           2290        8973.00     39166.37
  123.72        2971.75           2294        5485.00     23923.06
  123.75        2972.00           2297        3248.00     14156.66
  123.78        2972.25           2301        1140.00      4960.44
  123.81        2972.50           2305         470.00      2038.96
  123.84        2972.75           2308         409.00      1773.01
  123.87        2973.00           2312         339.00      1467.83
  123.90        2973.25           2315         323.00      1398.07
  123.93        2973.50           2319         316.00      1367.56
  123.96        2973.75           2322         316.00      1367.56
  123.99        2974.00           2326         304.00      1315.24
  124.03        2974.25           2329         286.00      1236.77
  124.06        2974.50           2333         287.00      1241.13
  124.09        2974.75           2337         262.00      1132.14
  124.12        2975.00           2340         268.00      1158.29
  124.15        2975.25           2344         239.00      1031.86
  124.18        2975.50           2347         266.00      1149.57
  124.21        2975.75           2351         242.00      1044.94
  124.24        2976.00           2354         240.00      1036.22
  124.27        2976.25           2358         263.00      1136.49
  124.30        2976.50           2362         233.00      1005.71
  124.33        2976.75           2365         235.00      1014.43
  124.36        2977.00           2369         239.00      1031.86
  124.39        2977.25           2372         230.00       992.63
  124.42        2977.50           2376         233.00      1005.71
  124.45        2977.75           2379         236.00      1018.79
  124.48        2978.00           2383         213.00       918.52
  124.51        2978.25           2387         206.00       888.00
  124.54        2978.50           2390         209.00       901.08
  124.58        2978.75           2394         225.00       970.83
  124.61        2979.00           2397         204.00       879.28
  124.64        2979.25           2401         195.00       840.05
  124.67        2979.50           2404         216.00       931.60
  124.70        2979.75           2408         203.00       874.92
  124.73        2980.00           2411         206.00       888.00
  124.76        2980.25           2415         198.00       853.12
  124.79        2980.50           2419         200.00       861.84
  124.82        2980.75           2422         195.00       840.05
  124.85        2981.00           2426         186.00       800.81
  124.88        2981.25           2429         187.00       805.17
  124.91        2981.50           2433         189.00       813.89
  124.94        2981.75           2436         171.00       735.42
  124.97        2982.00           2440         174.00       748.50
  125.00        2982.25           2444         170.00       731.06
  125.03        2982.50           2447         177.00       761.58
  125.06        2982.75           2451         175.00       752.86
  125.10        2983.00           2454         169.00       726.70
  125.13        2983.25           2458         160.00       687.46
  125.16        2983.50           2461         182.00       783.37
  125.19        2983.75           2465         178.00       765.93
  125.22        2984.00           2469         166.00       713.62
HS scan finished at 02:05:26
end
