************************************************************
  HS Scan of (1) Internal mercury lamp
************************************************************
Integration time is 0.2294 seconds per sample
dh190619El Arenosillo 37.1 6.73 3.21pr1000
************************************************************
Dead Time -------------------------  4E-08 
Number of Cycles Used -------------  4 
Starting Wavelength (Angstroms) ---  2950 
Final Wavelength (Angstoms) -------  2984 
Wavelength Increment (Angstroms) --  .25 
Filter Wheel #1 Position ---------- (1) Ground quartz diffuser (ND=2.32)
Filter Wheel #2 Position ---------- (1) Neutral Density 0.494



************************************************************
HS scan start time = 02:00:42
Dark Count =  3.1 


Time (GMT)  Wavelength (Ang)  Step Number  Raw Counts  Counts/Second

  121.46        2950.00           1985         136.00       579.35
  121.65        2950.25           1988         124.00       527.04
  121.68        2950.50           1992         134.00       570.63
  121.71        2950.75           1996         118.00       500.88
  121.74        2951.00           1999         125.00       531.40
  121.77        2951.25           2003         125.00       531.40
  121.80        2951.50           2006         116.00       492.16
  121.83        2951.75           2010         129.00       548.84
  121.86        2952.00           2013         147.00       627.30
  121.89        2952.25           2017         129.00       548.84
  121.92        2952.50           2020         127.00       540.12
  121.95        2952.75           2024         138.00       588.07
  121.98        2953.00           2027         139.00       592.43
  122.01        2953.25           2031         151.00       644.74
  122.04        2953.50           2034         145.00       618.59
  122.07        2953.75           2038         143.00       609.87
  122.10        2954.00           2042         147.00       627.30
  122.13        2954.25           2045         162.00       692.70
  122.16        2954.50           2049         151.00       644.74
  122.20        2954.75           2052         140.00       596.79
  122.23        2955.00           2056         144.00       614.23
  122.26        2955.25           2059         143.00       609.87
  122.29        2955.50           2063         158.00       675.26
  122.32        2955.75           2066         174.00       745.01
  122.35        2956.00           2070         156.00       666.54
  122.38        2956.25           2074         166.00       710.13
  122.41        2956.50           2077         159.00       679.62
  122.44        2956.75           2081         181.00       775.53
  122.47        2957.00           2084         171.00       731.93
  122.50        2957.25           2088         160.00       683.98
  122.53        2957.50           2091         168.00       718.85
  122.56        2957.75           2095         171.00       731.93
  122.59        2958.00           2098         169.00       723.21
  122.62        2958.25           2102         184.00       788.60
  122.65        2958.50           2105         181.00       775.53
  122.68        2958.75           2109         199.00       854.00
  122.72        2959.00           2113         196.00       840.92
  122.75        2959.25           2116         214.00       919.39
  122.78        2959.50           2120         205.00       880.15
  122.81        2959.75           2123         215.00       923.75
  122.84        2960.00           2127         211.00       906.31
  122.87        2960.25           2130         234.00      1006.58
  122.90        2960.50           2134         230.00       989.14
  122.93        2960.75           2137         236.00      1015.30
  122.96        2961.00           2141         276.00      1189.68
  122.99        2961.25           2145         528.00      2288.35
  123.02        2961.50           2148        1173.00      5100.87
  123.05        2961.75           2152        3034.00     13219.28
  123.08        2962.00           2155        4758.00     20744.76
  123.11        2962.25           2159        7297.00     31836.07
  123.14        2962.50           2162        9369.00     40894.65
  123.17        2962.75           2166       12069.00     52708.66
  123.20        2963.00           2169       14086.00     61541.46
  123.23        2963.25           2173       16742.00     73182.10
  123.27        2963.50           2177       19616.00     85790.41
  123.30        2963.75           2180       21908.00     95854.62
  123.33        2964.00           2184       24574.00    107571.30
  123.36        2964.25           2187       26862.00    117635.50
  123.39        2964.50           2191       29922.00    131108.20
  123.42        2964.75           2194       31914.00    139886.50
  123.45        2965.00           2198       34493.00    151260.70
  123.48        2965.25           2201       36543.00    160309.40
  123.51        2965.50           2205       38897.00    170707.90
  123.54        2965.75           2209       41558.00    182473.10
  123.57        2966.00           2212       43064.00    189136.50
  123.60        2966.25           2216       44211.00    194213.90
  123.63        2966.50           2219       44545.00    195692.80
  123.66        2966.75           2223       44736.00    196538.60
  123.69        2967.00           2226       44204.00    194182.90
  123.72        2967.25           2230       44683.00    196303.90
  123.75        2967.50           2233       44425.00    195161.50
  123.79        2967.75           2237       43814.00    192456.30
  123.82        2968.00           2241       42053.00    184662.80
  123.85        2968.25           2244       39914.00    175203.10
  123.88        2968.50           2248       36956.00    162133.10
  123.91        2968.75           2251       35025.00    153608.30
  123.94        2969.00           2255       31905.00    139846.80
  123.97        2969.25           2258       29907.00    131042.10
  124.00        2969.50           2262       26914.00    117864.30
  124.03        2969.75           2265       24647.00    107892.30
  124.06        2970.00           2269       21618.00     94580.78
  124.09        2970.25           2273       18904.00     82665.66
  124.12        2970.50           2276       16957.00     74124.86
  124.15        2970.75           2280       14555.00     63596.20
  124.18        2971.00           2283       12321.00     53811.88
  124.21        2971.25           2287        9326.00     40706.60
  124.24        2971.50           2290        7333.00     31993.40
  124.27        2971.75           2294        4423.00     19282.08
  124.30        2972.00           2297        2524.00     10993.94
  124.34        2972.25           2301        1055.00      4586.28
  124.37        2972.50           2305         428.00      1852.36
  124.40        2972.75           2308         305.00      1316.11
  124.43        2973.00           2312         280.00      1207.12
  124.46        2973.25           2315         267.00      1150.45
  124.49        2973.50           2319         283.00      1220.20
  124.52        2973.75           2322         225.00       967.34
  124.55        2974.00           2326         227.00       976.06
  124.58        2974.25           2329         237.00      1019.66
  124.61        2974.50           2333         222.00       954.26
  124.64        2974.75           2337         202.00       867.07
  124.67        2975.00           2340         205.00       880.15
  124.70        2975.25           2344         202.00       867.07
  124.73        2975.50           2347         204.00       875.79
  124.76        2975.75           2351         187.00       801.68
  124.79        2976.00           2354         192.00       823.48
  124.82        2976.25           2358         185.00       792.96
  124.86        2976.50           2362         176.00       753.73
  124.89        2976.75           2365         178.00       762.45
  124.92        2977.00           2369         172.00       736.29
  124.95        2977.25           2372         177.00       758.09
  124.98        2977.50           2376         167.00       714.49
  125.01        2977.75           2379         165.00       705.77
  125.04        2978.00           2383         167.00       714.49
  125.07        2978.25           2387         163.00       697.06
  125.10        2978.50           2390         160.00       683.98
  125.13        2978.75           2394         170.00       727.57
  125.16        2979.00           2397         162.00       692.70
  125.19        2979.25           2401         164.00       701.41
  125.22        2979.50           2404         150.00       640.38
  125.25        2979.75           2408         157.00       670.90
  125.28        2980.00           2411         147.00       627.30
  125.31        2980.25           2415         137.00       583.71
  125.34        2980.50           2419         156.00       666.54
  125.37        2980.75           2422         135.00       574.99
  125.40        2981.00           2426         134.00       570.63
  125.44        2981.25           2429         151.00       644.74
  125.47        2981.50           2433         144.00       614.23
  125.50        2981.75           2436         159.00       679.62
  125.53        2982.00           2440         181.00       775.53
  125.56        2982.25           2444         142.00       605.51
  125.59        2982.50           2447         124.00       527.04
  125.62        2982.75           2451         142.00       605.51
  125.65        2983.00           2454         125.00       531.40
  125.68        2983.25           2458         142.00       605.51
  125.71        2983.50           2461         119.00       505.24
  125.74        2983.75           2465         138.00       588.07
  125.77        2984.00           2469         135.00       574.99
HS scan finished at 02:05:59
end
************************************************************
  HS Scan of (1) Internal mercury lamp
************************************************************
Integration time is 0.2294 seconds per sample
dh190619El Arenosillo 37.1 6.73 3.13pr1000
************************************************************
Dead Time -------------------------  4E-08 
Number of Cycles Used -------------  4 
Starting Wavelength (Angstroms) ---  2950 
Final Wavelength (Angstoms) -------  2984 
Wavelength Increment (Angstroms) --  .25 
Filter Wheel #1 Position ---------- (1) Ground quartz diffuser (ND=2.32)
Filter Wheel #2 Position ---------- (1) Neutral Density 0.494



************************************************************
HS scan start time = 21:55:10
Dark Count =  3.3 


Time (GMT)  Wavelength (Ang)  Step Number  Raw Counts  Counts/Second

 1315.93        2950.00           1985         150.00       639.51
 1316.11        2950.25           1988         140.00       595.92
 1316.14        2950.50           1992         133.00       565.40
 1316.17        2950.75           1996         138.00       587.20
 1316.20        2951.00           1999         122.00       517.45
 1316.23        2951.25           2003         127.00       539.24
 1316.26        2951.50           2006         141.00       600.28
 1316.29        2951.75           2010         129.00       547.96
 1316.32        2952.00           2013         127.00       539.24
 1316.35        2952.25           2017         130.00       552.32
 1316.38        2952.50           2020         132.00       561.04
 1316.41        2952.75           2024         132.00       561.04
 1316.45        2953.00           2027         141.00       600.28
 1316.48        2953.25           2031         151.00       643.87
 1316.51        2953.50           2034         149.00       635.15
 1316.54        2953.75           2038         158.00       674.39
 1316.57        2954.00           2042         158.00       674.39
 1316.60        2954.25           2045         172.00       735.42
 1316.63        2954.50           2049         148.00       630.79
 1316.66        2954.75           2052         153.00       652.59
 1316.69        2955.00           2056         158.00       674.39
 1316.72        2955.25           2059         151.00       643.87
 1316.75        2955.50           2063         154.00       656.95
 1316.78        2955.75           2066         155.00       661.31
 1316.81        2956.00           2070         161.00       687.46
 1316.84        2956.25           2074         165.00       704.90
 1316.87        2956.50           2077         160.00       683.11
 1316.90        2956.75           2081         166.00       709.26
 1316.93        2957.00           2084         159.00       678.75
 1316.97        2957.25           2088         177.00       757.22
 1317.00        2957.50           2091         191.00       818.25
 1317.03        2957.75           2095         178.00       761.58
 1317.06        2958.00           2098         186.00       796.45
 1317.09        2958.25           2102         187.00       800.81
 1317.12        2958.50           2105         200.00       857.48
 1317.15        2958.75           2109         206.00       883.64
 1317.18        2959.00           2113         206.00       883.64
 1317.21        2959.25           2116         208.00       892.36
 1317.24        2959.50           2120         247.00      1062.38
 1317.27        2959.75           2123         215.00       922.88
 1317.30        2960.00           2127         221.00       949.03
 1317.33        2960.25           2130         234.00      1005.71
 1317.36        2960.50           2134         253.00      1088.54
 1317.39        2960.75           2137         240.00      1031.86
 1317.42        2961.00           2141         279.00      1201.89
 1317.45        2961.25           2145         524.00      2270.04
 1317.48        2961.50           2148        1056.00      4589.77
 1317.52        2961.75           2152        3014.00     13131.13
 1317.55        2962.00           2155        4982.00     21722.01
 1317.58        2962.25           2159        7626.00     33273.11
 1317.61        2962.50           2162        9820.00     42866.38
 1317.64        2962.75           2166       12633.00     55177.01
 1317.67        2963.00           2169       14996.00     65527.68
 1317.70        2963.25           2173       17858.00     78075.63
 1317.73        2963.50           2177       20513.00     89727.31
 1317.76        2963.75           2180       22520.00     98542.41
 1317.79        2964.00           2184       25156.00    110129.70
 1317.82        2964.25           2187       27367.00    119857.00
 1317.85        2964.50           2191       30200.00    132332.00
 1317.88        2964.75           2194       32521.00    142561.70
 1317.91        2965.00           2198       35322.00    154918.20
 1317.94        2965.25           2201       37316.00    163722.10
 1317.97        2965.50           2205       39701.00    174260.60
 1318.00        2965.75           2209       42285.00    185688.40
 1318.04        2966.00           2212       43937.00    192999.90
 1318.07        2966.25           2216       44969.00    197569.60
 1318.10        2966.50           2219       45464.00    199762.00
 1318.13        2966.75           2223       45590.00    200320.20
 1318.16        2967.00           2226       45667.00    200661.30
 1318.19        2967.25           2230       45397.00    199465.30
 1318.22        2967.50           2233       45409.00    199518.40
 1318.25        2967.75           2237       44796.00    196803.40
 1318.28        2968.00           2241       43340.00    190357.20
 1318.31        2968.25           2244       41285.00    181264.60
 1318.34        2968.50           2248       38119.00    167269.30
 1318.37        2968.75           2251       36017.00    157986.10
 1318.40        2969.00           2255       33514.00    146940.90
 1318.43        2969.25           2258       31574.00    138386.90
 1318.46        2969.50           2262       28753.00    125958.70
 1318.49        2969.75           2265       26393.00    115571.00
 1318.52        2970.00           2269       23281.00    101886.50
 1318.56        2970.25           2273       20940.00     91602.24
 1318.59        2970.50           2276       18848.00     82419.05
 1318.62        2970.75           2280       15868.00     69349.47
 1318.65        2971.00           2283       13799.00     60283.38
 1318.68        2971.25           2287       10933.00     47735.79
 1318.71        2971.50           2290        8454.00     36892.68
 1318.74        2971.75           2294        5503.00     23997.31
 1318.77        2972.00           2297        3612.00     15740.95
 1318.80        2972.25           2301        1456.00      6334.21
 1318.83        2972.50           2305         513.00      2222.08
 1318.86        2972.75           2308         316.00      1363.20
 1318.89        2973.00           2312         291.00      1254.20
 1318.92        2973.25           2315         252.00      1084.18
 1318.95        2973.50           2319         264.00      1136.49
 1318.98        2973.75           2322         254.00      1092.90
 1319.01        2974.00           2326         249.00      1071.10
 1319.04        2974.25           2329         226.00       970.83
 1319.08        2974.50           2333         213.00       914.16
 1319.11        2974.75           2337         220.00       944.67
 1319.14        2975.00           2340         211.00       905.44
 1319.17        2975.25           2344         198.00       848.76
 1319.20        2975.50           2347         206.00       883.64
 1319.23        2975.75           2351         202.00       866.20
 1319.26        2976.00           2354         192.00       822.61
 1319.29        2976.25           2358         191.00       818.25
 1319.32        2976.50           2362         188.00       805.17
 1319.35        2976.75           2365         172.00       735.42
 1319.38        2977.00           2369         181.00       774.65
 1319.41        2977.25           2372         177.00       757.22
 1319.44        2977.50           2376         184.00       787.73
 1319.47        2977.75           2379         166.00       709.26
 1319.50        2978.00           2383         172.00       735.42
 1319.53        2978.25           2387         168.00       717.98
 1319.56        2978.50           2390         163.00       696.18
 1319.60        2978.75           2394         157.00       670.03
 1319.63        2979.00           2397         162.00       691.82
 1319.66        2979.25           2401         154.00       656.95
 1319.69        2979.50           2404         167.00       713.62
 1319.72        2979.75           2408         145.00       617.71
 1319.75        2980.00           2411         147.00       626.43
 1319.78        2980.25           2415         147.00       626.43
 1319.81        2980.50           2419         160.00       683.11
 1319.84        2980.75           2422         142.00       604.64
 1319.87        2981.00           2426         164.00       700.54
 1319.90        2981.25           2429         158.00       674.39
 1319.93        2981.50           2433         153.00       652.59
 1319.96        2981.75           2436         157.00       670.03
 1319.99        2982.00           2440         138.00       587.20
 1320.02        2982.25           2444         141.00       600.28
 1320.05        2982.50           2447         145.00       617.71
 1320.08        2982.75           2451         140.00       595.92
 1320.12        2983.00           2454         149.00       635.15
 1320.15        2983.25           2458         146.00       622.07
 1320.18        2983.50           2461         154.00       656.95
 1320.21        2983.75           2465         129.00       547.96
 1320.24        2984.00           2469         165.00       704.90
HS scan finished at 22:00:27
end
