************************************************************
  HS Scan of (1) Internal mercury lamp
************************************************************
Integration time is 0.2294 seconds per sample
dh040617Arenosillo 37.1 6.73 3.15pr1000
************************************************************
Dead Time -------------------------  4E-08 
Number of Cycles Used -------------  4 
Starting Wavelength (Angstroms) ---  2950 
Final Wavelength (Angstoms) -------  2984 
Wavelength Increment (Angstroms) --  .25 
Filter Wheel #1 Position ---------- (1) Ground quartz diffuser (ND=2.32)
Filter Wheel #2 Position ---------- (1) Neutral Density 0.494



************************************************************
HS scan start time = 02:07:21
Dark Count =  8.100001 


Time (GMT)  Wavelength (Ang)  Step Number  Raw Counts  Counts/Second

  128.42        2950.00           2800          49.00       178.29
  128.68        2950.25           2803          46.00       165.21
  128.73        2950.50           2807          40.00       139.06
  128.76        2950.75           2811          46.00       165.21
  128.80        2951.00           2814          40.00       139.06
  128.83        2951.25           2818          48.00       173.93
  128.87        2951.50           2821          49.00       178.29
  128.90        2951.75           2825          49.00       178.29
  128.94        2952.00           2828          40.00       139.06
  129.00        2952.25           2832          54.00       200.09
  129.03        2952.50           2835          42.00       147.78
  129.07        2952.75           2839          44.00       156.50
  129.10        2953.00           2843          53.00       195.73
  129.14        2953.25           2846          48.00       173.93
  129.17        2953.50           2850          45.00       160.86
  129.21        2953.75           2853          52.00       191.37
  129.24        2954.00           2857          55.00       204.45
  129.30        2954.25           2860          54.00       200.09
  129.34        2954.50           2864          48.00       173.93
  129.37        2954.75           2867          48.00       173.93
  129.41        2955.00           2871          52.00       191.37
  129.44        2955.25           2875          57.00       213.17
  129.48        2955.50           2878          52.00       191.37
  129.51        2955.75           2882          51.00       187.01
  129.55        2956.00           2885          59.00       221.89
  129.60        2956.25           2889          61.00       230.60
  129.64        2956.50           2892          64.00       243.68
  129.67        2956.75           2896          61.00       230.60
  129.71        2957.00           2899          60.00       226.24
  129.74        2957.25           2903          65.00       248.04
  129.78        2957.50           2907          63.00       239.32
  129.82        2957.75           2910          65.00       248.04
  129.85        2958.00           2914          67.00       256.76
  129.91        2958.25           2917          71.00       274.20
  129.95        2958.50           2921          73.00       282.92
  129.98        2958.75           2924          68.00       261.12
  130.02        2959.00           2928          74.00       287.27
  130.05        2959.25           2931          77.00       300.35
  130.09        2959.50           2935          65.00       248.04
  130.11        2959.75           2939         100.00       400.62
  130.14        2960.00           2942          81.00       317.79
  130.20        2960.25           2946          82.00       322.15
  130.23        2960.50           2949          78.00       304.71
  130.27        2960.75           2953          95.00       378.82
  130.30        2961.00           2956          81.00       317.79
  130.34        2961.25           2960          86.00       339.59
  130.37        2961.50           2963          89.00       352.66
  130.41        2961.75           2967         102.00       409.34
  130.44        2962.00           2971         141.00       579.35
  130.50        2962.25           2974         134.00       548.84
  130.54        2962.50           2978         271.00      1146.09
  130.57        2962.75           2981         502.00      2153.19
  130.61        2963.00           2985         823.00      3552.82
  130.64        2963.25           2988        1123.00      4861.01
  130.68        2963.50           2992        1669.00      7242.29
  130.71        2963.75           2996        2251.00      9781.07
  130.76        2964.00           2999        2659.00     11561.14
  130.81        2964.25           3003        3287.00     14301.55
  130.84        2964.50           3006        3824.00     16645.34
  130.88        2964.75           3010        4529.00     19723.05
  130.92        2965.00           3013        5038.00     21945.59
  130.95        2965.25           3017        5635.00     24552.88
  130.99        2965.50           3020        6050.00     26365.63
  131.02        2965.75           3024        6728.00     29327.76
  131.08        2966.00           3028        7219.00     31473.34
  131.12        2966.25           3031        7606.00     33164.72
  131.15        2966.50           3035        8437.00     36797.37
  131.19        2966.75           3038        9019.00     39342.17
  131.22        2967.00           3042        9618.00     41961.83
  131.26        2967.25           3045        9938.00     43361.55
  131.29        2967.50           3049       10211.00     44555.81
  131.33        2967.75           3053       10304.00     44962.67
  131.39        2968.00           3056       10359.00     45203.28
  131.42        2968.25           3060       10372.00     45260.16
  131.46        2968.50           3063       10349.00     45159.54
  131.49        2968.75           3067       10152.00     44297.69
  131.53        2969.00           3070       10050.00     43851.49
  131.56        2969.25           3074        9855.00     42998.48
  131.60        2969.50           3078        9232.00     40273.63
  131.63        2969.75           3081        8710.00     37991.00
  131.69        2970.00           3085        8279.00     36106.60
  131.73        2970.25           3088        7773.00     33894.66
  131.76        2970.50           3092        7137.00     31114.99
  131.80        2970.75           3095        6631.00     28903.93
  131.84        2971.00           3099        5916.00     25780.28
  131.87        2971.25           3103        5260.00     22915.07
  131.91        2971.50           3106        4678.00     20373.61
  131.94        2971.75           3110        4098.00     17841.41
  132.00        2972.00           3113        3614.00     15728.72
  132.04        2972.25           3117        2998.00     13040.37
  132.07        2972.50           3120        2571.00     11177.18
  132.11        2972.75           3124        2102.00      9131.06
  132.14        2973.00           3128        1579.00      6849.74
  132.18        2973.25           3131        1136.00      4917.71
  132.21        2973.50           3135         690.00      2972.89
  132.24        2973.75           3138         470.00      2013.68
  132.30        2974.00           3142         293.00      1242.00
  132.34        2974.25           3145         183.00       762.45
  132.37        2974.50           3149         130.00       531.40
  132.41        2974.75           3152         119.00       483.44
  132.44        2975.00           3156          96.00       383.18
  132.48        2975.25           3160          96.00       383.18
  132.51        2975.50           3163          82.00       322.15
  132.55        2975.75           3167          80.00       313.43
  132.61        2976.00           3170          90.00       357.02
  132.64        2976.25           3174          90.00       357.02
  132.68        2976.50           3177          85.00       335.23
  132.71        2976.75           3181          78.00       304.71
  132.75        2977.00           3185          76.00       295.99
  132.78        2977.25           3188          78.00       304.71
  132.82        2977.50           3192          69.00       265.48
  132.86        2977.75           3195          70.00       269.84
  132.91        2978.00           3199          62.00       234.96
  132.94        2978.25           3203          74.00       287.27
  132.98        2978.50           3206          64.00       243.68
  133.02        2978.75           3210          72.00       278.56
  133.05        2979.00           3213          64.00       243.68
  133.09        2979.25           3217          58.00       217.53
  133.12        2979.50           3220          62.00       234.96
  133.18        2979.75           3224          63.00       239.32
  133.22        2980.00           3228          59.00       221.89
  133.25        2980.25           3231          54.00       200.09
  133.29        2980.50           3235          66.00       252.40
  133.32        2980.75           3238          60.00       226.24
  133.36        2981.00           3242          63.00       239.32
  133.39        2981.25           3245          56.00       208.81
  133.43        2981.50           3249          53.00       195.73
  133.49        2981.75           3253          56.00       208.81
  133.52        2982.00           3256          54.00       200.09
  133.56        2982.25           3260          56.00       208.81
  133.59        2982.50           3263          53.00       195.73
  133.63        2982.75           3267          55.00       204.45
  133.66        2983.00           3270          55.00       204.45
  133.70        2983.25           3274          45.00       160.86
  133.73        2983.50           3278          51.00       187.01
  133.79        2983.75           3281          46.00       165.21
  133.83        2984.00           3285          51.00       187.01
HS scan finished at 02:14:03
end
