************************************************************
  HS Scan of (1) Internal mercury lamp
************************************************************
Integration time is 0.2294 seconds per sample
dh310517Arenosillo 37.1 6.73 3.31pr1000
************************************************************
Dead Time -------------------------  4E-08 
Number of Cycles Used -------------  4 
Starting Wavelength (Angstroms) ---  2950 
Final Wavelength (Angstoms) -------  2984 
Wavelength Increment (Angstroms) --  .25 
Filter Wheel #1 Position ---------- (1) Ground quartz diffuser (ND=2.32)
Filter Wheel #2 Position ---------- (1) Neutral Density 0.494



************************************************************
HS scan start time = 02:11:27
Dark Count =  14.3 


Time (GMT)  Wavelength (Ang)  Step Number  Raw Counts  Counts/Second

  132.53        2950.00           2800          46.00       138.19
  132.79        2950.25           2803          43.00       125.11
  132.83        2950.50           2807          49.00       151.27
  132.87        2950.75           2811          51.00       159.98
  132.90        2951.00           2814          46.00       138.19
  132.94        2951.25           2818          54.00       173.06
  132.97        2951.50           2821          47.00       142.55
  133.01        2951.75           2825          41.00       116.39
  133.04        2952.00           2828          48.00       146.91
  133.10        2952.25           2832          52.00       164.34
  133.14        2952.50           2835          48.00       146.91
  133.17        2952.75           2839          55.00       177.42
  133.21        2953.00           2843          55.00       177.42
  133.24        2953.25           2846          54.00       173.06
  133.28        2953.50           2850          52.00       164.34
  133.31        2953.75           2853          53.00       168.70
  133.35        2954.00           2857          56.00       181.78
  133.41        2954.25           2860          59.00       194.86
  133.44        2954.50           2864          52.00       164.34
  133.48        2954.75           2867          57.00       186.14
  133.51        2955.00           2871          52.00       164.34
  133.55        2955.25           2875          59.00       194.86
  133.58        2955.50           2878          54.00       173.06
  133.62        2955.75           2882          60.00       199.22
  133.65        2956.00           2885          60.00       199.22
  133.71        2956.25           2889          59.00       194.86
  133.75        2956.50           2892          55.00       177.42
  133.78        2956.75           2896          64.00       216.65
  133.82        2957.00           2899          70.00       242.81
  133.85        2957.25           2903          76.00       268.97
  133.89        2957.50           2907          70.00       242.81
  133.92        2957.75           2910          70.00       242.81
  133.96        2958.00           2914          63.00       212.29
  134.02        2958.25           2917          75.00       264.61
  134.05        2958.50           2921          78.00       277.68
  134.09        2958.75           2924          72.00       251.53
  134.12        2959.00           2928          79.00       282.04
  134.16        2959.25           2931          76.00       268.97
  134.19        2959.50           2935          73.00       255.89
  134.23        2959.75           2939          72.00       251.53
  134.26        2960.00           2942          71.00       247.17
  134.32        2960.25           2946          78.00       277.68
  134.36        2960.50           2949          75.00       264.61
  134.39        2960.75           2953          97.00       360.51
  134.43        2961.00           2956          88.00       321.28
  134.46        2961.25           2960          95.00       351.79
  134.50        2961.50           2963          90.00       330.00
  134.53        2961.75           2967         103.00       386.67
  134.57        2962.00           2971         156.00       617.71
  134.63        2962.25           2974         208.00       844.41
  134.66        2962.50           2978         379.00      1589.90
  134.70        2962.75           2981         647.00      2758.37
  134.73        2963.00           2985        1105.00      4755.48
  134.77        2963.25           2988        1502.00      6486.86
  134.80        2963.50           2992        2057.00      8907.71
  134.84        2963.75           2996        2739.00     11883.15
  134.88        2964.00           2999        3306.00     14357.42
  134.93        2964.25           3003        4046.00     17587.35
  134.96        2964.50           3006        4539.00     19739.65
  135.00        2964.75           3010        5188.00     22573.56
  135.03        2965.00           3013        5818.00     25325.12
  135.07        2965.25           3017        6424.00     27972.43
  135.11        2965.50           3020        6781.00     29532.25
  135.14        2965.75           3024        7344.00     31992.53
  135.20        2966.00           3028        7839.00     34156.06
  135.24        2966.25           3031        8241.00     35913.37
  135.27        2966.50           3035        8671.00     37793.36
  135.30        2966.75           3038        9212.00     40159.06
  135.34        2967.00           3042        9656.00     42100.92
  135.37        2967.25           3045        9959.00     43426.29
  135.41        2967.50           3049       10132.00     44183.08
  135.44        2967.75           3053       10224.00     44585.55
  135.50        2968.00           3056       10091.00     44003.72
  135.54        2968.25           3060       10084.00     43973.10
  135.57        2968.50           3063       10016.00     43675.63
  135.61        2968.75           3067        9553.00     41650.42
  135.64        2969.00           3070        9392.00     40946.27
  135.68        2969.25           3074        8868.00     38654.75
  135.71        2969.50           3078        8575.00     37373.62
  135.75        2969.75           3081        8215.00     35799.70
  135.81        2970.00           3085        7753.00     33780.14
  135.84        2970.25           3088        7284.00     31730.31
  135.88        2970.50           3092        6781.00     29532.25
  135.91        2970.75           3095        6095.00     26535.13
  135.95        2971.00           3099        5467.00     23792.03
  135.99        2971.25           3103        4652.00     20233.02
  136.02        2971.50           3106        4172.00     18137.39
  136.06        2971.75           3110        3542.00     15387.41
  136.11        2972.00           3113        3140.00     13632.98
  136.15        2972.25           3117        2586.00     11215.58
  136.18        2972.50           3120        2093.00      9064.75
  136.22        2972.75           3124        1523.00      6578.45
  136.26        2973.00           3128        1008.00      4332.49
  136.29        2973.25           3131         680.00      2902.26
  136.33        2973.50           3135         410.00      1725.05
  136.36        2973.75           3138         280.00      1158.29
  136.42        2974.00           3142         181.00       726.70
  136.45        2974.25           3145         141.00       552.32
  136.49        2974.50           3149         119.00       456.42
  136.52        2974.75           3152          98.00       364.87
  136.56        2975.00           3156         100.00       373.59
  136.59        2975.25           3160          87.00       316.92
  136.63        2975.50           3163          94.00       347.43
  136.66        2975.75           3167          85.00       308.20
  136.72        2976.00           3170          88.00       321.28
  136.76        2976.25           3174          85.00       308.20
  136.79        2976.50           3177          91.00       334.35
  136.83        2976.75           3181          84.00       303.84
  136.87        2977.00           3185          79.00       282.04
  136.90        2977.25           3188          82.00       295.12
  136.93        2977.50           3192          80.00       286.40
  136.98        2977.75           3195          81.00       290.76
  137.03        2978.00           3199          72.00       251.53
  137.07        2978.25           3203          76.00       268.97
  137.10        2978.50           3206          68.00       234.09
  137.14        2978.75           3210          66.00       225.37
  137.17        2979.00           3213          70.00       242.81
  137.21        2979.25           3217          70.00       242.81
  137.24        2979.50           3220          73.00       255.89
  137.30        2979.75           3224          63.00       212.29
  137.33        2980.00           3228          69.00       238.45
  137.37        2980.25           3231          67.00       229.73
  137.40        2980.50           3235          67.00       229.73
  137.44        2980.75           3238          57.00       186.14
  137.47        2981.00           3242          61.00       203.58
  137.51        2981.25           3245          60.00       199.22
  137.54        2981.50           3249          56.00       181.78
  137.60        2981.75           3253          62.00       207.94
  137.64        2982.00           3256          59.00       194.86
  137.67        2982.25           3260          62.00       207.94
  137.71        2982.50           3263          57.00       186.14
  137.74        2982.75           3267          59.00       194.86
  137.78        2983.00           3270          55.00       177.42
  137.81        2983.25           3274          60.00       199.22
  137.85        2983.50           3278          54.00       173.06
  137.90        2983.75           3281          52.00       164.34
  137.94        2984.00           3285          53.00       168.70
HS scan finished at 02:18:10
end
************************************************************
  HS Scan of (1) Internal mercury lamp
************************************************************
Integration time is 0.2294 seconds per sample
dh310517Arenosillo 37.1 6.73 3.37pr1000
************************************************************
Dead Time -------------------------  4E-08 
Number of Cycles Used -------------  4 
Starting Wavelength (Angstroms) ---  2950 
Final Wavelength (Angstoms) -------  2984 
Wavelength Increment (Angstroms) --  .25 
Filter Wheel #1 Position ---------- (1) Ground quartz diffuser (ND=2.32)
Filter Wheel #2 Position ---------- (1) Neutral Density 0.494



************************************************************
HS scan start time = 21:49:15
Dark Count =  16.3 


Time (GMT)  Wavelength (Ang)  Step Number  Raw Counts  Counts/Second

 1310.32        2950.00           2800          49.00       142.55
 1310.57        2950.25           2803          56.00       173.06
 1310.60        2950.50           2807          56.00       173.06
 1310.66        2950.75           2811          52.00       155.62
 1310.69        2951.00           2814          57.00       177.42
 1310.73        2951.25           2818          50.00       146.91
 1310.76        2951.50           2821          52.00       155.62
 1310.80        2951.75           2825          62.00       199.22
 1310.83        2952.00           2828          55.00       168.70
 1310.87        2952.25           2832          62.00       199.22
 1310.90        2952.50           2835          51.00       151.27
 1310.94        2952.75           2839          67.00       221.01
 1310.97        2953.00           2843          64.00       207.94
 1311.03        2953.25           2846          59.00       186.14
 1311.07        2953.50           2850          60.00       190.50
 1311.10        2953.75           2853          66.00       216.65
 1311.14        2954.00           2857          66.00       216.65
 1311.17        2954.25           2860          61.00       194.86
 1311.21        2954.50           2864          57.00       177.42
 1311.24        2954.75           2867          63.00       203.58
 1311.28        2955.00           2871          60.00       190.50
 1311.31        2955.25           2875          67.00       221.01
 1311.37        2955.50           2878          75.00       255.89
 1311.40        2955.75           2882          64.00       207.94
 1311.44        2956.00           2885          73.00       247.17
 1311.47        2956.25           2889          69.00       229.73
 1311.51        2956.50           2892          67.00       221.01
 1311.54        2956.75           2896          69.00       229.73
 1311.58        2957.00           2899          71.00       238.45
 1311.62        2957.25           2903          71.00       238.45
 1311.65        2957.50           2907          76.00       260.25
 1311.69        2957.75           2910          80.00       277.68
 1311.74        2958.00           2914          87.00       308.20
 1311.78        2958.25           2917          78.00       268.97
 1311.81        2958.50           2921         101.00       369.23
 1311.85        2958.75           2924          88.00       312.56
 1311.88        2959.00           2928          82.00       286.40
 1311.92        2959.25           2931          87.00       308.20
 1311.96        2959.50           2935          90.00       321.28
 1311.99        2959.75           2939          84.00       295.12
 1312.03        2960.00           2942          93.00       334.35
 1312.07        2960.25           2946          95.00       343.07
 1312.12        2960.50           2949          97.00       351.79
 1312.15        2960.75           2953         100.00       364.87
 1312.19        2961.00           2956         105.00       386.67
 1312.22        2961.25           2960         131.00       500.01
 1312.26        2961.50           2963         134.00       513.09
 1312.29        2961.75           2967         178.00       704.90
 1312.33        2962.00           2971         345.00      1432.95
 1312.37        2962.25           2974         569.00      2409.56
 1312.40        2962.50           2978        1034.00      4437.14
 1312.46        2962.75           2981        1431.00      6168.48
 1312.49        2963.00           2985        1993.00      8619.80
 1312.53        2963.25           2988        2329.00     10085.59
 1312.56        2963.50           2992        2996.00     12995.86
 1312.60        2963.75           2996        3609.00     15671.11
 1312.64        2964.00           2999        3970.00     17246.86
 1312.67        2964.25           3003        4529.00     19687.25
 1312.71        2964.50           3006        5162.00     22451.28
 1312.74        2964.75           3010        5895.00     25652.73
 1312.78        2965.00           3013        6500.00     28295.74
 1312.84        2965.25           3017        7234.00     31503.06
 1312.87        2965.50           3020        7750.00     33758.29
 1312.91        2965.75           3024        8422.00     36695.94
 1312.95        2966.00           3028        8984.00     39153.25
 1312.98        2966.25           3031        9517.00     41484.21
 1313.02        2966.50           3035       10068.00     43894.35
 1313.05        2966.75           3038       10483.00     45709.92
 1313.09        2967.00           3042       10948.00     47744.55
 1313.12        2967.25           3045       11133.00     48554.11
 1313.18        2967.50           3049       11459.00     49980.82
 1313.21        2967.75           3053       11254.00     49083.64
 1313.25        2968.00           3056       11536.00     50317.83
 1313.28        2968.25           3060       11430.00     49853.90
 1313.32        2968.50           3063       11357.00     49534.41
 1313.35        2968.75           3067       11089.00     48361.56
 1313.39        2969.00           3070       10775.00     46987.53
 1313.43        2969.25           3074       10334.00     45058.04
 1313.46        2969.50           3078        9616.00     41917.22
 1313.50        2969.75           3081        9004.00     39240.71
 1313.55        2970.00           3085        8440.00     36774.63
 1313.59        2970.25           3088        8054.00     35087.14
 1313.63        2970.50           3092        7356.00     32036.23
 1313.66        2970.75           3095        7045.00     30677.12
 1313.70        2971.00           3099        6086.00     26487.07
 1313.73        2971.25           3103        5249.00     22831.22
 1313.77        2971.50           3106        4500.00     19560.64
 1313.80        2971.75           3110        3766.00     16356.38
 1313.84        2972.00           3113        3294.00     14296.32
 1313.89        2972.25           3117        2669.00     11569.00
 1313.93        2972.50           3120        2234.00      9671.14
 1313.96        2972.75           3124        1674.00      7228.33
 1314.00        2973.00           3128        1128.00      4847.06
 1314.04        2973.25           3131         849.00      3630.43
 1314.07        2973.50           3135         497.00      2095.64
 1314.11        2973.75           3138         329.00      1363.20
 1314.14        2974.00           3142         198.00       792.09
 1314.18        2974.25           3145         156.00       608.99
 1314.21        2974.50           3149         117.00       438.98
 1314.27        2974.75           3152         124.00       469.49
 1314.30        2975.00           3156         136.00       521.81
 1314.34        2975.25           3160          97.00       351.79
 1314.37        2975.50           3163          93.00       334.35
 1314.41        2975.75           3167          91.00       325.64
 1314.45        2976.00           3170          88.00       312.56
 1314.48        2976.25           3174         100.00       364.87
 1314.52        2976.50           3177         106.00       391.03
 1314.55        2976.75           3181          83.00       290.76
 1314.60        2977.00           3185          84.00       295.12
 1314.64        2977.25           3188          91.00       325.64
 1314.68        2977.50           3192          85.00       299.48
 1314.71        2977.75           3195          78.00       268.97
 1314.75        2978.00           3199          79.00       273.32
 1314.78        2978.25           3203          82.00       286.40
 1314.82        2978.50           3206          76.00       260.25
 1314.85        2978.75           3210          77.00       264.61
 1314.89        2979.00           3213          83.00       290.76
 1314.92        2979.25           3217          61.00       194.86
 1314.98        2979.50           3220          70.00       234.09
 1315.01        2979.75           3224          64.00       207.94
 1315.05        2980.00           3228          73.00       247.17
 1315.09        2980.25           3231          67.00       221.01
 1315.12        2980.50           3235          70.00       234.09
 1315.16        2980.75           3238          66.00       216.65
 1315.19        2981.00           3242          64.00       207.94
 1315.23        2981.25           3245          67.00       221.01
 1315.26        2981.50           3249          61.00       194.86
 1315.30        2981.75           3253          61.00       194.86
 1315.35        2982.00           3256          64.00       207.94
 1315.39        2982.25           3260          58.00       181.78
 1315.42        2982.50           3263          59.00       186.14
 1315.46        2982.75           3267          56.00       173.06
 1315.49        2983.00           3270          60.00       190.50
 1315.53        2983.25           3274          59.00       186.14
 1315.56        2983.50           3278          59.00       186.14
 1315.60        2983.75           3281          55.00       168.70
 1315.63        2984.00           3285          49.00       142.55
HS scan finished at 21:55:53
end
