************************************************************
  HS Scan of (1) Internal mercury lamp
************************************************************
Integration time is 0.2294 seconds per sample
dh010617Arenosillo 37.1 6.73 3.35pr1000
************************************************************
Dead Time -------------------------  4E-08 
Number of Cycles Used -------------  4 
Starting Wavelength (Angstroms) ---  2950 
Final Wavelength (Angstoms) -------  2984 
Wavelength Increment (Angstroms) --  .25 
Filter Wheel #1 Position ---------- (1) Ground quartz diffuser (ND=2.32)
Filter Wheel #2 Position ---------- (1) Neutral Density 0.494



************************************************************
HS scan start time = 02:16:44
Dark Count =  14.9 


Time (GMT)  Wavelength (Ang)  Step Number  Raw Counts  Counts/Second

  137.82        2950.00           2800          52.00       161.73
  138.09        2950.25           2803          57.00       183.52
  138.12        2950.50           2807          52.00       161.73
  138.16        2950.75           2811          51.00       157.37
  138.19        2951.00           2814          57.00       183.52
  138.23        2951.25           2818          49.00       148.65
  138.26        2951.50           2821          48.00       144.29
  138.30        2951.75           2825          60.00       196.60
  138.34        2952.00           2828          54.00       170.45
  138.39        2952.25           2832          58.00       187.88
  138.43        2952.50           2835          56.00       179.16
  138.46        2952.75           2839          58.00       187.88
  138.50        2953.00           2843          60.00       196.60
  138.53        2953.25           2846          56.00       179.16
  138.57        2953.50           2850          59.00       192.24
  138.60        2953.75           2853          62.00       205.32
  138.66        2954.00           2857          65.00       218.40
  138.70        2954.25           2860          62.00       205.32
  138.73        2954.50           2864          66.00       222.76
  138.77        2954.75           2867          73.00       253.27
  138.80        2955.00           2871          63.00       209.68
  138.84        2955.25           2875          68.00       231.48
  138.88        2955.50           2878          68.00       231.48
  138.93        2955.75           2882          64.00       214.04
  138.97        2956.00           2885          73.00       253.27
  139.01        2956.25           2889          75.00       261.99
  139.04        2956.50           2892          71.00       244.55
  139.08        2956.75           2896          72.00       248.91
  139.11        2957.00           2899          77.00       270.71
  139.15        2957.25           2903          78.00       275.07
  139.18        2957.50           2907          71.00       244.55
  139.24        2957.75           2910          75.00       261.99
  139.27        2958.00           2914          77.00       270.71
  139.31        2958.25           2917          77.00       270.71
  139.35        2958.50           2921          76.00       266.35
  139.38        2958.75           2924          81.00       288.15
  139.42        2959.00           2928          84.00       301.22
  139.45        2959.25           2931          87.00       314.30
  139.51        2959.50           2935          86.00       309.94
  139.55        2959.75           2939          89.00       323.02
  139.58        2960.00           2942         116.00       440.72
  139.62        2960.25           2946          92.00       336.10
  139.65        2960.50           2949         115.00       436.36
  139.68        2960.75           2953          94.00       344.82
  139.72        2961.00           2956         112.00       423.29
  139.75        2961.25           2960         107.00       401.49
  139.81        2961.50           2963         104.00       388.41
  139.85        2961.75           2967         129.00       497.39
  139.89        2962.00           2971         116.00       440.72
  139.92        2962.25           2974         152.00       597.66
  139.96        2962.50           2978         286.00      1181.83
  139.99        2962.75           2981         488.00      2062.51
  140.03        2963.00           2985         841.00      3601.65
  140.09        2963.25           2988        1150.00      4949.11
  140.12        2963.50           2992        1621.00      7003.27
  140.16        2963.75           2996        2340.00     10139.68
  140.19        2964.00           2999        2833.00     12290.70
  140.23        2964.25           3003        3671.00     15947.83
  140.26        2964.50           3006        4424.00     19234.94
  140.30        2964.75           3010        5214.00     22684.48
  140.33        2965.00           3013        5885.00     25615.16
  140.39        2965.25           3017        6406.00     27891.17
  140.43        2965.50           3020        6771.00     29485.94
  140.46        2965.75           3024        7503.00     32684.82
  140.50        2966.00           3028        8137.00     35456.10
  140.53        2966.25           3031        8784.00     38284.83
  140.57        2966.50           3035        9582.00     41774.63
  140.60        2966.75           3038       10244.00     44670.42
  140.66        2967.00           3042       11070.00     48284.53
  140.69        2967.25           3045       11355.00     49531.78
  140.73        2967.50           3049       11604.00     50621.58
  140.76        2967.75           3053       11877.00     51816.53
  140.80        2968.00           3056       11753.00     51273.75
  140.83        2968.25           3060       11876.00     51812.15
  140.87        2968.50           3063       11715.00     51107.42
  140.92        2968.75           3067       11357.00     49540.53
  140.96        2969.00           3070       10985.00     47912.57
  141.00        2969.25           3074       10410.00     45396.65
  141.03        2969.50           3078        9732.00     42430.71
  141.07        2969.75           3081        9249.00     40318.24
  141.10        2970.00           3085        8439.00     36776.38
  141.14        2970.25           3088        7921.00     34511.87
  141.17        2970.50           3092        7100.00     30923.58
  141.23        2970.75           3095        6544.00     28494.10
  141.27        2971.00           3099        5670.00     24676.05
  141.30        2971.25           3103        5056.00     21994.50
  141.34        2971.50           3106        4497.00     19553.65
  141.38        2971.75           3110        3890.00     16903.75
  141.41        2972.00           3113        3274.00     14215.14
  141.45        2972.25           3117        2482.00     10759.21
  141.48        2972.50           3120        1995.00      8634.63
  141.54        2972.75           3124        1181.00      5084.29
  141.58        2973.00           3128         701.00      2991.20
  141.61        2973.25           3131         477.00      2014.55
  141.64        2973.50           3135         351.00      1465.21
  141.68        2973.75           3138         261.00      1072.84
  141.71        2974.00           3142         189.00       758.96
  141.75        2974.25           3145         168.00       667.41
  141.81        2974.50           3149         146.00       571.50
  141.84        2974.75           3152         113.00       427.64
  141.88        2975.00           3156         106.00       397.13
  141.92        2975.25           3160         137.00       532.27
  141.95        2975.50           3163         124.00       475.60
  141.99        2975.75           3167         107.00       401.49
  142.02        2976.00           3170          87.00       314.30
  142.06        2976.25           3174         120.00       458.16
  142.12        2976.50           3177         103.00       384.05
  142.15        2976.75           3181          90.00       327.38
  142.19        2977.00           3185          95.00       349.18
  142.22        2977.25           3188          88.00       318.66
  142.26        2977.50           3192          94.00       344.82
  142.29        2977.75           3195          85.00       305.58
  142.33        2978.00           3199          80.00       283.79
  142.39        2978.25           3203          80.00       283.79
  142.42        2978.50           3206          71.00       244.55
  142.46        2978.75           3210          75.00       261.99
  142.49        2979.00           3213          78.00       275.07
  142.53        2979.25           3217          74.00       257.63
  142.56        2979.50           3220          73.00       253.27
  142.60        2979.75           3224          74.00       257.63
  142.63        2980.00           3228          86.00       309.94
  142.69        2980.25           3231          71.00       244.55
  142.73        2980.50           3235          67.00       227.12
  142.76        2980.75           3238          68.00       231.48
  142.80        2981.00           3242          72.00       248.91
  142.83        2981.25           3245          67.00       227.12
  142.87        2981.50           3249          66.00       222.76
  142.91        2981.75           3253          67.00       227.12
  142.96        2982.00           3256          61.00       200.96
  143.00        2982.25           3260          71.00       244.55
  143.04        2982.50           3263          59.00       192.24
  143.07        2982.75           3267          57.00       183.52
  143.11        2983.00           3270          59.00       192.24
  143.14        2983.25           3274          61.00       200.96
  143.18        2983.50           3278          59.00       192.24
  143.21        2983.75           3281          58.00       187.88
  143.27        2984.00           3285          61.00       200.96
HS scan finished at 02:23:30
end
************************************************************
  HS Scan of (1) Internal mercury lamp
************************************************************
Integration time is 0.2294 seconds per sample
dh010617Arenosillo 37.1 6.73 3.45pr1000
************************************************************
Dead Time -------------------------  4E-08 
Number of Cycles Used -------------  4 
Starting Wavelength (Angstroms) ---  2950 
Final Wavelength (Angstoms) -------  2984 
Wavelength Increment (Angstroms) --  .25 
Filter Wheel #1 Position ---------- (1) Ground quartz diffuser (ND=2.32)
Filter Wheel #2 Position ---------- (1) Neutral Density 0.494



************************************************************
HS scan start time = 21:50:07
Dark Count =  20.1 


Time (GMT)  Wavelength (Ang)  Step Number  Raw Counts  Counts/Second

 1311.20        2950.00           2800          47.00       117.26
 1311.44        2950.25           2803          59.00       169.57
 1311.48        2950.50           2807          53.00       143.42
 1311.52        2950.75           2811          53.00       143.42
 1311.57        2951.00           2814          54.00       147.78
 1311.60        2951.25           2818          47.00       117.26
 1311.64        2951.50           2821          56.00       156.50
 1311.67        2951.75           2825          49.00       125.98
 1311.71        2952.00           2828          56.00       156.50
 1311.74        2952.25           2832          54.00       147.78
 1311.78        2952.50           2835          55.00       152.14
 1311.81        2952.75           2839          57.00       160.86
 1311.85        2953.00           2843          55.00       152.14
 1311.91        2953.25           2846          58.00       165.21
 1311.94        2953.50           2850          54.00       147.78
 1311.98        2953.75           2853          60.00       173.93
 1312.01        2954.00           2857          61.00       178.29
 1312.05        2954.25           2860          63.00       187.01
 1312.08        2954.50           2864          57.00       160.86
 1312.12        2954.75           2867          64.00       191.37
 1312.15        2955.00           2871          63.00       187.01
 1312.19        2955.25           2875          61.00       178.29
 1312.22        2955.50           2878          65.00       195.73
 1312.28        2955.75           2882          69.00       213.17
 1312.31        2956.00           2885          66.00       200.09
 1312.35        2956.25           2889          62.00       182.65
 1312.38        2956.50           2892          64.00       191.37
 1312.42        2956.75           2896          73.00       230.60
 1312.45        2957.00           2899          70.00       217.53
 1312.49        2957.25           2903          66.00       200.09
 1312.52        2957.50           2907          67.00       204.45
 1312.56        2957.75           2910          66.00       200.09
 1312.59        2958.00           2914          73.00       230.60
 1312.65        2958.25           2917          78.00       252.40
 1312.68        2958.50           2921          75.00       239.32
 1312.72        2958.75           2924          76.00       243.68
 1312.75        2959.00           2928          80.00       261.12
 1312.79        2959.25           2931          75.00       239.32
 1312.82        2959.50           2935          87.00       291.63
 1312.86        2959.75           2939          96.00       330.87
 1312.89        2960.00           2942          78.00       252.40
 1312.93        2960.25           2946         105.00       370.10
 1312.96        2960.50           2949         137.00       509.60
 1313.02        2960.75           2953          89.00       300.35
 1313.06        2961.00           2956          93.00       317.79
 1313.09        2961.25           2960         105.00       370.10
 1313.12        2961.50           2963          95.00       326.51
 1313.16        2961.75           2967         101.00       352.66
 1313.19        2962.00           2971         156.00       592.43
 1313.23        2962.25           2974         253.00      1015.30
 1313.26        2962.50           2978         496.00      2074.71
 1313.30        2962.75           2981         749.00      3177.82
 1313.34        2963.00           2985        1106.00      4734.55
 1313.39        2963.25           2988        1409.00      6055.96
 1313.42        2963.50           2992        1913.00      8254.25
 1313.46        2963.75           2996        2482.00     10736.52
 1313.50        2964.00           2999        2995.00     12974.91
 1313.53        2964.25           3003        3590.00     15571.60
 1313.57        2964.50           3006        4170.00     18103.34
 1313.60        2964.75           3010        4845.00     21050.41
 1313.64        2965.00           3013        5327.00     23155.26
 1313.68        2965.25           3017        5988.00     26042.37
 1313.74        2965.50           3020        6450.00     28060.69
 1313.77        2965.75           3024        6910.00     30070.59
 1313.81        2966.00           3028        7399.00     32207.55
 1313.84        2966.25           3031        7860.00     34222.49
 1313.88        2966.50           3035        8423.00     36683.70
 1313.91        2966.75           3038        8928.00     38891.76
 1313.95        2967.00           3042        9564.00     41673.16
 1313.98        2967.25           3045        9952.00     43370.30
 1314.02        2967.50           3049       10197.00     44442.07
 1314.06        2967.75           3053       10204.00     44472.68
 1314.11        2968.00           3056       10175.00     44345.82
 1314.15        2968.25           3060       10218.00     44533.93
 1314.18        2968.50           3063       10082.00     43938.98
 1314.22        2968.75           3067        9829.00     42832.26
 1314.25        2969.00           3070        9531.00     41528.83
 1314.29        2969.25           3074        9006.00     39232.85
 1314.32        2969.50           3078        8590.00     37413.85
 1314.36        2969.75           3081        8193.00     35678.17
 1314.39        2970.00           3085        7604.00     33103.53
 1314.43        2970.25           3088        7144.00     31093.14
 1314.48        2970.50           3092        6578.00     28619.93
 1314.52        2970.75           3095        6185.00     26902.96
 1314.55        2971.00           3099        5504.00     23928.30
 1314.59        2971.25           3103        4830.00     20984.92
 1314.63        2971.50           3106        4284.00     18601.02
 1314.66        2971.75           3110        3632.00     15754.91
 1314.70        2972.00           3113        3081.00     13350.20
 1314.73        2972.25           3117        2472.00     10692.89
 1314.77        2972.50           3120        2033.00      8777.71
 1314.80        2972.75           3124        1599.00      6884.63
 1314.86        2973.00           3128        1070.00      4577.56
 1314.89        2973.25           3131         613.00      2584.84
 1314.93        2973.50           3135         329.00      1346.63
 1314.96        2973.75           3138         262.00      1054.53
 1315.00        2974.00           3142         157.00       596.79
 1315.03        2974.25           3145         110.00       391.90
 1315.07        2974.50           3149         101.00       352.66
 1315.10        2974.75           3152          97.00       335.23
 1315.14        2975.00           3156          82.00       269.84
 1315.19        2975.25           3160         110.00       391.90
 1315.23        2975.50           3163          88.00       295.99
 1315.27        2975.75           3167          91.00       309.07
 1315.30        2976.00           3170          83.00       274.20
 1315.34        2976.25           3174          82.00       269.84
 1315.37        2976.50           3177          87.00       291.63
 1315.41        2976.75           3181          85.00       282.92
 1315.44        2977.00           3185          86.00       287.27
 1315.48        2977.25           3188          85.00       282.92
 1315.51        2977.50           3192          71.00       221.89
 1315.57        2977.75           3195          77.00       248.04
 1315.60        2978.00           3199          79.00       256.76
 1315.64        2978.25           3203          75.00       239.32
 1315.67        2978.50           3206          75.00       239.32
 1315.71        2978.75           3210          76.00       243.68
 1315.74        2979.00           3213          71.00       221.89
 1315.78        2979.25           3217          68.00       208.81
 1315.81        2979.50           3220          74.00       234.96
 1315.85        2979.75           3224          72.00       226.24
 1315.88        2980.00           3228          69.00       213.17
 1315.94        2980.25           3231          64.00       191.37
 1315.97        2980.50           3235          67.00       204.45
 1316.01        2980.75           3238          72.00       226.24
 1316.04        2981.00           3242          70.00       217.53
 1316.08        2981.25           3245          66.00       200.09
 1316.11        2981.50           3249          61.00       178.29
 1316.15        2981.75           3253          62.00       182.65
 1316.18        2982.00           3256          59.00       169.57
 1316.22        2982.25           3260          65.00       195.73
 1316.25        2982.50           3263          65.00       195.73
 1316.31        2982.75           3267          65.00       195.73
 1316.34        2983.00           3270          56.00       156.50
 1316.38        2983.25           3274          57.00       160.86
 1316.41        2983.50           3278          63.00       187.01
 1316.45        2983.75           3281          56.00       156.50
 1316.49        2984.00           3285          48.00       121.62
HS scan finished at 21:56:43
end
