************************************************************
  HS Scan of (1) Internal mercury lamp
************************************************************
Integration time is 0.2294 seconds per sample
dh030617Arenosillo 37.1 6.73 3.27pr1000
************************************************************
Dead Time -------------------------  4E-08 
Number of Cycles Used -------------  4 
Starting Wavelength (Angstroms) ---  2950 
Final Wavelength (Angstoms) -------  2984 
Wavelength Increment (Angstroms) --  .25 
Filter Wheel #1 Position ---------- (1) Ground quartz diffuser (ND=2.32)
Filter Wheel #2 Position ---------- (1) Neutral Density 0.494



************************************************************
HS scan start time = 02:24:59
Dark Count =  13.9 


Time (GMT)  Wavelength (Ang)  Step Number  Raw Counts  Counts/Second

  146.05        2950.00           2800          39.00       109.42
  146.33        2950.25           2803          44.00       131.21
  146.36        2950.50           2807          51.00       161.73
  146.40        2950.75           2811          46.00       139.93
  146.43        2951.00           2814          46.00       139.93
  146.47        2951.25           2818          43.00       126.85
  146.50        2951.50           2821          45.00       135.57
  146.54        2951.75           2825          48.00       148.65
  146.60        2952.00           2828          53.00       170.45
  146.64        2952.25           2832          54.00       174.81
  146.67        2952.50           2835          52.00       166.09
  146.71        2952.75           2839          50.00       157.37
  146.74        2953.00           2843          57.00       187.88
  146.78        2953.25           2846          48.00       148.65
  146.81        2953.50           2850          53.00       170.45
  146.87        2953.75           2853          54.00       174.81
  146.91        2954.00           2857          57.00       187.88
  146.94        2954.25           2860          53.00       170.45
  146.98        2954.50           2864          48.00       148.65
  147.01        2954.75           2867          60.00       200.96
  147.05        2955.00           2871          57.00       187.88
  147.08        2955.25           2875          55.00       179.16
  147.14        2955.50           2878          59.00       196.60
  147.18        2955.75           2882          66.00       227.12
  147.21        2956.00           2885          58.00       192.24
  147.25        2956.25           2889          57.00       187.88
  147.29        2956.50           2892          57.00       187.88
  147.32        2956.75           2896          59.00       196.60
  147.36        2957.00           2899          56.00       183.52
  147.42        2957.25           2903          61.00       205.32
  147.45        2957.50           2907          70.00       244.55
  147.49        2957.75           2910          68.00       235.83
  147.52        2958.00           2914          69.00       240.19
  147.56        2958.25           2917          63.00       214.04
  147.59        2958.50           2921          72.00       253.27
  147.63        2958.75           2924          74.00       261.99
  147.69        2959.00           2928          64.00       218.40
  147.72        2959.25           2931          67.00       231.48
  147.76        2959.50           2935          76.00       270.71
  147.79        2959.75           2939          83.00       301.22
  147.83        2960.00           2942          79.00       283.79
  147.86        2960.25           2946          78.00       279.43
  147.90        2960.50           2949          95.00       353.54
  147.96        2960.75           2953          88.00       323.02
  147.99        2961.00           2956          83.00       301.22
  148.03        2961.25           2960          98.00       366.61
  148.06        2961.50           2963          91.00       336.10
  148.10        2961.75           2967         103.00       388.41
  148.13        2962.00           2971         118.00       453.80
  148.17        2962.25           2974         109.00       414.57
  148.23        2962.50           2978         142.00       558.43
  148.27        2962.75           2981         224.00       915.90
  148.30        2963.00           2985         571.00      2428.74
  148.34        2963.25           2988         921.00      3954.85
  148.38        2963.50           2992        1658.00      7169.01
  148.41        2963.75           2996        2364.00     10248.75
  148.44        2964.00           2999        2807.00     12181.61
  148.50        2964.25           3003        3438.00     14935.25
  148.54        2964.50           3006        4013.00     17445.04
  148.58        2964.75           3010        4564.00     19850.54
  148.61        2965.00           3013        4941.00     21496.68
  148.65        2965.25           3017        5568.00     24234.91
  148.69        2965.50           3020        6099.00     26554.35
  148.72        2965.75           3024        6872.00     29931.63
  148.78        2966.00           3028        7332.00     31941.83
  148.81        2966.25           3031        7744.00     33742.55
  148.85        2966.50           3035        8285.00     36107.47
  148.88        2966.75           3038        8864.00     38639.01
  148.92        2967.00           3042        9444.00     41175.43
  148.95        2967.25           3045        9842.00     42916.24
  148.99        2967.50           3049        9941.00     43349.30
  149.05        2967.75           3053       10111.00     44092.96
  149.09        2968.00           3056       10134.00     44193.58
  149.12        2968.25           3060       10081.00     43961.72
  149.16        2968.50           3063       10153.00     44276.69
  149.19        2968.75           3067       10071.00     43917.98
  149.23        2969.00           3070        9908.00     43204.95
  149.26        2969.25           3074        9582.00     41779.00
  149.32        2969.50           3078        9101.00     39675.38
  149.36        2969.75           3081        8813.00     38416.01
  149.39        2970.00           3085        8337.00     36334.81
  149.43        2970.25           3088        7922.00     34520.61
  149.47        2970.50           3092        7250.00     31583.47
  149.50        2970.75           3095        6732.00     29319.90
  149.54        2971.00           3099        6180.00     26908.20
  149.60        2971.25           3103        5654.00     24610.53
  149.64        2971.50           3106        5262.00     22898.47
  149.67        2971.75           3110        4462.00     19405.21
  149.71        2972.00           3113        3974.00     17274.79
  149.74        2972.25           3117        3267.00     14188.96
  149.78        2972.50           3120        2645.00     11474.75
  149.81        2972.75           3124        2006.00      8686.98
  149.87        2973.00           3128        1404.00      6061.19
  149.90        2973.25           3131         996.00      4281.90
  149.94        2973.50           3135         566.00      2406.94
  149.97        2973.75           3138         358.00      1500.09
  150.01        2974.00           3142         208.00       846.15
  150.04        2974.25           3145         150.00       593.30
  150.08        2974.50           3149         156.00       619.46
  150.14        2974.75           3152         106.00       401.49
  150.18        2975.00           3156          99.00       370.97
  150.21        2975.25           3160          94.00       349.18
  150.25        2975.50           3163         106.00       401.49
  150.28        2975.75           3167          91.00       336.10
  150.32        2976.00           3170          81.00       292.51
  150.35        2976.25           3174         111.00       423.29
  150.41        2976.50           3177          93.00       344.82
  150.44        2976.75           3181          84.00       305.58
  150.48        2977.00           3185          79.00       283.79
  150.52        2977.25           3188          78.00       279.43
  150.55        2977.50           3192          78.00       279.43
  150.59        2977.75           3195          69.00       240.19
  150.62        2978.00           3199          75.00       266.35
  150.68        2978.25           3203          75.00       266.35
  150.72        2978.50           3206          56.00       183.52
  150.75        2978.75           3210          62.00       209.68
  150.79        2979.00           3213          67.00       231.48
  150.82        2979.25           3217          68.00       235.83
  150.86        2979.50           3220          64.00       218.40
  150.89        2979.75           3224          64.00       218.40
  150.95        2980.00           3228          69.00       240.19
  150.99        2980.25           3231          57.00       187.88
  151.02        2980.50           3235          64.00       218.40
  151.06        2980.75           3238          63.00       214.04
  151.09        2981.00           3242          64.00       218.40
  151.13        2981.25           3245          65.00       222.76
  151.16        2981.50           3249          59.00       196.60
  151.22        2981.75           3253          62.00       209.68
  151.26        2982.00           3256          57.00       187.88
  151.29        2982.25           3260          54.00       174.81
  151.33        2982.50           3263          53.00       170.45
  151.36        2982.75           3267          57.00       187.88
  151.40        2983.00           3270          58.00       192.24
  151.43        2983.25           3274          57.00       187.88
  151.49        2983.50           3278          61.00       205.32
  151.53        2983.75           3281          56.00       183.52
  151.56        2984.00           3285          53.00       170.45
HS scan finished at 02:31:48
end
************************************************************
  HS Scan of (1) Internal mercury lamp
************************************************************
Integration time is 0.2294 seconds per sample
dh030617Arenosillo 37.1 6.73 3.45pr1000
************************************************************
Dead Time -------------------------  4E-08 
Number of Cycles Used -------------  4 
Starting Wavelength (Angstroms) ---  2950 
Final Wavelength (Angstoms) -------  2984 
Wavelength Increment (Angstroms) --  .25 
Filter Wheel #1 Position ---------- (1) Ground quartz diffuser (ND=2.32)
Filter Wheel #2 Position ---------- (1) Neutral Density 0.494



************************************************************
HS scan start time = 20:40:14
Dark Count =  20.6 


Time (GMT)  Wavelength (Ang)  Step Number  Raw Counts  Counts/Second

 1241.31        2950.00           2800          51.00       132.52
 1241.56        2950.25           2803          53.00       141.24
 1241.59        2950.50           2807          55.00       149.96
 1241.63        2950.75           2811          61.00       176.11
 1241.68        2951.00           2814          52.00       136.88
 1241.71        2951.25           2818          64.00       189.19
 1241.75        2951.50           2821          59.00       167.39
 1241.78        2951.75           2825          65.00       193.55
 1241.82        2952.00           2828          61.00       176.11
 1241.85        2952.25           2832          58.00       163.04
 1241.89        2952.50           2835          58.00       163.04
 1241.92        2952.75           2839          53.00       141.24
 1241.96        2953.00           2843          59.00       167.39
 1241.99        2953.25           2846          59.00       167.39
 1242.05        2953.50           2850          65.00       193.55
 1242.09        2953.75           2853          62.00       180.47
 1242.12        2954.00           2857          56.00       154.32
 1242.16        2954.25           2860          67.00       202.27
 1242.19        2954.50           2864          69.00       210.99
 1242.23        2954.75           2867          68.00       206.63
 1242.26        2955.00           2871          64.00       189.19
 1242.30        2955.25           2875          68.00       206.63
 1242.33        2955.50           2878          75.00       237.14
 1242.37        2955.75           2882          62.00       180.47
 1242.42        2956.00           2885          74.00       232.78
 1242.46        2956.25           2889          69.00       210.99
 1242.49        2956.50           2892          73.00       228.42
 1242.53        2956.75           2896          73.00       228.42
 1242.56        2957.00           2899          76.00       241.50
 1242.60        2957.25           2903          68.00       206.63
 1242.63        2957.50           2907          77.00       245.86
 1242.67        2957.75           2910          75.00       237.14
 1242.71        2958.00           2914          83.00       272.02
 1242.74        2958.25           2917          83.00       272.02
 1242.78        2958.50           2921          77.00       245.86
 1242.83        2958.75           2924          86.00       285.09
 1242.87        2959.00           2928          88.00       293.81
 1242.90        2959.25           2931          87.00       289.45
 1242.94        2959.50           2935          88.00       293.81
 1242.97        2959.75           2939          91.00       306.89
 1243.01        2960.00           2942          90.00       302.53
 1243.05        2960.25           2946          92.00       311.25
 1243.08        2960.50           2949          91.00       306.89
 1243.12        2960.75           2953          93.00       315.61
 1243.15        2961.00           2956         106.00       372.28
 1243.20        2961.25           2960         112.00       398.44
 1243.24        2961.50           2963         108.00       381.00
 1243.27        2961.75           2967         135.00       498.70
 1243.31        2962.00           2971         293.00      1187.50
 1243.34        2962.25           2974         519.00      2172.81
 1243.38        2962.50           2978         940.00      4008.49
 1243.41        2962.75           2981        1336.00      5735.41
 1243.45        2963.00           2985        1884.00      8125.57
 1243.49        2963.25           2988        2314.00     10001.39
 1243.52        2963.50           2992        2918.00     12636.73
 1243.58        2963.75           2996        3500.00     15176.60
 1243.62        2964.00           2999        3939.00     17092.76
 1243.65        2964.25           3003        4541.00     19720.87
 1243.69        2964.50           3006        5001.00     21729.43
 1243.72        2964.75           3010        5513.00     23965.42
 1243.76        2965.00           3013        6024.00     26197.45
 1243.80        2965.25           3017        6738.00     29316.84
 1243.83        2965.50           3020        7140.00     31073.47
 1243.87        2965.75           3024        7598.00     33075.12
 1243.90        2966.00           3028        8141.00     35448.66
 1243.96        2966.25           3031        8581.00     37372.31
 1243.99        2966.50           3035        9046.00     39405.57
 1244.03        2966.75           3038        9535.00     41544.13
 1244.06        2967.00           3042        9973.00     43459.97
 1244.10        2967.25           3045       10411.00     45376.10
 1244.13        2967.50           3049       10653.00     46434.90
 1244.17        2967.75           3053       10667.00     46496.16
 1244.20        2968.00           3056       10790.00     47034.36
 1244.24        2968.25           3060       10599.00     46198.64
 1244.27        2968.50           3063       10589.00     46154.88
 1244.31        2968.75           3067       10261.00     44719.86
 1244.36        2969.00           3070        9907.00     43171.26
 1244.39        2969.25           3074        9435.00     41106.77
 1244.43        2969.50           3078        8871.00     38640.33
 1244.47        2969.75           3081        8373.00     36462.91
 1244.50        2970.00           3085        7851.00     34180.97
 1244.54        2970.25           3088        7512.00     32699.24
 1244.57        2970.50           3092        6853.00     29819.33
 1244.61        2970.75           3095        6493.00     28246.37
 1244.64        2971.00           3099        5902.00     25664.52
 1244.68        2971.25           3103        5458.00     23725.21
 1244.74        2971.50           3106        4957.00     21537.29
 1244.77        2971.75           3110        4468.00     19402.15
 1244.81        2972.00           3113        4019.00     17441.98
 1244.84        2972.25           3117        3400.00     14740.16
 1244.88        2972.50           3120        2951.00     12780.73
 1244.91        2972.75           3124        2320.00     10027.56
 1244.95        2973.00           3128        1733.00      7466.92
 1244.98        2973.25           3131        1332.00      5717.96
 1245.02        2973.50           3135         796.00      3380.58
 1245.05        2973.75           3138         458.00      1906.86
 1245.11        2974.00           3142         259.00      1039.28
 1245.14        2974.25           3145         177.00       681.80
 1245.18        2974.50           3149         165.00       629.48
 1245.21        2974.75           3152         160.00       607.69
 1245.25        2975.00           3156         104.00       363.56
 1245.28        2975.25           3160          97.00       333.05
 1245.32        2975.50           3163         107.00       376.64
 1245.35        2975.75           3167          97.00       333.05
 1245.39        2976.00           3170          93.00       315.61
 1245.42        2976.25           3174          92.00       311.25
 1245.48        2976.50           3177          85.00       280.74
 1245.52        2976.75           3181          82.00       267.66
 1245.55        2977.00           3185          86.00       285.09
 1245.59        2977.25           3188          86.00       285.09
 1245.62        2977.50           3192          93.00       315.61
 1245.66        2977.75           3195          84.00       276.38
 1245.69        2978.00           3199          77.00       245.86
 1245.73        2978.25           3203          77.00       245.86
 1245.76        2978.50           3206          79.00       254.58
 1245.80        2978.75           3210          75.00       237.14
 1245.83        2979.00           3213          84.00       276.38
 1245.89        2979.25           3217          78.00       250.22
 1245.92        2979.50           3220          75.00       237.14
 1245.95        2979.75           3224          72.00       224.06
 1245.99        2980.00           3228          71.00       219.71
 1246.02        2980.25           3231          75.00       237.14
 1246.06        2980.50           3235          72.00       224.06
 1246.10        2980.75           3238          68.00       206.63
 1246.13        2981.00           3242          72.00       224.06
 1246.17        2981.25           3245          65.00       193.55
 1246.20        2981.50           3249          66.00       197.91
 1246.26        2981.75           3253          68.00       206.63
 1246.29        2982.00           3256          66.00       197.91
 1246.33        2982.25           3260          88.00       293.81
 1246.36        2982.50           3263          57.00       158.68
 1246.40        2982.75           3267          67.00       202.27
 1246.43        2983.00           3270          58.00       163.04
 1246.47        2983.25           3274          64.00       189.19
 1246.50        2983.50           3278          62.00       180.47
 1246.54        2983.75           3281          67.00       202.27
 1246.57        2984.00           3285          57.00       158.68
HS scan finished at 20:46:49
end
