************************************************************
  HS Scan of (1) Internal mercury lamp
************************************************************
Integration time is 0.2294 seconds per sample
dh020617Arenosillo 37.1 6.73 3.43pr1000
************************************************************
Dead Time -------------------------  4E-08 
Number of Cycles Used -------------  4 
Starting Wavelength (Angstroms) ---  2950 
Final Wavelength (Angstoms) -------  2984 
Wavelength Increment (Angstroms) --  .25 
Filter Wheel #1 Position ---------- (1) Ground quartz diffuser (ND=2.32)
Filter Wheel #2 Position ---------- (1) Neutral Density 0.494



************************************************************
HS scan start time = 02:12:14
Dark Count =  17.5 


Time (GMT)  Wavelength (Ang)  Step Number  Raw Counts  Counts/Second

  133.31        2950.00           2800          45.00       119.88
  133.58        2950.25           2803          48.00       132.96
  133.62        2950.50           2807          48.00       132.96
  133.65        2950.75           2811          47.00       128.60
  133.69        2951.00           2814          50.00       141.67
  133.72        2951.25           2818          54.00       159.11
  133.76        2951.50           2821          59.00       180.91
  133.79        2951.75           2825          50.00       141.67
  133.83        2952.00           2828          59.00       180.91
  133.89        2952.25           2832          55.00       163.47
  133.92        2952.50           2835          58.00       176.55
  133.96        2952.75           2839          56.00       167.83
  133.99        2953.00           2843          53.00       154.75
  134.03        2953.25           2846          57.00       172.19
  134.06        2953.50           2850          57.00       172.19
  134.10        2953.75           2853          56.00       167.83
  134.15        2954.00           2857          61.00       189.63
  134.19        2954.25           2860          65.00       207.06
  134.23        2954.50           2864          61.00       189.63
  134.26        2954.75           2867          64.00       202.70
  134.30        2955.00           2871          57.00       172.19
  134.33        2955.25           2875          59.00       180.91
  134.37        2955.50           2878          62.00       193.99
  134.40        2955.75           2882          63.00       198.35
  134.46        2956.00           2885          65.00       207.06
  134.50        2956.25           2889          69.00       224.50
  134.53        2956.50           2892          74.00       246.30
  134.57        2956.75           2896          69.00       224.50
  134.60        2957.00           2899          68.00       220.14
  134.64        2957.25           2903          72.00       237.58
  134.67        2957.50           2907          68.00       220.14
  134.71        2957.75           2910          68.00       220.14
  134.77        2958.00           2914          76.00       255.02
  134.80        2958.25           2917          78.00       263.73
  134.84        2958.50           2921          73.00       241.94
  134.87        2958.75           2924          74.00       246.30
  134.91        2959.00           2928          80.00       272.45
  134.94        2959.25           2931          78.00       263.73
  134.98        2959.50           2935          81.00       276.81
  135.04        2959.75           2939          76.00       255.02
  135.07        2960.00           2942          86.00       298.61
  135.11        2960.25           2946          91.00       320.41
  135.14        2960.50           2949          89.00       311.69
  135.18        2960.75           2953          94.00       333.48
  135.21        2961.00           2956          86.00       298.61
  135.25        2961.25           2960         108.00       394.51
  135.28        2961.50           2963          97.00       346.56
  135.34        2961.75           2967         104.00       377.08
  135.38        2962.00           2971         129.00       486.06
  135.41        2962.25           2974         202.00       804.30
  135.45        2962.50           2978         461.00      1933.45
  135.48        2962.75           2981         721.00      3067.07
  135.52        2963.00           2985        1293.00      5561.39
  135.55        2963.25           2988        1817.00      7846.84
  135.59        2963.50           2992        2167.00      9373.61
  135.64        2963.75           2996        2681.00     11616.12
  135.68        2964.00           2999        3133.00     13588.47
  135.72        2964.25           3003        3941.00     17115.03
  135.75        2964.50           3006        4301.00     18686.59
  135.79        2964.75           3010        5024.00     21843.40
  135.82        2965.00           3013        5484.00     23852.30
  135.86        2965.25           3017        6242.00     27163.33
  135.92        2965.50           3020        6769.00     29465.84
  135.95        2965.75           3024        7410.00     32266.99
  135.99        2966.00           3028        7969.00     34710.33
  136.03        2966.25           3031        8654.00     37705.04
  136.06        2966.50           3035        9143.00     39843.31
  136.10        2966.75           3038        9625.00     41951.33
  136.13        2967.00           3042       10022.00     43687.88
  136.16        2967.25           3045       10259.00     44724.67
  136.22        2967.50           3049       10464.00     45621.54
  136.26        2967.75           3053       10375.00     45232.16
  136.30        2968.00           3056       10273.00     44785.92
  136.33        2968.25           3060       10035.00     43744.74
  136.37        2968.50           3063        9937.00     43316.05
  136.40        2968.75           3067        9697.00     42266.25
  136.44        2969.00           3070        9265.00     40376.84
  136.47        2969.25           3074        9015.00     39283.56
  136.53        2969.50           3078        8484.00     36961.76
  136.57        2969.75           3081        8040.00     35020.69
  136.60        2970.00           3085        7514.00     32721.53
  136.64        2970.25           3088        7178.00     31253.08
  136.68        2970.50           3092        6617.00     28801.69
  136.71        2970.75           3095        6056.00     26350.78
  136.75        2971.00           3099        5241.00     22791.04
  136.81        2971.25           3103        4410.00     19162.46
  136.84        2971.50           3106        3924.00     17040.82
  136.88        2971.75           3110        3387.00     14696.96
  136.91        2972.00           3113        2939.00     12741.89
  136.95        2972.25           3117        2258.00      9770.60
  136.98        2972.50           3120        1838.00      7938.44
  137.02        2972.75           3124        1360.00      5853.59
  137.05        2973.00           3128         861.00      3677.52
  137.11        2973.25           3131         680.00      2888.30
  137.15        2973.50           3135         441.00      1846.26
  137.18        2973.75           3138         297.00      1218.46
  137.22        2974.00           3142         180.00       708.39
  137.25        2974.25           3145         130.00       490.42
  137.29        2974.50           3149         132.00       499.14
  137.32        2974.75           3152          98.00       350.92
  137.36        2975.00           3156         106.00       385.79
  137.42        2975.25           3160          89.00       311.69
  137.45        2975.50           3163          97.00       346.56
  137.49        2975.75           3167          91.00       320.41
  137.52        2976.00           3170         100.00       359.64
  137.56        2976.25           3174         121.00       451.19
  137.59        2976.50           3177          91.00       320.41
  137.63        2976.75           3181          85.00       294.25
  137.69        2977.00           3185         104.00       377.08
  137.72        2977.25           3188          83.00       285.53
  137.76        2977.50           3192          74.00       246.30
  137.79        2977.75           3195          77.00       259.37
  137.83        2978.00           3199          76.00       255.02
  137.87        2978.25           3203          76.00       255.02
  137.90        2978.50           3206          79.00       268.09
  137.94        2978.75           3210          66.00       211.42
  137.99        2979.00           3213          74.00       246.30
  138.03        2979.25           3217          73.00       241.94
  138.07        2979.50           3220          69.00       224.50
  138.10        2979.75           3224          75.00       250.66
  138.14        2980.00           3228          57.00       172.19
  138.17        2980.25           3231          57.00       172.19
  138.21        2980.50           3235          68.00       220.14
  138.24        2980.75           3238          67.00       215.78
  138.30        2981.00           3242          69.00       224.50
  138.33        2981.25           3245          64.00       202.70
  138.37        2981.50           3249          59.00       180.91
  138.40        2981.75           3253          59.00       180.91
  138.44        2982.00           3256          64.00       202.70
  138.47        2982.25           3260          66.00       211.42
  138.51        2982.50           3263          55.00       163.47
  138.57        2982.75           3267          66.00       211.42
  138.60        2983.00           3270          56.00       167.83
  138.64        2983.25           3274          62.00       193.99
  138.67        2983.50           3278          63.00       198.35
  138.71        2983.75           3281          57.00       172.19
  138.74        2984.00           3285          52.00       150.39
HS scan finished at 02:18:58
end
************************************************************
  HS Scan of (1) Internal mercury lamp
************************************************************
Integration time is 0.2294 seconds per sample
dh030617Arenosillo 37.1 6.73 3.41pr1000
************************************************************
Dead Time -------------------------  4E-08 
Number of Cycles Used -------------  4 
Starting Wavelength (Angstroms) ---  2950 
Final Wavelength (Angstoms) -------  2984 
Wavelength Increment (Angstroms) --  .25 
Filter Wheel #1 Position ---------- (1) Ground quartz diffuser (ND=2.32)
Filter Wheel #2 Position ---------- (1) Neutral Density 0.494



************************************************************
HS scan start time = 00:20:19
Dark Count =  20.7 


Time (GMT)  Wavelength (Ang)  Step Number  Raw Counts  Counts/Second

   21.40        2950.00           2800          54.00       145.16
   21.64        2950.25           2803          50.00       127.73
   21.68        2950.50           2807          59.00       166.96
   21.74        2950.75           2811          54.00       145.16
   21.77        2951.00           2814          55.00       149.52
   21.81        2951.25           2818          55.00       149.52
   21.84        2951.50           2821          59.00       166.96
   21.88        2951.75           2825          52.00       136.44
   21.91        2952.00           2828          56.00       153.88
   21.95        2952.25           2832          54.00       145.16
   21.98        2952.50           2835          55.00       149.52
   22.02        2952.75           2839          55.00       149.52
   22.05        2953.00           2843          62.00       180.04
   22.11        2953.25           2846          57.00       158.24
   22.14        2953.50           2850          60.00       171.32
   22.18        2953.75           2853          55.00       149.52
   22.21        2954.00           2857          58.00       162.60
   22.25        2954.25           2860          58.00       162.60
   22.28        2954.50           2864          57.00       158.24
   22.32        2954.75           2867          64.00       188.75
   22.35        2955.00           2871          67.00       201.83
   22.39        2955.25           2875          65.00       193.11
   22.43        2955.50           2878          72.00       223.63
   22.48        2955.75           2882          66.00       197.47
   22.51        2956.00           2885          69.00       210.55
   22.55        2956.25           2889          70.00       214.91
   22.58        2956.50           2892          69.00       210.55
   22.62        2956.75           2896          66.00       197.47
   22.65        2957.00           2899          68.00       206.19
   22.69        2957.25           2903          64.00       188.75
   22.72        2957.50           2907          69.00       210.55
   22.76        2957.75           2910          71.00       219.27
   22.81        2958.00           2914          78.00       249.78
   22.85        2958.25           2917          80.00       258.50
   22.88        2958.50           2921          75.00       236.71
   22.92        2958.75           2924          69.00       210.55
   22.95        2959.00           2928          81.00       262.86
   22.99        2959.25           2931          78.00       249.78
   23.02        2959.50           2935          90.00       302.10
   23.06        2959.75           2939          89.00       297.74
   23.09        2960.00           2942          85.00       280.30
   23.13        2960.25           2946          86.00       284.66
   23.19        2960.50           2949          94.00       319.53
   23.22        2960.75           2953          90.00       302.10
   23.26        2961.00           2956          98.00       336.97
   23.29        2961.25           2960          93.00       315.17
   23.33        2961.50           2963         116.00       415.44
   23.36        2961.75           2967         103.00       358.77
   23.40        2962.00           2971         119.00       428.52
   23.43        2962.25           2974         150.00       563.66
   23.47        2962.50           2978         317.00      1291.70
   23.51        2962.75           2981         446.00      1854.10
   23.56        2963.00           2985         746.00      3162.13
   23.59        2963.25           2988         990.00      4226.09
   23.63        2963.50           2992        1419.00      6096.95
   23.66        2963.75           2996        1917.00      8269.08
   23.70        2964.00           2999        2397.00     10363.06
   23.74        2964.25           3003        2952.00     12784.65
   23.77        2964.50           3006        3332.00     14442.95
   23.81        2964.75           3010        4015.00     17424.09
   23.85        2965.00           3013        4368.00     18965.12
   23.90        2965.25           3017        4942.00     21471.35
   23.94        2965.50           3020        5561.00     24174.63
   23.97        2965.75           3024        6143.00     26716.85
   24.01        2966.00           3028        6960.00     30286.45
   24.04        2966.25           3031        7396.00     32191.82
   24.08        2966.50           3035        7904.00     34412.20
   24.11        2966.75           3038        8320.00     36230.76
   24.15        2967.00           3042        8812.00     38381.90
   24.18        2967.25           3045        9317.00     40590.26
   24.22        2967.50           3049        9673.00     42147.28
   24.27        2967.75           3053       10041.00     43756.99
   24.31        2968.00           3056       10081.00     43931.98
   24.35        2968.25           3060       10284.00     44820.04
   24.38        2968.50           3063       10128.00     44137.58
   24.42        2968.75           3067       10043.00     43765.74
   24.45        2969.00           3070        9870.00     43008.98
   24.49        2969.25           3074        9447.00     41158.82
   24.52        2969.50           3078        9084.00     39571.30
   24.56        2969.75           3081        8728.00     38014.60
   24.60        2970.00           3085        8285.00     36077.74
   24.65        2970.25           3088        7748.00     33730.31
   24.68        2970.50           3092        7172.00     31212.88
   24.72        2970.75           3095        6665.00     28997.43
   24.75        2971.00           3099        5994.00     26065.96
   24.79        2971.25           3103        5361.00     23301.13
   24.82        2971.50           3106        4756.00     20659.17
   24.86        2971.75           3110        4127.00     17913.00
   24.89        2972.00           3113        3791.00     16446.30
   24.93        2972.25           3117        3009.00     13033.38
   24.99        2972.50           3120        2542.00     10995.68
   25.02        2972.75           3124        1861.00      8024.81
   25.06        2973.00           3128        1229.00      5268.33
   25.09        2973.25           3131         845.00      3593.80
   25.13        2973.50           3135         485.00      2024.14
   25.16        2973.75           3138         323.00      1317.86
   25.20        2974.00           3142         206.00       807.79
   25.23        2974.25           3145         164.00       624.69
   25.27        2974.50           3149         143.00       533.14
   25.30        2974.75           3152         144.00       537.50
   25.36        2975.00           3156         104.00       363.13
   25.39        2975.25           3160         106.00       371.85
   25.43        2975.50           3163         103.00       358.77
   25.46        2975.75           3167          99.00       341.33
   25.50        2976.00           3170          99.00       341.33
   25.53        2976.25           3174          85.00       280.30
   25.57        2976.50           3177          86.00       284.66
   25.60        2976.75           3181          86.00       284.66
   25.64        2977.00           3185          82.00       267.22
   25.68        2977.25           3188          85.00       280.30
   25.73        2977.50           3192          81.00       262.86
   25.76        2977.75           3195          74.00       232.35
   25.80        2978.00           3199          82.00       267.22
   25.83        2978.25           3203          77.00       245.43
   25.87        2978.50           3206          80.00       258.50
   25.90        2978.75           3210          81.00       262.86
   25.94        2979.00           3213          76.00       241.07
   25.97        2979.25           3217          77.00       245.43
   26.01        2979.50           3220          70.00       214.91
   26.07        2979.75           3224          66.00       197.47
   26.10        2980.00           3228          76.00       241.07
   26.14        2980.25           3231          68.00       206.19
   26.17        2980.50           3235          72.00       223.63
   26.20        2980.75           3238          73.00       227.99
   26.24        2981.00           3242          69.00       210.55
   26.27        2981.25           3245          71.00       219.27
   26.31        2981.50           3249          63.00       184.40
   26.35        2981.75           3253          61.00       175.68
   26.38        2982.00           3256          69.00       210.55
   26.44        2982.25           3260          60.00       171.32
   26.47        2982.50           3263          64.00       188.75
   26.51        2982.75           3267          62.00       180.04
   26.54        2983.00           3270          62.00       180.04
   26.58        2983.25           3274          60.00       171.32
   26.61        2983.50           3278          62.00       180.04
   26.65        2983.75           3281          61.00       175.68
   26.68        2984.00           3285          53.00       140.80
HS scan finished at 00:26:55
end
