************************************************************
  HS Scan of (1) Internal mercury lamp
************************************************************
Integration time is 0.2294 seconds per sample
dh180619Arenosillo 37.1 6.73 3.09pr1000
************************************************************
Dead Time -------------------------  3.8E-08 
Number of Cycles Used -------------  4 
Starting Wavelength (Angstroms) ---  2950 
Final Wavelength (Angstoms) -------  2984 
Wavelength Increment (Angstroms) --  .25 
Filter Wheel #1 Position ---------- (1) Ground quartz diffuser (ND=2.32)
Filter Wheel #2 Position ---------- (1) Neutral Density 0.494



************************************************************
HS scan start time = 01:52:26
Dark Count =  4.6 


Time (GMT)  Wavelength (Ang)  Step Number  Raw Counts  Counts/Second

  113.50        2950.00           2813         170.00       721.03
  113.74        2950.25           2816         176.00       747.19
  113.77        2950.50           2820         153.00       646.92
  113.80        2950.75           2823         163.00       690.52
  113.83        2951.00           2827         157.00       664.36
  113.86        2951.25           2830         161.00       681.80
  113.88        2951.50           2834         167.00       707.95
  113.91        2951.75           2837         173.00       734.11
  113.94        2952.00           2841         175.00       742.83
  113.97        2952.25           2845         173.00       734.11
  114.00        2952.50           2848         171.00       725.39
  114.03        2952.75           2852         178.00       755.91
  114.05        2953.00           2855         175.00       742.83
  114.08        2953.25           2859         185.00       786.42
  114.11        2953.50           2862         183.00       777.70
  114.14        2953.75           2866         181.00       768.99
  114.17        2954.00           2869         189.00       803.86
  114.20        2954.25           2873         226.00       965.16
  114.22        2954.50           2876         197.00       838.74
  114.25        2954.75           2880         193.00       821.30
  114.28        2955.00           2883         204.00       869.25
  114.31        2955.25           2887         204.00       869.25
  114.34        2955.50           2891         205.00       873.61
  114.36        2955.75           2894         206.00       877.97
  114.39        2956.00           2898         209.00       891.05
  114.42        2956.25           2901         224.00       956.44
  114.45        2956.50           2905         228.00       973.88
  114.48        2956.75           2908         224.00       956.44
  114.51        2957.00           2912         260.00      1113.39
  114.54        2957.25           2915         225.00       960.80
  114.56        2957.50           2919         255.00      1091.59
  114.59        2957.75           2922         261.00      1117.75
  114.62        2958.00           2926         267.00      1143.90
  114.65        2958.25           2930         245.00      1047.99
  114.68        2958.50           2933         269.00      1152.62
  114.71        2958.75           2937         270.00      1156.98
  114.73        2959.00           2940         284.00      1218.02
  114.76        2959.25           2944         295.00      1265.97
  114.79        2959.50           2947         288.00      1235.45
  114.82        2959.75           2951         298.00      1279.05
  114.85        2960.00           2954         302.00      1296.49
  114.87        2960.25           2958         305.00      1309.57
  114.90        2960.50           2961         331.00      1422.92
  114.93        2960.75           2965         361.00      1553.71
  114.96        2961.00           2968         461.00      1989.69
  114.99        2961.25           2972         874.00      3790.43
  115.02        2961.50           2976        1639.00      7126.60
  115.04        2961.75           2979        2526.00     10995.88
  115.07        2962.00           2983        4106.00     17890.97
  115.10        2962.25           2986        5642.00     24597.53
  115.13        2962.50           2990        7781.00     33942.62
  115.16        2962.75           2993        9619.00     41977.99
  115.19        2963.00           2997       12104.00     52849.72
  115.21        2963.25           3000       13921.00     60804.68
  115.24        2963.50           3004       16249.00     71003.88
  115.27        2963.75           3007       17920.00     78329.59
  115.30        2964.00           3011       20698.00     90517.46
  115.33        2964.25           3015       23254.00    101741.30
  115.36        2964.50           3018       25036.00    109572.10
  115.38        2964.75           3022       27690.00    121243.50
  115.41        2965.00           3025       29266.00    128179.10
  115.44        2965.25           3029       31672.00    138774.40
  115.47        2965.50           3032       33478.00    146733.10
  115.50        2965.75           3036       35485.00    155583.20
  115.52        2966.00           3039       37091.00    162669.40
  115.55        2966.25           3043       38299.00    168002.00
  115.58        2966.50           3046       38928.00    170779.50
  115.61        2966.75           3050       39445.00    173062.90
  115.64        2967.00           3054       39543.00    173495.80
  115.67        2967.25           3057       39505.00    173327.90
  115.70        2967.50           3061       38610.00    169375.20
  115.72        2967.75           3064       37965.00    166527.40
  115.75        2968.00           3068       36301.00    159183.20
  115.78        2968.25           3071       34986.00    153382.20
  115.81        2968.50           3075       33071.00    144939.10
  115.84        2968.75           3078       31556.00    138263.30
  115.87        2969.00           3082       28994.00    126981.80
  115.89        2969.25           3086       26573.00    116330.00
  115.92        2969.50           3089       24750.00    108315.00
  115.95        2969.75           3093       22161.00     96940.58
  115.98        2970.00           3096       20087.00     87835.84
  116.01        2970.25           3100       17663.00     77202.62
  116.04        2970.50           3103       15748.00     68808.28
  116.06        2970.75           3107       13427.00     58641.44
  116.09        2971.00           3110       11592.00     50609.01
  116.12        2971.25           3114        9335.00     40736.07
  116.15        2971.50           3117        7636.00     33308.92
  116.18        2971.75           3121        5455.00     23780.85
  116.21        2972.00           3125        3477.00     15145.59
  116.24        2972.25           3128        2304.00     10027.36
  116.26        2972.50           3132        1370.00      5953.40
  116.29        2972.75           3135         883.00      3829.68
  116.32        2973.00           3139         567.00      2451.84
  116.35        2973.25           3142         442.00      1906.85
  116.38        2973.50           3146         361.00      1553.71
  116.41        2973.75           3149         331.00      1422.92
  116.43        2974.00           3153         321.00      1379.32
  116.46        2974.25           3157         323.00      1388.04
  116.49        2974.50           3160         324.00      1392.40
  116.52        2974.75           3164         291.00      1248.53
  116.55        2975.00           3167         296.00      1270.33
  116.58        2975.25           3171         280.00      1200.58
  116.60        2975.50           3174         284.00      1218.02
  116.63        2975.75           3178         300.00      1287.77
  116.66        2976.00           3181         269.00      1152.62
  116.69        2976.25           3185         249.00      1065.43
  116.72        2976.50           3189         243.00      1039.27
  116.75        2976.75           3192         286.00      1226.74
  116.77        2977.00           3196         247.00      1056.71
  116.80        2977.25           3199         250.00      1069.79
  116.83        2977.50           3203         232.00       991.32
  116.86        2977.75           3206         216.00       921.57
  116.89        2978.00           3210         213.00       908.49
  116.92        2978.25           3213         219.00       934.65
  116.94        2978.50           3217         217.00       925.93
  116.97        2978.75           3221         217.00       925.93
  117.00        2979.00           3224         206.00       877.97
  117.03        2979.25           3228         207.00       882.33
  117.06        2979.50           3231         200.00       851.81
  117.09        2979.75           3235         201.00       856.17
  117.11        2980.00           3238         198.00       843.10
  117.14        2980.25           3242         188.00       799.50
  117.17        2980.50           3245         191.00       812.58
  117.20        2980.75           3249         193.00       821.30
  117.23        2981.00           3253         174.00       738.47
  117.26        2981.25           3256         182.00       773.34
  117.29        2981.50           3260         194.00       825.66
  117.31        2981.75           3263         175.00       742.83
  117.34        2982.00           3267         171.00       725.39
  117.37        2982.25           3270         184.00       782.06
  117.40        2982.50           3274         182.00       773.34
  117.43        2982.75           3277         162.00       686.16
  117.45        2983.00           3281         173.00       734.11
  117.48        2983.25           3285         161.00       681.80
  117.51        2983.50           3288         155.00       655.64
  117.54        2983.75           3292         162.00       686.16
  117.57        2984.00           3295         153.00       646.92
HS scan finished at 01:57:47
end
