************************************************************
  HS Scan of (1) Internal mercury lamp
************************************************************
Integration time is 0.2294 seconds per sample
dh170619Arenosillo 37.1 6.73 3.07pr1000
************************************************************
Dead Time -------------------------  3.8E-08 
Number of Cycles Used -------------  4 
Starting Wavelength (Angstroms) ---  2950 
Final Wavelength (Angstoms) -------  2984 
Wavelength Increment (Angstroms) --  .25 
Filter Wheel #1 Position ---------- (1) Ground quartz diffuser (ND=2.32)
Filter Wheel #2 Position ---------- (1) Neutral Density 0.494



************************************************************
HS scan start time = 21:47:37
Dark Count =  6.8 


Time (GMT)  Wavelength (Ang)  Step Number  Raw Counts  Counts/Second

 1308.67        2950.00           2813         159.00       663.49
 1308.91        2950.25           2816         171.00       715.80
 1308.94        2950.50           2820         162.00       676.56
 1308.97        2950.75           2823         171.00       715.80
 1309.00        2951.00           2827         156.00       650.41
 1309.03        2951.25           2830         170.00       711.44
 1309.06        2951.50           2834         171.00       715.80
 1309.08        2951.75           2837         172.00       720.16
 1309.11        2952.00           2841         177.00       741.96
 1309.14        2952.25           2845         173.00       724.52
 1309.17        2952.50           2848         177.00       741.96
 1309.20        2952.75           2852         179.00       750.68
 1309.23        2953.00           2855         179.00       750.68
 1309.25        2953.25           2859         185.00       776.83
 1309.28        2953.50           2862         188.00       789.91
 1309.31        2953.75           2866         202.00       850.94
 1309.34        2954.00           2869         202.00       850.94
 1309.37        2954.25           2873         204.00       859.66
 1309.40        2954.50           2876         204.00       859.66
 1309.42        2954.75           2880         213.00       898.90
 1309.45        2955.00           2883         201.00       846.58
 1309.48        2955.25           2887         226.00       955.57
 1309.51        2955.50           2891         219.00       925.05
 1309.54        2955.75           2894         227.00       959.93
 1309.56        2956.00           2898         227.00       959.93
 1309.59        2956.25           2901         213.00       898.90
 1309.62        2956.50           2905         219.00       925.05
 1309.65        2956.75           2908         251.00      1064.56
 1309.68        2957.00           2912         246.00      1042.76
 1309.71        2957.25           2915         257.00      1090.72
 1309.74        2957.50           2919         259.00      1099.44
 1309.76        2957.75           2922         257.00      1090.72
 1309.79        2958.00           2926         282.00      1199.71
 1309.82        2958.25           2930         267.00      1134.31
 1309.85        2958.50           2933         284.00      1208.43
 1309.88        2958.75           2937         290.00      1234.58
 1309.91        2959.00           2940         306.00      1304.34
 1309.93        2959.25           2944         307.00      1308.70
 1309.96        2959.50           2947         295.00      1256.38
 1309.99        2959.75           2951         309.00      1317.42
 1310.02        2960.00           2954         308.00      1313.06
 1310.05        2960.25           2958         331.00      1413.33
 1310.07        2960.50           2961         336.00      1435.13
 1310.10        2960.75           2965         376.00      1609.51
 1310.13        2961.00           2968         442.00      1897.26
 1310.16        2961.25           2972         845.00      3654.39
 1310.19        2961.50           2976        1616.00      7016.69
 1310.22        2961.75           2979        2517.00     10947.01
 1310.24        2962.00           2983        4036.00     17575.82
 1310.27        2962.25           2986        5456.00     23775.61
 1310.30        2962.50           2990        7549.00     32919.10
 1310.33        2962.75           2993        9385.00     40945.09
 1310.36        2963.00           2997       11907.00     51977.89
 1310.39        2963.25           3000       13962.00     60974.60
 1310.41        2963.50           3004       16530.00     72225.86
 1310.44        2963.75           3007       18354.00     80223.27
 1310.47        2964.00           3011       20825.00     91065.24
 1310.50        2964.25           3015       23364.00    102214.90
 1310.53        2964.50           3018       24975.00    109294.30
 1310.55        2964.75           3022       27433.00    120103.10
 1310.58        2965.00           3025       29138.00    127605.90
 1310.61        2965.25           3029       31534.00    138156.70
 1310.64        2965.50           3032       33050.00    144836.80
 1310.67        2965.75           3036       35472.00    155516.20
 1310.70        2966.00           3039       37150.00    162920.10
 1310.72        2966.25           3043       38602.00    169330.20
 1310.75        2966.50           3046       39512.00    173349.10
 1310.78        2966.75           3050       39916.00    175133.80
 1310.81        2967.00           3054       39746.00    174382.80
 1310.84        2967.25           3057       39804.00    174639.00
 1310.87        2967.50           3061       39125.00    171639.80
 1310.89        2967.75           3064       38350.00    168217.50
 1310.92        2968.00           3068       36896.00    161799.10
 1310.95        2968.25           3071       35509.00    155679.40
 1310.98        2968.50           3075       33594.00    147234.70
 1311.01        2968.75           3078       31892.00    139733.90
 1311.04        2969.00           3082       29595.00    129617.70
 1311.07        2969.25           3086       27118.00    118717.50
 1311.09        2969.50           3089       25176.00    110177.90
 1311.12        2969.75           3093       22607.00     98889.65
 1311.15        2970.00           3096       20666.00     90367.33
 1311.18        2970.25           3100       18105.00     79131.22
 1311.21        2970.50           3103       16225.00     70889.05
 1311.23        2970.75           3107       13814.00     60326.46
 1311.26        2971.00           3110       12014.00     52446.18
 1311.29        2971.25           3114        9640.00     42060.20
 1311.32        2971.50           3117        7861.00     34282.65
 1311.35        2971.75           3121        5553.00     24199.23
 1311.38        2972.00           3125        3466.00     15087.99
 1311.40        2972.25           3128        2326.00     10113.74
 1311.43        2972.50           3132        1360.00      5900.19
 1311.46        2972.75           3135         914.00      3955.26
 1311.49        2973.00           3139         552.00      2376.85
 1311.52        2973.25           3142         437.00      1875.46
 1311.55        2973.50           3146         358.00      1531.04
 1311.57        2973.75           3149         349.00      1491.80
 1311.60        2974.00           3153         324.00      1382.81
 1311.63        2974.25           3157         314.00      1339.21
 1311.66        2974.50           3160         311.00      1326.14
 1311.69        2974.75           3164         305.00      1299.98
 1311.71        2975.00           3167         291.00      1238.94
 1311.74        2975.25           3171         300.00      1278.18
 1311.77        2975.50           3174         285.00      1212.78
 1311.80        2975.75           3178         278.00      1182.27
 1311.83        2976.00           3181         282.00      1199.71
 1311.86        2976.25           3185         289.00      1230.22
 1311.88        2976.50           3189         257.00      1090.72
 1311.91        2976.75           3192         263.00      1116.87
 1311.94        2977.00           3196         245.00      1038.40
 1311.97        2977.25           3199         253.00      1073.28
 1312.00        2977.50           3203         256.00      1086.36
 1312.03        2977.75           3206         275.00      1169.19
 1312.05        2978.00           3210         254.00      1077.64
 1312.08        2978.25           3213         255.00      1082.00
 1312.11        2978.50           3217         222.00       938.13
 1312.14        2978.75           3221         214.00       903.26
 1312.17        2979.00           3224         225.00       951.21
 1312.20        2979.25           3228         221.00       933.77
 1312.23        2979.50           3231         214.00       903.26
 1312.25        2979.75           3235         218.00       920.69
 1312.28        2980.00           3238         189.00       794.27
 1312.31        2980.25           3242         195.00       820.43
 1312.34        2980.50           3245         213.00       898.90
 1312.37        2980.75           3249         185.00       776.83
 1312.39        2981.00           3253         194.00       816.07
 1312.42        2981.25           3256         191.00       802.99
 1312.45        2981.50           3260         182.00       763.75
 1312.48        2981.75           3263         190.00       798.63
 1312.51        2982.00           3267         184.00       772.47
 1312.54        2982.25           3270         193.00       811.71
 1312.56        2982.50           3274         170.00       711.44
 1312.59        2982.75           3277         185.00       776.83
 1312.62        2983.00           3281         171.00       715.80
 1312.65        2983.25           3285         174.00       728.88
 1312.68        2983.50           3288         176.00       737.60
 1312.71        2983.75           3292         165.00       689.64
 1312.73        2984.00           3295         163.00       680.92
HS scan finished at 21:52:57
end
