************************************************************
  HS Scan of (1) Internal mercury lamp
************************************************************
Integration time is 0.2294 seconds per sample
dh230619Arenosillo 37.1 6.73 3.23pr1000
************************************************************
Dead Time -------------------------  3.8E-08 
Number of Cycles Used -------------  4 
Starting Wavelength (Angstroms) ---  2950 
Final Wavelength (Angstoms) -------  2984 
Wavelength Increment (Angstroms) --  .25 
Filter Wheel #1 Position ---------- (1) Ground quartz diffuser (ND=2.32)
Filter Wheel #2 Position ---------- (1) Neutral Density 0.494



************************************************************
HS scan start time = 01:56:02
Dark Count =  7.3 


Time (GMT)  Wavelength (Ang)  Step Number  Raw Counts  Counts/Second

  117.10        2950.00           2813         144.00       595.92
  117.35        2950.25           2816         154.00       639.51
  117.38        2950.50           2820         166.00       691.82
  117.42        2950.75           2823         146.00       604.63
  117.45        2951.00           2827         152.00       630.79
  117.49        2951.25           2830         151.00       626.43
  117.52        2951.50           2834         166.00       691.82
  117.55        2951.75           2837         146.00       604.63
  117.59        2952.00           2841         158.00       656.95
  117.62        2952.25           2845         150.00       622.07
  117.66        2952.50           2848         157.00       652.59
  117.69        2952.75           2852         160.00       665.67
  117.72        2953.00           2855         167.00       696.18
  117.76        2953.25           2859         163.00       678.74
  117.79        2953.50           2862         164.00       683.10
  117.82        2953.75           2866         180.00       752.86
  117.86        2954.00           2869         171.00       713.62
  117.89        2954.25           2873         191.00       800.81
  117.93        2954.50           2876         180.00       752.86
  117.96        2954.75           2880         180.00       752.86
  117.99        2955.00           2883         190.00       796.45
  118.02        2955.25           2887         186.00       779.01
  118.06        2955.50           2891         201.00       844.40
  118.09        2955.75           2894         205.00       861.84
  118.13        2956.00           2898         199.00       835.68
  118.16        2956.25           2901         209.00       879.28
  118.19        2956.50           2905         228.00       962.11
  118.23        2956.75           2908         220.00       927.23
  118.26        2957.00           2912         217.00       914.16
  118.30        2957.25           2915         219.00       922.87
  118.33        2957.50           2919         241.00      1018.78
  118.36        2957.75           2922         236.00       996.99
  118.40        2958.00           2926         237.00      1001.35
  118.43        2958.25           2930         250.00      1058.02
  118.47        2958.50           2933         305.00      1297.80
  118.50        2958.75           2937         276.00      1171.37
  118.53        2959.00           2940         271.00      1149.57
  118.57        2959.25           2944         282.00      1197.53
  118.60        2959.50           2947         285.00      1210.61
  118.63        2959.75           2951         306.00      1302.16
  118.67        2960.00           2954         298.00      1267.28
  118.70        2960.25           2958         307.00      1306.52
  118.73        2960.50           2961         304.00      1293.44
  118.77        2960.75           2965         341.00      1454.74
  118.80        2961.00           2968         370.00      1581.18
  118.83        2961.25           2972         571.00      2457.51
  118.87        2961.50           2976        1317.00      5710.48
  118.90        2961.75           2979        2265.00      9845.44
  118.94        2962.00           2983        4059.00     17674.03
  118.97        2962.25           2986        5496.00     23948.11
  119.00        2962.50           2990        7579.00     33048.02
  119.04        2962.75           2993        9407.00     41039.11
  119.07        2963.00           2997       11624.00     50737.23
  119.11        2963.25           3000       13328.00     58196.13
  119.14        2963.50           3004       15754.00     68822.74
  119.17        2963.75           3007       17807.00     77822.21
  119.21        2964.00           3011       20295.00     88736.81
  119.24        2964.25           3015       22691.00     99256.39
  119.28        2964.50           3018       24457.00    107015.40
  119.31        2964.75           3022       26979.00    118103.80
  119.34        2965.00           3025       28853.00    126349.30
  119.38        2965.25           3029       31433.00    137709.60
  119.41        2965.50           3032       32812.00    143785.70
  119.45        2965.75           3036       35371.00    155068.50
  119.48        2966.00           3039       36561.00    160318.50
  119.51        2966.25           3043       38656.00    169566.40
  119.54        2966.50           3046       38974.00    170970.70
  119.58        2966.75           3050       39515.00    173360.20
  119.61        2967.00           3054       39675.00    174066.90
  119.64        2967.25           3057       39684.00    174106.70
  119.68        2967.50           3061       39565.00    173581.00
  119.71        2967.75           3064       38306.00    168021.00
  119.75        2968.00           3068       37108.00    162732.50
  119.78        2968.25           3071       35752.00    156749.10
  119.81        2968.50           3075       33526.00    146932.70
  119.85        2968.75           3078       32104.00    140665.80
  119.88        2969.00           3082       29999.00    131394.20
  119.92        2969.25           3086       27521.00    120488.10
  119.95        2969.50           3089       25684.00    112409.00
  119.98        2969.75           3093       23200.00    101492.20
  120.02        2970.00           3096       21451.00     93811.15
  120.05        2970.25           3100       18954.00     82852.85
  120.09        2970.50           3103       17194.00     75134.44
  120.12        2970.75           3107       14524.00     63433.90
  120.15        2971.00           3110       12728.00     55569.27
  120.19        2971.25           3114       10276.00     44839.64
  120.22        2971.50           3117        8349.00     36413.47
  120.26        2971.75           3121        6062.00     26420.15
  120.29        2972.00           3125        3848.00     16753.03
  120.32        2972.25           3128        2345.00     10194.45
  120.36        2972.50           3132        1276.00      5531.68
  120.39        2972.75           3135         832.00      3595.52
  120.43        2973.00           3139         558.00      2400.83
  120.46        2973.25           3142         449.00      1925.60
  120.49        2973.50           3146         389.00      1664.01
  120.53        2973.75           3149         344.00      1467.82
  120.56        2974.00           3153         319.00      1358.83
  120.59        2974.25           3157         316.00      1345.75
  120.63        2974.50           3160         291.00      1236.76
  120.66        2974.75           3164         286.00      1214.96
  120.69        2975.00           3167         291.00      1236.76
  120.73        2975.25           3171         271.00      1149.57
  120.76        2975.50           3174         272.00      1153.93
  120.79        2975.75           3178         254.00      1075.46
  120.83        2976.00           3181         264.00      1119.05
  120.86        2976.25           3185         273.00      1158.29
  120.90        2976.50           3189         238.00      1005.71
  120.93        2976.75           3192         244.00      1031.86
  120.96        2977.00           3196         242.00      1023.14
  121.00        2977.25           3199         265.00      1123.41
  121.03        2977.50           3203         220.00       927.23
  121.07        2977.75           3206         214.00       901.08
  121.10        2978.00           3210         221.00       931.59
  121.13        2978.25           3213         214.00       901.08
  121.17        2978.50           3217         214.00       901.08
  121.20        2978.75           3221         226.00       953.39
  121.24        2979.00           3224         209.00       879.28
  121.27        2979.25           3228         198.00       831.33
  121.30        2979.50           3231         193.00       809.53
  121.34        2979.75           3235         201.00       844.40
  121.37        2980.00           3238         184.00       770.29
  121.41        2980.25           3242         190.00       796.45
  121.44        2980.50           3245         186.00       779.01
  121.47        2980.75           3249         170.00       709.26
  121.51        2981.00           3253         170.00       709.26
  121.54        2981.25           3256         174.00       726.70
  121.58        2981.50           3260         171.00       713.62
  121.61        2981.75           3263         170.00       709.26
  121.64        2982.00           3267         170.00       709.26
  121.68        2982.25           3270         164.00       683.10
  121.71        2982.50           3274         167.00       696.18
  121.75        2982.75           3277         167.00       696.18
  121.78        2983.00           3281         178.00       744.14
  121.81        2983.25           3285         154.00       639.51
  121.85        2983.50           3288         162.00       674.39
  121.88        2983.75           3292         168.00       700.54
  121.92        2984.00           3295         155.00       643.87
HS scan finished at 02:02:09
end
