************************************************************
  HS Scan of (1) Internal mercury lamp
************************************************************
Integration time is 0.2294 seconds per sample
dh190619Arenosillo 37.1 6.73 3.23pr1000
************************************************************
Dead Time -------------------------  3.8E-08 
Number of Cycles Used -------------  4 
Starting Wavelength (Angstroms) ---  2950 
Final Wavelength (Angstoms) -------  2984 
Wavelength Increment (Angstroms) --  .25 
Filter Wheel #1 Position ---------- (1) Ground quartz diffuser (ND=2.32)
Filter Wheel #2 Position ---------- (1) Neutral Density 0.494



************************************************************
HS scan start time = 21:35:43
Dark Count =  8.100001 


Time (GMT)  Wavelength (Ang)  Step Number  Raw Counts  Counts/Second

 1296.80        2950.00           2813         169.00       701.41
 1297.04        2950.25           2816         158.00       653.46
 1297.08        2950.50           2820         168.00       697.05
 1297.11        2950.75           2823         178.00       740.65
 1297.15        2951.00           2827         177.00       736.29
 1297.18        2951.25           2830         175.00       727.57
 1297.22        2951.50           2834         186.00       775.52
 1297.25        2951.75           2837         189.00       788.60
 1297.28        2952.00           2841         188.00       784.24
 1297.32        2952.25           2845         180.00       749.37
 1297.35        2952.50           2848         179.00       745.01
 1297.39        2952.75           2852         185.00       771.16
 1297.42        2953.00           2855         197.00       823.48
 1297.45        2953.25           2859         194.00       810.40
 1297.49        2953.50           2862         201.00       840.92
 1297.52        2953.75           2866         205.00       858.35
 1297.55        2954.00           2869         205.00       858.35
 1297.59        2954.25           2873         218.00       915.03
 1297.62        2954.50           2876         209.00       875.79
 1297.65        2954.75           2880         233.00       980.42
 1297.69        2955.00           2883         197.00       823.48
 1297.72        2955.25           2887         225.00       945.54
 1297.75        2955.50           2891         234.00       984.78
 1297.79        2955.75           2894         258.00      1089.41
 1297.82        2956.00           2898         246.00      1037.09
 1297.86        2956.25           2901         235.00       989.14
 1297.89        2956.50           2905         249.00      1050.17
 1297.92        2956.75           2908         260.00      1098.13
 1297.96        2957.00           2912         267.00      1128.64
 1297.99        2957.25           2915         261.00      1102.49
 1298.03        2957.50           2919         289.00      1224.56
 1298.06        2957.75           2922         279.00      1180.96
 1298.09        2958.00           2926         263.00      1111.21
 1298.13        2958.25           2930         281.00      1189.68
 1298.16        2958.50           2933         287.00      1215.84
 1298.20        2958.75           2937         306.00      1298.67
 1298.23        2959.00           2940         309.00      1311.75
 1298.26        2959.25           2944         309.00      1311.75
 1298.30        2959.50           2947         316.00      1342.27
 1298.33        2959.75           2951         329.00      1398.94
 1298.37        2960.00           2954         337.00      1433.82
 1298.40        2960.25           2958         358.00      1525.37
 1298.43        2960.50           2961         359.00      1529.73
 1298.47        2960.75           2965         391.00      1669.24
 1298.50        2961.00           2968         468.00      2004.95
 1298.54        2961.25           2972         863.00      3727.21
 1298.57        2961.50           2976        1700.00      7377.40
 1298.60        2961.75           2979        2702.00     11748.49
 1298.64        2962.00           2983        4446.00     19359.92
 1298.67        2962.25           2986        6053.00     26377.34
 1298.70        2962.50           2990        8163.00     35596.95
 1298.74        2962.75           2993       10038.00     43795.15
 1298.77        2963.00           2997       12879.00     56226.81
 1298.80        2963.25           3000       14744.00     64394.09
 1298.84        2963.50           3004       17524.00     76577.80
 1298.87        2963.75           3007       19527.00     85363.21
 1298.90        2964.00           3011       22230.00     97228.22
 1298.94        2964.25           3015       24754.00    108317.20
 1298.97        2964.50           3018       26483.00    115918.80
 1299.01        2964.75           3022       28839.00    126284.20
 1299.04        2965.00           3025       30698.00    134468.70
 1299.07        2965.25           3029       33283.00    145858.10
 1299.11        2965.50           3032       35166.00    154160.70
 1299.14        2965.75           3036       37809.00    165823.20
 1299.18        2966.00           3039       39286.00    172345.20
 1299.21        2966.25           3043       40947.00    179683.50
 1299.24        2966.50           3046       41589.00    182520.90
 1299.28        2966.75           3050       42076.00    184673.70
 1299.31        2967.00           3054       42198.00    185213.10
 1299.35        2967.25           3057       42097.00    184766.60
 1299.38        2967.50           3061       41500.00    182127.50
 1299.41        2967.75           3064       40446.00    177469.60
 1299.45        2968.00           3068       38776.00    170092.80
 1299.48        2968.25           3071       37680.00    165253.80
 1299.51        2968.50           3075       35501.00    155638.40
 1299.55        2968.75           3078       33661.00    147524.40
 1299.58        2969.00           3082       31092.00    136204.00
 1299.62        2969.25           3086       28369.00    124215.70
 1299.65        2969.50           3089       26448.00    115764.90
 1299.68        2969.75           3093       23548.00    103017.60
 1299.72        2970.00           3096       21628.00     94584.78
 1299.75        2970.25           3100       18990.00     83007.28
 1299.79        2970.50           3103       17099.00     74714.44
 1299.82        2970.75           3107       14446.00     63088.74
 1299.86        2971.00           3110       12608.00     55040.46
 1299.89        2971.25           3114       10173.00     44385.62
 1299.92        2971.50           3117        8174.00     35645.02
 1299.96        2971.75           3121        5789.00     25224.26
 1299.99        2972.00           3125        3663.00     15942.09
 1300.03        2972.25           3128        2428.00     10553.06
 1300.06        2972.50           3132        1468.00      6365.53
 1300.09        2972.75           3135         976.00      4219.94
 1300.13        2973.00           3139         597.00      2567.38
 1300.16        2973.25           3142         426.00      1821.84
 1300.20        2973.50           3146         370.00      1577.69
 1300.23        2973.75           3149         358.00      1525.37
 1300.26        2974.00           3153         341.00      1451.26
 1300.30        2974.25           3157         328.00      1394.58
 1300.33        2974.50           3160         358.00      1525.37
 1300.37        2974.75           3164         318.00      1350.98
 1300.40        2975.00           3167         314.00      1333.55
 1300.43        2975.25           3171         311.00      1320.47
 1300.47        2975.50           3174         305.00      1294.31
 1300.50        2975.75           3178         304.00      1289.95
 1300.54        2976.00           3181         299.00      1268.15
 1300.57        2976.25           3185         297.00      1259.43
 1300.60        2976.50           3189         270.00      1141.72
 1300.64        2976.75           3192         274.00      1159.16
 1300.67        2977.00           3196         302.00      1281.23
 1300.71        2977.25           3199         271.00      1146.08
 1300.74        2977.50           3203         258.00      1089.41
 1300.77        2977.75           3206         264.00      1115.57
 1300.81        2978.00           3210         229.00       962.98
 1300.84        2978.25           3213         243.00      1024.02
 1300.88        2978.50           3217         250.00      1054.53
 1300.91        2978.75           3221         233.00       980.42
 1300.94        2979.00           3224         255.00      1076.33
 1300.98        2979.25           3228         243.00      1024.02
 1301.01        2979.50           3231         206.00       862.71
 1301.05        2979.75           3235         217.00       910.67
 1301.08        2980.00           3238         195.00       814.76
 1301.11        2980.25           3242         204.00       853.99
 1301.15        2980.50           3245         215.00       901.95
 1301.18        2980.75           3249         207.00       867.07
 1301.22        2981.00           3253         204.00       853.99
 1301.25        2981.25           3256         199.00       832.20
 1301.28        2981.50           3260         217.00       910.67
 1301.32        2981.75           3263         189.00       788.60
 1301.35        2982.00           3267         193.00       806.04
 1301.38        2982.25           3270         203.00       849.64
 1301.42        2982.50           3274         180.00       749.37
 1301.45        2982.75           3277         187.00       779.88
 1301.49        2983.00           3281         185.00       771.16
 1301.52        2983.25           3285         190.00       792.96
 1301.56        2983.50           3288         178.00       740.65
 1301.59        2983.75           3292         174.00       723.21
 1301.62        2984.00           3295         179.00       745.01
HS scan finished at 21:41:51
end
