************************************************************
  HS Scan of (1) Internal mercury lamp
************************************************************
Integration time is 0.2294 seconds per sample
dh260619Arenosillo 37.1 6.73 3.33pr1000
************************************************************
Dead Time -------------------------  3.8E-08 
Number of Cycles Used -------------  4 
Starting Wavelength (Angstroms) ---  2950 
Final Wavelength (Angstoms) -------  2984 
Wavelength Increment (Angstroms) --  .25 
Filter Wheel #1 Position ---------- (1) Ground quartz diffuser (ND=2.32)
Filter Wheel #2 Position ---------- (1) Neutral Density 0.494



************************************************************
HS scan start time = 01:57:00
Dark Count =  8.399999 


Time (GMT)  Wavelength (Ang)  Step Number  Raw Counts  Counts/Second

  118.08        2950.00           2813         141.00       578.04
  118.32        2950.25           2816         158.00       652.15
  118.36        2950.50           2820         133.00       543.17
  118.39        2950.75           2823         150.00       617.28
  118.42        2951.00           2827         143.00       586.76
  118.46        2951.25           2830         148.00       608.56
  118.49        2951.50           2834         156.00       643.43
  118.52        2951.75           2837         144.00       591.12
  118.56        2952.00           2841         151.00       621.64
  118.59        2952.25           2845         165.00       682.67
  118.63        2952.50           2848         169.00       700.11
  118.66        2952.75           2852         159.00       656.51
  118.69        2953.00           2855         160.00       660.87
  118.73        2953.25           2859         160.00       660.87
  118.76        2953.50           2862         162.00       669.59
  118.80        2953.75           2866         159.00       656.51
  118.83        2954.00           2869         167.00       691.39
  118.86        2954.25           2873         167.00       691.39
  118.90        2954.50           2876         173.00       717.54
  118.93        2954.75           2880         182.00       756.78
  118.96        2955.00           2883         182.00       756.78
  119.00        2955.25           2887         182.00       756.78
  119.03        2955.50           2891         187.00       778.58
  119.06        2955.75           2894         203.00       848.33
  119.10        2956.00           2898         224.00       939.88
  119.13        2956.25           2901         189.00       787.29
  119.16        2956.50           2905         199.00       830.89
  119.20        2956.75           2908         209.00       874.48
  119.23        2957.00           2912         226.00       948.60
  119.27        2957.25           2915         221.00       926.80
  119.30        2957.50           2919         228.00       957.31
  119.33        2957.75           2922         244.00      1027.07
  119.37        2958.00           2926         218.00       913.72
  119.40        2958.25           2930         248.00      1044.51
  119.44        2958.50           2933         247.00      1040.15
  119.47        2958.75           2937         264.00      1114.26
  119.50        2959.00           2940         267.00      1127.34
  119.54        2959.25           2944         273.00      1153.49
  119.57        2959.50           2947         280.00      1184.01
  119.61        2959.75           2951         284.00      1201.45
  119.64        2960.00           2954         290.00      1227.61
  119.67        2960.25           2958         295.00      1249.41
  119.71        2960.50           2961         315.00      1336.60
  119.74        2960.75           2965         314.00      1332.24
  119.78        2961.00           2968         320.00      1358.40
  119.81        2961.25           2972         552.00      2369.87
  119.85        2961.50           2976        1301.00      5635.91
  119.88        2961.75           2979        2229.00      9683.60
  119.91        2962.00           2983        4025.00     17520.82
  119.95        2962.25           2986        5493.00     23930.21
  119.98        2962.50           2990        7660.00     33397.20
  120.02        2962.75           2993        9290.00     40522.68
  120.05        2963.00           2997       11401.00     49756.59
  120.08        2963.25           3000       13060.00     57017.92
  120.12        2963.50           3004       15302.00     66837.37
  120.15        2963.75           3007       17184.00     75085.77
  120.18        2964.00           3011       19547.00     85449.64
  120.22        2964.25           3015       21931.00     95913.90
  120.25        2964.50           3018       23932.00    104703.50
  120.29        2964.75           3022       26193.00    114642.20
  120.32        2965.00           3025       28013.00    122647.90
  120.35        2965.25           3029       30232.00    132415.30
  120.39        2965.50           3032       31952.00    139991.20
  120.42        2965.75           3036       34156.00    149705.40
  120.46        2966.00           3039       35402.00    155200.40
  120.49        2966.25           3043       37118.00    162771.80
  120.52        2966.50           3046       37828.00    165905.80
  120.56        2966.75           3050       38075.00    166996.20
  120.59        2967.00           3054       38157.00    167358.30
  120.63        2967.25           3057       37907.00    166254.60
  120.66        2967.50           3061       37703.00    165354.00
  120.69        2967.75           3064       36998.00    162242.20
  120.73        2968.00           3068       35590.00    156029.60
  120.76        2968.25           3071       34035.00    149171.90
  120.80        2968.50           3075       31861.00    139590.30
  120.83        2968.75           3078       29910.00    130997.50
  120.86        2969.00           3082       27950.00    122370.70
  120.90        2969.25           3086       25823.00    113015.30
  120.93        2969.50           3089       24035.00    105156.10
  120.97        2969.75           3093       21724.00     95004.97
  121.00        2970.00           3096       20015.00     87503.21
  121.03        2970.25           3100       17966.00     78514.63
  121.07        2970.50           3103       15826.00     69133.43
  121.10        2970.75           3107       13254.00     57867.30
  121.14        2971.00           3110       11565.00     50474.23
  121.17        2971.25           3114        9192.00     40094.17
  121.20        2971.50           3117        7144.00     31142.33
  121.24        2971.75           3121        4955.00     21580.90
  121.27        2972.00           3125        2981.00     12964.54
  121.31        2972.25           3128        1869.00      8113.23
  121.34        2972.50           3132         946.00      4087.82
  121.37        2972.75           3135         656.00      2823.32
  121.41        2973.00           3139         468.00      2003.64
  121.44        2973.25           3142         379.00      1615.62
  121.48        2973.50           3146         342.00      1454.31
  121.51        2973.75           3149         346.00      1471.75
  121.55        2974.00           3153         297.00      1258.12
  121.58        2974.25           3157         315.00      1336.60
  121.61        2974.50           3160         281.00      1188.37
  121.65        2974.75           3164         274.00      1157.85
  121.68        2975.00           3167         277.00      1170.93
  121.71        2975.25           3171         280.00      1184.01
  121.75        2975.50           3174         281.00      1188.37
  121.78        2975.75           3178         277.00      1170.93
  121.81        2976.00           3181         253.00      1066.30
  121.85        2976.25           3185         277.00      1170.93
  121.88        2976.50           3189         238.00      1000.91
  121.91        2976.75           3192         232.00       974.75
  121.95        2977.00           3196         222.00       931.16
  121.98        2977.25           3199         221.00       926.80
  122.01        2977.50           3203         225.00       944.24
  122.05        2977.75           3206         200.00       835.25
  122.08        2978.00           3210         202.00       843.97
  122.12        2978.25           3213         209.00       874.48
  122.15        2978.50           3217         219.00       918.08
  122.18        2978.75           3221         188.00       782.94
  122.22        2979.00           3224         186.00       774.22
  122.25        2979.25           3228         202.00       843.97
  122.29        2979.50           3231         186.00       774.22
  122.32        2979.75           3235         184.00       765.50
  122.35        2980.00           3238         187.00       778.58
  122.39        2980.25           3242         177.00       734.98
  122.42        2980.50           3245         184.00       765.50
  122.46        2980.75           3249         175.00       726.26
  122.49        2981.00           3253         169.00       700.11
  122.52        2981.25           3256         175.00       726.26
  122.56        2981.50           3260         173.00       717.54
  122.59        2981.75           3263         164.00       678.31
  122.63        2982.00           3267         177.00       734.98
  122.66        2982.25           3270         154.00       634.71
  122.69        2982.50           3274         174.00       721.90
  122.73        2982.75           3277         157.00       647.79
  122.76        2983.00           3281         150.00       617.28
  122.80        2983.25           3285         148.00       608.56
  122.83        2983.50           3288         162.00       669.59
  122.86        2983.75           3292         148.00       608.56
  122.90        2984.00           3295         158.00       652.15
HS scan finished at 02:03:08
end
