************************************************************
  HS Scan of (1) Internal mercury lamp
************************************************************
Integration time is 0.2294 seconds per sample
dh250619Arenosillo 37.1 6.73 3.31pr1000
************************************************************
Dead Time -------------------------  3.8E-08 
Number of Cycles Used -------------  4 
Starting Wavelength (Angstroms) ---  2950 
Final Wavelength (Angstoms) -------  2984 
Wavelength Increment (Angstroms) --  .25 
Filter Wheel #1 Position ---------- (1) Ground quartz diffuser (ND=2.32)
Filter Wheel #2 Position ---------- (1) Neutral Density 0.494



************************************************************
HS scan start time = 01:56:45
Dark Count =  9.600001 


Time (GMT)  Wavelength (Ang)  Step Number  Raw Counts  Counts/Second

  117.83        2950.00           2813         146.00       594.61
  118.08        2950.25           2816         141.00       572.81
  118.11        2950.50           2820         162.00       664.36
  118.14        2950.75           2823         164.00       673.08
  118.18        2951.00           2827         156.00       638.20
  118.21        2951.25           2830         144.00       585.89
  118.24        2951.50           2834         154.00       629.48
  118.28        2951.75           2837         148.00       603.33
  118.31        2952.00           2841         141.00       572.81
  118.35        2952.25           2845         151.00       616.40
  118.38        2952.50           2848         160.00       655.64
  118.41        2952.75           2852         151.00       616.40
  118.45        2953.00           2855         165.00       677.44
  118.48        2953.25           2859         169.00       694.87
  118.52        2953.50           2862         175.00       721.03
  118.55        2953.75           2866         176.00       725.39
  118.58        2954.00           2869         178.00       734.11
  118.62        2954.25           2873         171.00       703.59
  118.65        2954.50           2876         178.00       734.11
  118.69        2954.75           2880         176.00       725.39
  118.72        2955.00           2883         177.00       729.75
  118.75        2955.25           2887         196.00       812.58
  118.78        2955.50           2891         205.00       851.81
  118.82        2955.75           2894         188.00       777.70
  118.85        2956.00           2898         190.00       786.42
  118.88        2956.25           2901         210.00       873.61
  118.92        2956.50           2905         196.00       812.58
  118.95        2956.75           2908         227.00       947.72
  118.99        2957.00           2912         215.00       895.41
  119.02        2957.25           2915         227.00       947.72
  119.05        2957.50           2919         217.00       904.13
  119.09        2957.75           2922         224.00       934.65
  119.12        2958.00           2926         270.00      1135.18
  119.16        2958.25           2930         254.00      1065.43
  119.19        2958.50           2933         238.00       995.68
  119.22        2958.75           2937         234.00       978.24
  119.26        2959.00           2940         252.00      1056.71
  119.29        2959.25           2944         279.00      1174.42
  119.33        2959.50           2947         279.00      1174.42
  119.36        2959.75           2951         294.00      1239.81
  119.39        2960.00           2954         284.00      1196.22
  119.43        2960.25           2958         305.00      1287.77
  119.46        2960.50           2961         320.00      1353.16
  119.50        2960.75           2965         330.00      1396.76
  119.52        2961.00           2968         377.00      1601.67
  119.55        2961.25           2972         590.00      2530.32
  119.58        2961.50           2976        1367.00      5918.51
  119.61        2961.75           2979        2427.00     10542.15
  119.65        2962.00           2983        4342.00     18899.36
  119.68        2962.25           2986        5814.00     25326.89
  119.71        2962.50           2990        7934.00     34589.46
  119.75        2962.75           2993        9535.00     41588.78
  119.78        2963.00           2997       11721.00     51151.64
  119.81        2963.25           3000       13442.00     58685.22
  119.85        2963.50           3004       15609.00     68177.28
  119.88        2963.75           3007       17494.00     76439.68
  119.91        2964.00           3011       19781.00     86471.12
  119.95        2964.25           3015       22272.00     97406.08
  119.98        2964.50           3018       23882.00    104478.50
  120.02        2964.75           3022       26484.00    115916.60
  120.05        2965.00           3025       28171.00    123337.80
  120.08        2965.25           3029       30596.00    134012.90
  120.12        2965.50           3032       32036.00    140356.00
  120.15        2965.75           3036       34432.00    150917.10
  120.19        2966.00           3039       35878.00    157294.90
  120.22        2966.25           3043       37022.00    162342.80
  120.25        2966.50           3046       37564.00    164735.10
  120.28        2966.75           3050       37966.00    166509.70
  120.32        2967.00           3054       38016.00    166730.50
  120.35        2967.25           3057       37881.00    166134.50
  120.39        2967.50           3061       37477.00    164351.10
  120.42        2967.75           3064       36516.00    160109.80
  120.45        2968.00           3068       34903.00    152994.10
  120.49        2968.25           3071       33467.00    146662.50
  120.52        2968.50           3075       31598.00    138426.30
  120.56        2968.75           3078       29634.00    129777.10
  120.59        2969.00           3082       27300.00    119505.70
  120.62        2969.25           3086       25218.00    110350.20
  120.66        2969.50           3089       23508.00    102835.30
  120.69        2969.75           3093       21344.00     93331.30
  120.73        2970.00           3096       19500.00     85238.16
  120.76        2970.25           3100       17293.00     75558.40
  120.79        2970.50           3103       15532.00     67839.88
  120.83        2970.75           3107       13059.00     57008.29
  120.86        2971.00           3110       11381.00     49663.83
  120.90        2971.25           3114        8957.00     39061.43
  120.93        2971.50           3117        7064.00     30787.52
  120.96        2971.75           3121        4729.00     20588.90
  121.00        2972.00           3125        2723.00     11833.57
  121.03        2972.25           3128        1606.00      6960.86
  121.07        2972.50           3132         869.00      3746.83
  121.10        2972.75           3135         627.00      2691.64
  121.13        2973.00           3139         459.00      1959.17
  121.17        2973.25           3142         382.00      1623.47
  121.20        2973.50           3146         340.00      1440.36
  121.23        2973.75           3149         319.00      1348.80
  121.27        2974.00           3153         316.00      1335.73
  121.30        2974.25           3157         301.00      1270.33
  121.34        2974.50           3160         287.00      1209.30
  121.37        2974.75           3164         270.00      1135.18
  121.41        2975.00           3167         300.00      1265.97
  121.44        2975.25           3171         281.00      1183.14
  121.47        2975.50           3174         260.00      1091.59
  121.51        2975.75           3178         275.00      1156.98
  121.54        2976.00           3181         254.00      1065.43
  121.58        2976.25           3185         252.00      1056.71
  121.61        2976.50           3189         234.00       978.24
  121.64        2976.75           3192         232.00       969.52
  121.68        2977.00           3196         232.00       969.52
  121.71        2977.25           3199         210.00       873.61
  121.74        2977.50           3203         227.00       947.72
  121.78        2977.75           3206         216.00       899.77
  121.81        2978.00           3210         208.00       864.89
  121.85        2978.25           3213         196.00       812.58
  121.88        2978.50           3217         206.00       856.17
  121.92        2978.75           3221         200.00       830.02
  121.95        2979.00           3224         191.00       790.78
  121.98        2979.25           3228         197.00       816.94
  122.02        2979.50           3231         192.00       795.14
  122.05        2979.75           3235         189.00       782.06
  122.09        2980.00           3238         185.00       764.63
  122.12        2980.25           3242         177.00       729.75
  122.15        2980.50           3245         168.00       690.52
  122.18        2980.75           3249         182.00       751.55
  122.22        2981.00           3253         169.00       694.87
  122.25        2981.25           3256         163.00       668.72
  122.28        2981.50           3260         185.00       764.63
  122.32        2981.75           3263         164.00       673.08
  122.35        2982.00           3267         162.00       664.36
  122.39        2982.25           3270         162.00       664.36
  122.42        2982.50           3274         166.00       681.80
  122.45        2982.75           3277         151.00       616.40
  122.49        2983.00           3281         161.00       660.00
  122.52        2983.25           3285         155.00       633.84
  122.56        2983.50           3288         164.00       673.08
  122.59        2983.75           3292         152.00       620.76
  122.62        2984.00           3295         156.00       638.20
HS scan finished at 02:02:51
end
************************************************************
  HS Scan of (1) Internal mercury lamp
************************************************************
Integration time is 0.2294 seconds per sample
dh250619Arenosillo 37.1 6.73 3.39pr1000
************************************************************
Dead Time -------------------------  3.8E-08 
Number of Cycles Used -------------  4 
Starting Wavelength (Angstroms) ---  2950 
Final Wavelength (Angstoms) -------  2984 
Wavelength Increment (Angstroms) --  .25 
Filter Wheel #1 Position ---------- (1) Ground quartz diffuser (ND=2.32)
Filter Wheel #2 Position ---------- (1) Neutral Density 0.494



************************************************************
HS scan start time = 20:43:11
Dark Count =  14.6 


Time (GMT)  Wavelength (Ang)  Step Number  Raw Counts  Counts/Second

 1244.25        2950.00           2813         138.00       537.94
 1244.50        2950.25           2816         145.00       568.45
 1244.53        2950.50           2820         141.00       551.01
 1244.57        2950.75           2823         158.00       625.12
 1244.60        2951.00           2827         152.00       598.97
 1244.63        2951.25           2830         143.00       559.73
 1244.67        2951.50           2834         136.00       529.22
 1244.70        2951.75           2837         145.00       568.45
 1244.73        2952.00           2841         158.00       625.12
 1244.77        2952.25           2845         167.00       664.36
 1244.80        2952.50           2848         155.00       612.05
 1244.83        2952.75           2852         164.00       651.28
 1244.87        2953.00           2855         186.00       747.19
 1244.90        2953.25           2859         161.00       638.20
 1244.94        2953.50           2862         166.00       660.00
 1244.97        2953.75           2866         167.00       664.36
 1245.00        2954.00           2869         198.00       799.50
 1245.02        2954.25           2873         174.00       694.87
 1245.06        2954.50           2876         177.00       707.95
 1245.09        2954.75           2880         190.00       764.63
 1245.12        2955.00           2883         189.00       760.27
 1245.16        2955.25           2887         187.00       751.55
 1245.19        2955.50           2891         195.00       786.42
 1245.22        2955.75           2894         187.00       751.55
 1245.26        2956.00           2898         215.00       873.61
 1245.29        2956.25           2901         197.00       795.14
 1245.33        2956.50           2905         196.00       790.78
 1245.36        2956.75           2908         206.00       834.38
 1245.40        2957.00           2912         214.00       869.25
 1245.43        2957.25           2915         252.00      1034.91
 1245.46        2957.50           2919         235.00       960.80
 1245.50        2957.75           2922         225.00       917.21
 1245.53        2958.00           2926         240.00       982.60
 1245.57        2958.25           2930         240.00       982.60
 1245.60        2958.50           2933         251.00      1030.55
 1245.63        2958.75           2937         253.00      1039.27
 1245.67        2959.00           2940         265.00      1091.59
 1245.70        2959.25           2944         307.00      1274.69
 1245.74        2959.50           2947         278.00      1148.26
 1245.77        2959.75           2951         294.00      1218.02
 1245.80        2960.00           2954         293.00      1213.66
 1245.84        2960.25           2958         297.00      1231.10
 1245.87        2960.50           2961         308.00      1279.05
 1245.90        2960.75           2965         333.00      1388.04
 1245.94        2961.00           2968         364.00      1523.19
 1245.97        2961.25           2972         660.00      2813.73
 1246.01        2961.50           2976        1509.00      6516.00
 1246.04        2961.75           2979        2463.00     10677.39
 1246.07        2962.00           2983        4199.00     18253.29
 1246.11        2962.25           2986        5619.00     24453.40
 1246.14        2962.50           2990        7874.00     34305.37
 1246.18        2962.75           2993        9498.00     41405.11
 1246.21        2963.00           2997       11738.00     51204.16
 1246.24        2963.25           3000       13346.00     58242.98
 1246.28        2963.50           3004       15493.00     67647.08
 1246.31        2963.75           3007       17460.00     76268.68
 1246.34        2964.00           3011       19717.00     86168.36
 1246.38        2964.25           3015       21982.00     96110.62
 1246.41        2964.50           3018       24019.00    105058.50
 1246.44        2964.75           3022       26258.00    114900.80
 1246.48        2965.00           3025       27843.00    121872.60
 1246.51        2965.25           3029       30046.00    131569.00
 1246.55        2965.50           3032       31449.00    137747.90
 1246.58        2965.75           3036       33879.00    148456.80
 1246.61        2966.00           3039       35162.00    154114.40
 1246.65        2966.25           3043       36651.00    160683.40
 1246.68        2966.50           3046       36996.00    162206.00
 1246.71        2966.75           3050       37419.00    164072.90
 1246.75        2967.00           3054       37332.00    163688.90
 1246.78        2967.25           3057       37238.00    163274.10
 1246.82        2967.50           3061       36667.00    160754.10
 1246.85        2967.75           3064       35856.00    157175.70
 1246.89        2968.00           3068       33972.00    148866.80
 1246.92        2968.25           3071       32681.00    143176.20
 1246.95        2968.50           3075       30513.00    133625.40
 1246.99        2968.75           3078       28704.00    125661.40
 1247.02        2969.00           3082       26808.00    117319.60
 1247.05        2969.25           3086       24562.00    107444.80
 1247.08        2969.50           3089       22919.00    100225.80
 1247.12        2969.75           3093       20875.00     91250.48
 1247.15        2970.00           3096       19147.00     83667.51
 1247.19        2970.25           3100       16990.00     74208.10
 1247.22        2970.50           3103       15224.00     66468.47
 1247.25        2970.75           3107       12851.00     56075.78
 1247.29        2971.00           3110       11364.00     49567.56
 1247.32        2971.25           3114        8757.00     38165.17
 1247.36        2971.50           3117        6994.00     30459.82
 1247.39        2971.75           3121        4859.00     21134.67
 1247.42        2972.00           3125        2893.00     12553.50
 1247.46        2972.25           3128        1740.00      7523.51
 1247.49        2972.50           3132         915.00      3925.61
 1247.53        2972.75           3135         682.00      2909.65
 1247.56        2973.00           3139         475.00      2007.13
 1247.59        2973.25           3142         423.00      1780.42
 1247.63        2973.50           3146         320.00      1331.37
 1247.66        2973.75           3149         325.00      1353.16
 1247.70        2974.00           3153         301.00      1248.53
 1247.73        2974.25           3157         295.00      1222.38
 1247.76        2974.50           3160         288.00      1191.86
 1247.80        2974.75           3164         313.00      1300.85
 1247.83        2975.00           3167         276.00      1139.54
 1247.87        2975.25           3171         286.00      1183.14
 1247.90        2975.50           3174         290.00      1200.58
 1247.93        2975.75           3178         265.00      1091.59
 1247.97        2976.00           3181         262.00      1078.51
 1248.00        2976.25           3185         258.00      1061.07
 1248.04        2976.50           3189         266.00      1095.95
 1248.07        2976.75           3192         256.00      1052.35
 1248.10        2977.00           3196         230.00       939.00
 1248.14        2977.25           3199         227.00       925.93
 1248.17        2977.50           3203         252.00      1034.91
 1248.21        2977.75           3206         207.00       838.74
 1248.24        2978.00           3210         197.00       795.14
 1248.27        2978.25           3213         222.00       904.13
 1248.30        2978.50           3217         202.00       816.94
 1248.34        2978.75           3221         205.00       830.02
 1248.37        2979.00           3224         204.00       825.66
 1248.40        2979.25           3228         195.00       786.42
 1248.44        2979.50           3231         194.00       782.06
 1248.47        2979.75           3235         182.00       729.75
 1248.51        2980.00           3238         183.00       734.11
 1248.54        2980.25           3242         193.00       777.70
 1248.57        2980.50           3245         177.00       707.95
 1248.61        2980.75           3249         172.00       686.16
 1248.64        2981.00           3253         168.00       668.72
 1248.68        2981.25           3256         176.00       703.59
 1248.71        2981.50           3260         166.00       660.00
 1248.74        2981.75           3263         177.00       707.95
 1248.78        2982.00           3267         166.00       660.00
 1248.81        2982.25           3270         161.00       638.20
 1248.85        2982.50           3274         166.00       660.00
 1248.88        2982.75           3277         162.00       642.56
 1248.91        2983.00           3281         152.00       598.97
 1248.95        2983.25           3285         156.00       616.40
 1248.98        2983.50           3288         145.00       568.45
 1249.02        2983.75           3292         156.00       616.40
 1249.05        2984.00           3295         164.00       651.28
HS scan finished at 20:49:17
end
