************************************************************
  HS Scan of (1) Internal mercury lamp
************************************************************
Integration time is 0.2294 seconds per sample
dh200619Arenosillo 37.1 6.73 3.17pr1000
************************************************************
Dead Time -------------------------  3.8E-08 
Number of Cycles Used -------------  4 
Starting Wavelength (Angstroms) ---  2950 
Final Wavelength (Angstoms) -------  2984 
Wavelength Increment (Angstroms) --  .25 
Filter Wheel #1 Position ---------- (1) Ground quartz diffuser (ND=2.32)
Filter Wheel #2 Position ---------- (1) Neutral Density 0.494



************************************************************
HS scan start time = 01:54:58
Dark Count =  7.4 


Time (GMT)  Wavelength (Ang)  Step Number  Raw Counts  Counts/Second

  116.03        2950.00           2813         164.00       682.67
  116.28        2950.25           2816         168.00       700.11
  116.32        2950.50           2820         165.00       687.03
  116.35        2950.75           2823         170.00       708.82
  116.38        2951.00           2827         166.00       691.39
  116.42        2951.25           2830         171.00       713.18
  116.45        2951.50           2834         178.00       743.70
  116.48        2951.75           2837         180.00       752.42
  116.52        2952.00           2841         177.00       739.34
  116.55        2952.25           2845         184.00       769.86
  116.59        2952.50           2848         196.00       822.17
  116.62        2952.75           2852         185.00       774.22
  116.65        2953.00           2855         177.00       739.34
  116.69        2953.25           2859         198.00       830.89
  116.72        2953.50           2862         206.00       865.77
  116.76        2953.75           2866         192.00       804.73
  116.79        2954.00           2869         201.00       843.97
  116.82        2954.25           2873         206.00       865.77
  116.86        2954.50           2876         195.00       817.81
  116.89        2954.75           2880         198.00       830.89
  116.92        2955.00           2883         232.00       979.11
  116.96        2955.25           2887         210.00       883.20
  116.99        2955.50           2891         220.00       926.80
  117.02        2955.75           2894         220.00       926.80
  117.06        2956.00           2898         229.00       966.03
  117.09        2956.25           2901         224.00       944.24
  117.13        2956.50           2905         244.00      1031.43
  117.16        2956.75           2908         265.00      1122.98
  117.19        2957.00           2912         266.00      1127.34
  117.23        2957.25           2915         248.00      1048.86
  117.26        2957.50           2919         291.00      1236.33
  117.29        2957.75           2922         250.00      1057.58
  117.33        2958.00           2926         295.00      1253.77
  117.36        2958.25           2930         269.00      1140.42
  117.40        2958.50           2933         290.00      1231.97
  117.43        2958.75           2937         305.00      1297.36
  117.47        2959.00           2940         312.00      1327.88
  117.50        2959.25           2944         294.00      1249.41
  117.53        2959.50           2947         305.00      1297.36
  117.57        2959.75           2951         319.00      1358.40
  117.60        2960.00           2954         334.00      1423.79
  117.64        2960.25           2958         380.00      1624.34
  117.67        2960.50           2961         355.00      1515.34
  117.70        2960.75           2965         383.00      1637.42
  117.74        2961.00           2968         455.00      1951.32
  117.77        2961.25           2972         841.00      3634.33
  117.81        2961.50           2976        1708.00      7415.34
  117.84        2961.75           2979        2628.00     11428.68
  117.87        2962.00           2983        4398.00     19153.43
  117.91        2962.25           2986        5931.00     25847.52
  117.94        2962.50           2990        8187.00     35704.91
  117.97        2962.75           2993        9950.00     43413.32
  118.01        2963.00           2997       12546.00     54772.12
  118.04        2963.25           3000       14783.00     64567.99
  118.08        2963.50           3004       17256.00     75405.82
  118.11        2963.75           3007       19300.00     84370.34
  118.15        2964.00           3011       22153.00     96893.15
  118.18        2964.25           3015       24733.00    108228.00
  118.21        2964.50           3018       26708.00    116911.40
  118.25        2964.75           3022       28977.00    126894.60
  118.28        2965.00           3025       30758.00    134736.10
  118.32        2965.25           3029       33207.00    145526.20
  118.35        2965.50           3032       35131.00    154009.40
  118.38        2965.75           3036       37382.00    163941.40
  118.42        2966.00           3039       39183.00    171893.40
  118.45        2966.25           3043       41011.00    179969.40
  118.48        2966.50           3046       41513.00    182188.10
  118.52        2966.75           3050       42180.00    185136.60
  118.55        2967.00           3054       42349.00    185883.80
  118.59        2967.25           3057       42285.00    185600.90
  118.62        2967.50           3061       41675.00    182904.20
  118.66        2967.75           3064       40883.00    179403.70
  118.69        2968.00           3068       39204.00    171986.10
  118.72        2968.25           3071       37912.00    166281.10
  118.76        2968.50           3075       35833.00    157106.00
  118.79        2968.75           3078       33919.00    148664.90
  118.82        2969.00           3082       31530.00    138136.50
  118.86        2969.25           3086       28782.00    126036.40
  118.89        2969.50           3089       26963.00    118033.00
  118.93        2969.75           3093       24153.00    105679.00
  118.96        2970.00           3096       22109.00     96699.92
  118.99        2970.25           3100       19390.00     84765.19
  119.03        2970.50           3103       17469.00     76339.71
  119.06        2970.75           3107       14618.00     63845.20
  119.10        2971.00           3110       12753.00     55678.27
  119.13        2971.25           3114       10232.00     44646.74
  119.16        2971.50           3117        8295.00     36176.99
  119.20        2971.75           3121        5833.00     25419.49
  119.23        2972.00           3125        3662.00     15940.78
  119.27        2972.25           3128        2429.00     10560.47
  119.30        2972.50           3132        1416.00      6141.80
  119.33        2972.75           3135         943.00      4079.10
  119.37        2973.00           3139         578.00      2487.59
  119.40        2973.25           3142         433.00      1855.41
  119.43        2973.50           3146         375.00      1602.54
  119.47        2973.75           3149         379.00      1619.98
  119.50        2974.00           3153         335.00      1428.15
  119.53        2974.25           3157         349.00      1489.19
  119.57        2974.50           3160         315.00      1340.96
  119.60        2974.75           3164         315.00      1340.96
  119.64        2975.00           3167         303.00      1288.64
  119.67        2975.25           3171         292.00      1240.69
  119.70        2975.50           3174         306.00      1301.72
  119.74        2975.75           3178         282.00      1197.09
  119.77        2976.00           3181         286.00      1214.53
  119.80        2976.25           3185         279.00      1184.01
  119.84        2976.50           3189         285.00      1210.17
  119.87        2976.75           3192         269.00      1140.42
  119.91        2977.00           3196         267.00      1131.70
  119.94        2977.25           3199         249.00      1053.22
  119.98        2977.50           3203         244.00      1031.43
  120.01        2977.75           3206         263.00      1114.26
  120.04        2978.00           3210         247.00      1044.51
  120.08        2978.25           3213         243.00      1027.07
  120.11        2978.50           3217         267.00      1131.70
  120.15        2978.75           3221         222.00       935.52
  120.18        2979.00           3224         226.00       952.96
  120.21        2979.25           3228         244.00      1031.43
  120.25        2979.50           3231         209.00       878.84
  120.28        2979.75           3235         226.00       952.96
  120.31        2980.00           3238         231.00       974.75
  120.35        2980.25           3242         219.00       922.44
  120.38        2980.50           3245         210.00       883.20
  120.42        2980.75           3249         202.00       848.33
  120.45        2981.00           3253         192.00       804.73
  120.48        2981.25           3256         203.00       852.69
  120.52        2981.50           3260         196.00       822.17
  120.55        2981.75           3263         178.00       743.70
  120.59        2982.00           3267         188.00       787.29
  120.62        2982.25           3270         194.00       813.45
  120.65        2982.50           3274         174.00       726.26
  120.69        2982.75           3277         187.00       782.94
  120.72        2983.00           3281         195.00       817.81
  120.76        2983.25           3285         166.00       691.39
  120.79        2983.50           3288         174.00       726.26
  120.82        2983.75           3292         170.00       708.82
  120.86        2984.00           3295         176.00       734.98
HS scan finished at 02:01:05
end
