************************************************************
  HS Scan of (1) Internal mercury lamp
************************************************************
Integration time is 0.2294 seconds per sample
dh230619Arenosillo 37.1 6.73 3.23pr1000
************************************************************
Dead Time -------------------------  3.8E-08 
Number of Cycles Used -------------  4 
Starting Wavelength (Angstroms) ---  2950 
Final Wavelength (Angstoms) -------  2984 
Wavelength Increment (Angstroms) --  .25 
Filter Wheel #1 Position ---------- (1) Ground quartz diffuser (ND=2.32)
Filter Wheel #2 Position ---------- (1) Neutral Density 0.494



************************************************************
HS scan start time = 01:56:02
Dark Count =  7.3 


Time (GMT)  Wavelength (Ang)  Step Number  Raw Counts  Counts/Second

  117.10        2950.00           2813         144.00       595.92
  117.35        2950.25           2816         154.00       639.51
  117.38        2950.50           2820         166.00       691.82
  117.42        2950.75           2823         146.00       604.63
  117.45        2951.00           2827         152.00       630.79
  117.49        2951.25           2830         151.00       626.43
  117.52        2951.50           2834         166.00       691.82
  117.55        2951.75           2837         146.00       604.63
  117.59        2952.00           2841         158.00       656.95
  117.62        2952.25           2845         150.00       622.07
  117.66        2952.50           2848         157.00       652.59
  117.69        2952.75           2852         160.00       665.67
  117.72        2953.00           2855         167.00       696.18
  117.76        2953.25           2859         163.00       678.74
  117.79        2953.50           2862         164.00       683.10
  117.82        2953.75           2866         180.00       752.86
  117.86        2954.00           2869         171.00       713.62
  117.89        2954.25           2873         191.00       800.81
  117.93        2954.50           2876         180.00       752.86
  117.96        2954.75           2880         180.00       752.86
  117.99        2955.00           2883         190.00       796.45
  118.02        2955.25           2887         186.00       779.01
  118.06        2955.50           2891         201.00       844.40
  118.09        2955.75           2894         205.00       861.84
  118.13        2956.00           2898         199.00       835.68
  118.16        2956.25           2901         209.00       879.28
  118.19        2956.50           2905         228.00       962.11
  118.23        2956.75           2908         220.00       927.23
  118.26        2957.00           2912         217.00       914.16
  118.30        2957.25           2915         219.00       922.87
  118.33        2957.50           2919         241.00      1018.78
  118.36        2957.75           2922         236.00       996.99
  118.40        2958.00           2926         237.00      1001.35
  118.43        2958.25           2930         250.00      1058.02
  118.47        2958.50           2933         305.00      1297.80
  118.50        2958.75           2937         276.00      1171.37
  118.53        2959.00           2940         271.00      1149.57
  118.57        2959.25           2944         282.00      1197.53
  118.60        2959.50           2947         285.00      1210.61
  118.63        2959.75           2951         306.00      1302.16
  118.67        2960.00           2954         298.00      1267.28
  118.70        2960.25           2958         307.00      1306.52
  118.73        2960.50           2961         304.00      1293.44
  118.77        2960.75           2965         341.00      1454.74
  118.80        2961.00           2968         370.00      1581.18
  118.83        2961.25           2972         571.00      2457.51
  118.87        2961.50           2976        1317.00      5710.48
  118.90        2961.75           2979        2265.00      9845.44
  118.94        2962.00           2983        4059.00     17674.03
  118.97        2962.25           2986        5496.00     23948.11
  119.00        2962.50           2990        7579.00     33048.02
  119.04        2962.75           2993        9407.00     41039.11
  119.07        2963.00           2997       11624.00     50737.23
  119.11        2963.25           3000       13328.00     58196.13
  119.14        2963.50           3004       15754.00     68822.74
  119.17        2963.75           3007       17807.00     77822.21
  119.21        2964.00           3011       20295.00     88736.81
  119.24        2964.25           3015       22691.00     99256.39
  119.28        2964.50           3018       24457.00    107015.40
  119.31        2964.75           3022       26979.00    118103.80
  119.34        2965.00           3025       28853.00    126349.30
  119.38        2965.25           3029       31433.00    137709.60
  119.41        2965.50           3032       32812.00    143785.70
  119.45        2965.75           3036       35371.00    155068.50
  119.48        2966.00           3039       36561.00    160318.50
  119.51        2966.25           3043       38656.00    169566.40
  119.54        2966.50           3046       38974.00    170970.70
  119.58        2966.75           3050       39515.00    173360.20
  119.61        2967.00           3054       39675.00    174066.90
  119.64        2967.25           3057       39684.00    174106.70
  119.68        2967.50           3061       39565.00    173581.00
  119.71        2967.75           3064       38306.00    168021.00
  119.75        2968.00           3068       37108.00    162732.50
  119.78        2968.25           3071       35752.00    156749.10
  119.81        2968.50           3075       33526.00    146932.70
  119.85        2968.75           3078       32104.00    140665.80
  119.88        2969.00           3082       29999.00    131394.20
  119.92        2969.25           3086       27521.00    120488.10
  119.95        2969.50           3089       25684.00    112409.00
  119.98        2969.75           3093       23200.00    101492.20
  120.02        2970.00           3096       21451.00     93811.15
  120.05        2970.25           3100       18954.00     82852.85
  120.09        2970.50           3103       17194.00     75134.44
  120.12        2970.75           3107       14524.00     63433.90
  120.15        2971.00           3110       12728.00     55569.27
  120.19        2971.25           3114       10276.00     44839.64
  120.22        2971.50           3117        8349.00     36413.47
  120.26        2971.75           3121        6062.00     26420.15
  120.29        2972.00           3125        3848.00     16753.03
  120.32        2972.25           3128        2345.00     10194.45
  120.36        2972.50           3132        1276.00      5531.68
  120.39        2972.75           3135         832.00      3595.52
  120.43        2973.00           3139         558.00      2400.83
  120.46        2973.25           3142         449.00      1925.60
  120.49        2973.50           3146         389.00      1664.01
  120.53        2973.75           3149         344.00      1467.82
  120.56        2974.00           3153         319.00      1358.83
  120.59        2974.25           3157         316.00      1345.75
  120.63        2974.50           3160         291.00      1236.76
  120.66        2974.75           3164         286.00      1214.96
  120.69        2975.00           3167         291.00      1236.76
  120.73        2975.25           3171         271.00      1149.57
  120.76        2975.50           3174         272.00      1153.93
  120.79        2975.75           3178         254.00      1075.46
  120.83        2976.00           3181         264.00      1119.05
  120.86        2976.25           3185         273.00      1158.29
  120.90        2976.50           3189         238.00      1005.71
  120.93        2976.75           3192         244.00      1031.86
  120.96        2977.00           3196         242.00      1023.14
  121.00        2977.25           3199         265.00      1123.41
  121.03        2977.50           3203         220.00       927.23
  121.07        2977.75           3206         214.00       901.08
  121.10        2978.00           3210         221.00       931.59
  121.13        2978.25           3213         214.00       901.08
  121.17        2978.50           3217         214.00       901.08
  121.20        2978.75           3221         226.00       953.39
  121.24        2979.00           3224         209.00       879.28
  121.27        2979.25           3228         198.00       831.33
  121.30        2979.50           3231         193.00       809.53
  121.34        2979.75           3235         201.00       844.40
  121.37        2980.00           3238         184.00       770.29
  121.41        2980.25           3242         190.00       796.45
  121.44        2980.50           3245         186.00       779.01
  121.47        2980.75           3249         170.00       709.26
  121.51        2981.00           3253         170.00       709.26
  121.54        2981.25           3256         174.00       726.70
  121.58        2981.50           3260         171.00       713.62
  121.61        2981.75           3263         170.00       709.26
  121.64        2982.00           3267         170.00       709.26
  121.68        2982.25           3270         164.00       683.10
  121.71        2982.50           3274         167.00       696.18
  121.75        2982.75           3277         167.00       696.18
  121.78        2983.00           3281         178.00       744.14
  121.81        2983.25           3285         154.00       639.51
  121.85        2983.50           3288         162.00       674.39
  121.88        2983.75           3292         168.00       700.54
  121.92        2984.00           3295         155.00       643.87
HS scan finished at 02:02:09
end
************************************************************
  HS Scan of (1) Internal mercury lamp
************************************************************
Integration time is 0.2294 seconds per sample
dh230619Arenosillo 37.1 6.73 3.27pr1000
************************************************************
Dead Time -------------------------  3.8E-08 
Number of Cycles Used -------------  4 
Starting Wavelength (Angstroms) ---  2950 
Final Wavelength (Angstoms) -------  2984 
Wavelength Increment (Angstroms) --  .25 
Filter Wheel #1 Position ---------- (1) Ground quartz diffuser (ND=2.32)
Filter Wheel #2 Position ---------- (1) Neutral Density 0.494



************************************************************
HS scan start time = 21:40:35
Dark Count =  8 


Time (GMT)  Wavelength (Ang)  Step Number  Raw Counts  Counts/Second

 1301.66        2950.00           2813         144.00       592.86
 1301.91        2950.25           2816         155.00       640.82
 1301.94        2950.50           2820         147.00       605.94
 1301.97        2950.75           2823         136.00       557.99
 1302.01        2951.00           2827         165.00       684.41
 1302.04        2951.25           2830         151.00       623.38
 1302.08        2951.50           2834         139.00       571.07
 1302.11        2951.75           2837         151.00       623.38
 1302.14        2952.00           2841         160.00       662.61
 1302.18        2952.25           2845         159.00       658.26
 1302.21        2952.50           2848         149.00       614.66
 1302.25        2952.75           2852         166.00       688.77
 1302.28        2953.00           2855         153.00       632.10
 1302.31        2953.25           2859         155.00       640.82
 1302.35        2953.50           2862         168.00       697.49
 1302.38        2953.75           2866         157.00       649.54
 1302.41        2954.00           2869         165.00       684.41
 1302.45        2954.25           2873         163.00       675.69
 1302.48        2954.50           2876         180.00       749.80
 1302.51        2954.75           2880         172.00       714.93
 1302.55        2955.00           2883         184.00       767.24
 1302.58        2955.25           2887         168.00       697.49
 1302.61        2955.50           2891         186.00       775.96
 1302.65        2955.75           2894         195.00       815.20
 1302.68        2956.00           2898         203.00       850.07
 1302.72        2956.25           2901         223.00       937.26
 1302.75        2956.50           2905         189.00       789.04
 1302.78        2956.75           2908         203.00       850.07
 1302.82        2957.00           2912         205.00       858.79
 1302.85        2957.25           2915         197.00       823.91
 1302.89        2957.50           2919         214.00       898.03
 1302.92        2957.75           2922         214.00       898.03
 1302.95        2958.00           2926         243.00      1024.45
 1302.99        2958.25           2930         238.00      1002.65
 1303.02        2958.50           2933         267.00      1129.08
 1303.06        2958.75           2937         249.00      1050.61
 1303.09        2959.00           2940         249.00      1050.61
 1303.12        2959.25           2944         260.00      1098.56
 1303.16        2959.50           2947         287.00      1216.27
 1303.19        2959.75           2951         271.00      1146.52
 1303.22        2960.00           2954         290.00      1229.35
 1303.26        2960.25           2958         302.00      1281.67
 1303.29        2960.50           2961         308.00      1307.82
 1303.33        2960.75           2965         303.00      1286.03
 1303.36        2961.00           2968         343.00      1460.41
 1303.40        2961.25           2972         526.00      2258.26
 1303.43        2961.50           2976        1149.00      4974.79
 1303.46        2961.75           2979        2101.00      9126.97
 1303.50        2962.00           2983        3656.00     15911.97
 1303.53        2962.25           2986        5033.00     21923.23
 1303.57        2962.50           2990        6998.00     30506.14
 1303.60        2962.75           2993        8648.00     37717.49
 1303.63        2963.00           2997       10706.00     46717.56
 1303.67        2963.25           3000       12299.00     53688.33
 1303.70        2963.50           3004       14645.00     63960.85
 1303.74        2963.75           3007       16384.00     71580.68
 1303.77        2964.00           3011       18796.00     82156.71
 1303.80        2964.25           3015       21186.00     92644.68
 1303.84        2964.50           3018       23140.00    101225.60
 1303.87        2964.75           3022       25338.00    110884.70
 1303.91        2965.00           3025       26989.00    118144.70
 1303.94        2965.25           3029       29119.00    127517.00
 1303.97        2965.50           3032       30600.00    134037.60
 1304.01        2965.75           3036       32737.00    143452.10
 1304.04        2966.00           3039       34017.00    149094.30
 1304.08        2966.25           3043       35718.00    156596.00
 1304.11        2966.50           3046       36648.00    160699.40
 1304.14        2966.75           3050       36654.00    160725.80
 1304.18        2967.00           3054       37050.00    162473.40
 1304.21        2967.25           3057       36737.00    161092.10
 1304.25        2967.50           3061       36486.00    159984.50
 1304.28        2967.75           3064       35894.00    157372.50
 1304.31        2968.00           3068       34357.00    150593.40
 1304.35        2968.25           3071       32997.00    144597.90
 1304.38        2968.50           3075       30847.00    135125.40
 1304.42        2968.75           3078       29152.00    127662.30
 1304.45        2969.00           3082       27199.00    119068.50
 1304.48        2969.25           3086       25066.00    109689.00
 1304.52        2969.50           3089       23266.00    101779.10
 1304.55        2969.75           3093       21148.00     92477.86
 1304.59        2970.00           3096       19485.00     85179.36
 1304.62        2970.25           3100       17134.00     74868.33
 1304.65        2970.50           3103       15448.00     67478.83
 1304.69        2970.75           3107       13141.00     57374.30
 1304.72        2971.00           3110       11461.00     50020.89
 1304.75        2971.25           3114        9222.00     40227.10
 1304.79        2971.50           3117        7419.00     32345.75
 1304.82        2971.75           3121        5135.00     22368.61
 1304.86        2972.00           3125        3165.00     13769.19
 1304.89        2972.25           3128        1938.00      8415.94
 1304.92        2972.50           3132        1032.00      4464.58
 1304.96        2972.75           3135         719.00      3099.76
 1304.99        2973.00           3139         486.00      2083.86
 1305.03        2973.25           3142         415.00      1774.31
 1305.06        2973.50           3146         323.00      1373.22
 1305.09        2973.75           3149         324.00      1377.58
 1305.13        2974.00           3153         301.00      1277.31
 1305.16        2974.25           3157         295.00      1251.15
 1305.19        2974.50           3160         290.00      1229.35
 1305.23        2974.75           3164         293.00      1242.43
 1305.26        2975.00           3167         274.00      1159.60
 1305.29        2975.25           3171         274.00      1159.60
 1305.33        2975.50           3174         253.00      1068.05
 1305.36        2975.75           3178         244.00      1028.81
 1305.40        2976.00           3181         250.00      1054.97
 1305.43        2976.25           3185         248.00      1046.25
 1305.46        2976.50           3189         231.00       972.14
 1305.50        2976.75           3192         231.00       972.14
 1305.53        2977.00           3196         218.00       915.46
 1305.57        2977.25           3199         233.00       980.86
 1305.60        2977.50           3203         213.00       893.67
 1305.63        2977.75           3206         212.00       889.31
 1305.67        2978.00           3210         198.00       828.27
 1305.70        2978.25           3213         204.00       854.43
 1305.74        2978.50           3217         189.00       789.04
 1305.77        2978.75           3221         192.00       802.12
 1305.80        2979.00           3224         181.00       754.16
 1305.84        2979.25           3228         189.00       789.04
 1305.87        2979.50           3231         180.00       749.80
 1305.91        2979.75           3235         186.00       775.96
 1305.94        2980.00           3238         171.00       710.57
 1305.97        2980.25           3242         170.00       706.21
 1306.01        2980.50           3245         175.00       728.01
 1306.04        2980.75           3249         176.00       732.37
 1306.08        2981.00           3253         165.00       684.41
 1306.11        2981.25           3256         153.00       632.10
 1306.14        2981.50           3260         177.00       736.73
 1306.18        2981.75           3263         165.00       684.41
 1306.21        2982.00           3267         157.00       649.54
 1306.24        2982.25           3270         167.00       693.13
 1306.28        2982.50           3274         146.00       601.58
 1306.31        2982.75           3277         160.00       662.61
 1306.35        2983.00           3281         147.00       605.94
 1306.38        2983.25           3285         149.00       614.66
 1306.42        2983.50           3288         149.00       614.66
 1306.45        2983.75           3292         162.00       671.33
 1306.48        2984.00           3295         145.00       597.22
HS scan finished at 21:46:43
end
