************************************************************
  HS Scan of (1) Internal mercury lamp
************************************************************
Integration time is 0.2294 seconds per sample
dh220619Arenosillo 37.1 6.73 3.29pr1000
************************************************************
Dead Time -------------------------  3.8E-08 
Number of Cycles Used -------------  4 
Starting Wavelength (Angstroms) ---  2950 
Final Wavelength (Angstoms) -------  2984 
Wavelength Increment (Angstroms) --  .25 
Filter Wheel #1 Position ---------- (1) Ground quartz diffuser (ND=2.32)
Filter Wheel #2 Position ---------- (1) Neutral Density 0.494



************************************************************
HS scan start time = 21:40:13
Dark Count =  8.399999 


Time (GMT)  Wavelength (Ang)  Step Number  Raw Counts  Counts/Second

 1301.29        2950.00           2813         157.00       647.79
 1301.54        2950.25           2816         155.00       639.07
 1301.57        2950.50           2820         148.00       608.56
 1301.61        2950.75           2823         144.00       591.12
 1301.64        2951.00           2827         141.00       578.04
 1301.67        2951.25           2830         142.00       582.40
 1301.71        2951.50           2834         142.00       582.40
 1301.74        2951.75           2837         139.00       569.32
 1301.77        2952.00           2841         145.00       595.48
 1301.81        2952.25           2845         149.00       612.92
 1301.84        2952.50           2848         160.00       660.87
 1301.88        2952.75           2852         172.00       713.18
 1301.91        2953.00           2855         160.00       660.87
 1301.94        2953.25           2859         160.00       660.87
 1301.98        2953.50           2862         164.00       678.31
 1302.01        2953.75           2866         179.00       743.70
 1302.05        2954.00           2869         165.00       682.67
 1302.08        2954.25           2873         173.00       717.54
 1302.11        2954.50           2876         177.00       734.98
 1302.15        2954.75           2880         185.00       769.86
 1302.18        2955.00           2883         180.00       748.06
 1302.22        2955.25           2887         180.00       748.06
 1302.25        2955.50           2891         197.00       822.17
 1302.28        2955.75           2894         190.00       791.65
 1302.32        2956.00           2898         203.00       848.33
 1302.35        2956.25           2901         199.00       830.89
 1302.39        2956.50           2905         209.00       874.48
 1302.42        2956.75           2908         205.00       857.05
 1302.45        2957.00           2912         214.00       896.28
 1302.49        2957.25           2915         229.00       961.67
 1302.52        2957.50           2919         218.00       913.72
 1302.56        2957.75           2922         248.00      1044.51
 1302.59        2958.00           2926         237.00       996.55
 1302.62        2958.25           2930         288.00      1218.89
 1302.65        2958.50           2933         265.00      1118.62
 1302.69        2958.75           2937         287.00      1214.53
 1302.72        2959.00           2940         255.00      1075.02
 1302.75        2959.25           2944         260.00      1096.82
 1302.79        2959.50           2947         285.00      1205.81
 1302.82        2959.75           2951         291.00      1231.97
 1302.86        2960.00           2954         283.00      1197.09
 1302.89        2960.25           2958         293.00      1240.69
 1302.92        2960.50           2961         309.00      1310.44
 1302.96        2960.75           2965         322.00      1367.12
 1302.99        2961.00           2968         363.00      1545.86
 1303.03        2961.25           2972         573.00      2461.43
 1303.06        2961.50           2976        1347.00      5836.52
 1303.09        2961.75           2979        2320.00     10080.58
 1303.13        2962.00           2983        3964.00     17254.56
 1303.16        2962.25           2986        5466.00     23812.30
 1303.20        2962.50           2990        7508.00     32732.93
 1303.23        2962.75           2993        8950.00     39036.07
 1303.26        2963.00           2997       10936.00     47722.03
 1303.30        2963.25           3000       12613.00     55061.03
 1303.33        2963.50           3004       15102.00     65961.13
 1303.37        2963.75           3007       16960.00     74103.76
 1303.40        2964.00           3011       19102.00     83497.28
 1303.43        2964.25           3015       21336.00     93301.44
 1303.46        2964.50           3018       23253.00    101720.20
 1303.50        2964.75           3022       25756.00    112720.70
 1303.53        2965.00           3025       27382.00    119871.70
 1303.57        2965.25           3029       29561.00    129461.00
 1303.60        2965.50           3032       31222.00    136775.30
 1303.63        2965.75           3036       33437.00    146535.60
 1303.67        2966.00           3039       34873.00    152867.10
 1303.70        2966.25           3043       36425.00    159713.60
 1303.73        2966.50           3046       37096.00    162674.70
 1303.77        2966.75           3050       37363.00    163853.20
 1303.80        2967.00           3054       37542.00    164643.30
 1303.84        2967.25           3057       37278.00    163478.00
 1303.87        2967.50           3061       37094.00    162665.90
 1303.91        2967.75           3064       36523.00    160146.00
 1303.94        2968.00           3068       34827.00    152664.30
 1303.97        2968.25           3071       33727.00    147814.00
 1304.01        2968.50           3075       31501.00    138004.30
 1304.04        2968.75           3078       29766.00    130363.50
 1304.07        2969.00           3082       27405.00    119972.90
 1304.11        2969.25           3086       25214.00    110337.90
 1304.14        2969.50           3089       23550.00    103025.00
 1304.18        2969.75           3093       21307.00     93174.12
 1304.21        2970.00           3096       19667.00     85976.16
 1304.24        2970.25           3100       17569.00     76773.79
 1304.28        2970.50           3103       15776.00     68914.31
 1304.31        2970.75           3107       13352.00     58296.40
 1304.35        2971.00           3110       11599.00     50623.01
 1304.38        2971.25           3114        9015.00     39320.26
 1304.41        2971.50           3117        7151.00     31172.92
 1304.45        2971.75           3121        4936.00     21497.94
 1304.48        2972.00           3125        2870.00     12480.20
 1304.52        2972.25           3128        1778.00      7716.30
 1304.55        2972.50           3132         954.00      4122.70
 1304.58        2972.75           3135         666.00      2866.92
 1304.62        2973.00           3139         471.00      2016.72
 1304.65        2973.25           3142         383.00      1633.06
 1304.69        2973.50           3146         327.00      1388.91
 1304.72        2973.75           3149         313.00      1327.88
 1304.75        2974.00           3153         309.00      1310.44
 1304.79        2974.25           3157         291.00      1231.97
 1304.82        2974.50           3160         278.00      1175.29
 1304.86        2974.75           3164         270.00      1140.42
 1304.89        2975.00           3167         279.00      1179.65
 1304.92        2975.25           3171         259.00      1092.46
 1304.96        2975.50           3174         281.00      1188.37
 1304.99        2975.75           3178         253.00      1066.30
 1305.03        2976.00           3181         246.00      1035.79
 1305.06        2976.25           3185         249.00      1048.86
 1305.10        2976.50           3189         225.00       944.24
 1305.13        2976.75           3192         258.00      1088.10
 1305.16        2977.00           3196         241.00      1013.99
 1305.20        2977.25           3199         227.00       952.96
 1305.23        2977.50           3203         224.00       939.88
 1305.26        2977.75           3206         202.00       843.97
 1305.30        2978.00           3210         206.00       861.41
 1305.33        2978.25           3213         195.00       813.45
 1305.37        2978.50           3217         209.00       874.48
 1305.40        2978.75           3221         199.00       830.89
 1305.43        2979.00           3224         198.00       826.53
 1305.47        2979.25           3228         200.00       835.25
 1305.50        2979.50           3231         185.00       769.86
 1305.54        2979.75           3235         188.00       782.94
 1305.57        2980.00           3238         184.00       765.50
 1305.61        2980.25           3242         171.00       708.82
 1305.64        2980.50           3245         181.00       752.42
 1305.67        2980.75           3249         159.00       656.51
 1305.71        2981.00           3253         170.00       704.47
 1305.74        2981.25           3256         169.00       700.11
 1305.77        2981.50           3260         157.00       647.79
 1305.81        2981.75           3263         164.00       678.31
 1305.84        2982.00           3267         165.00       682.67
 1305.87        2982.25           3270         156.00       643.43
 1305.91        2982.50           3274         158.00       652.15
 1305.94        2982.75           3277         153.00       630.36
 1305.97        2983.00           3281         158.00       652.15
 1306.01        2983.25           3285         152.00       626.00
 1306.04        2983.50           3288         160.00       660.87
 1306.07        2983.75           3292         155.00       639.07
 1306.11        2984.00           3295         134.00       547.53
HS scan finished at 21:46:20
end
