************************************************************
  HS Scan of (1) Internal mercury lamp
************************************************************
Integration time is 0.2294 seconds per sample
dh250619Arenosillo 37.1 6.73 3.31pr1000
************************************************************
Dead Time -------------------------  3.8E-08 
Number of Cycles Used -------------  4 
Starting Wavelength (Angstroms) ---  2950 
Final Wavelength (Angstoms) -------  2984 
Wavelength Increment (Angstroms) --  .25 
Filter Wheel #1 Position ---------- (1) Ground quartz diffuser (ND=2.32)
Filter Wheel #2 Position ---------- (1) Neutral Density 0.494



************************************************************
HS scan start time = 01:56:45
Dark Count =  9.600001 


Time (GMT)  Wavelength (Ang)  Step Number  Raw Counts  Counts/Second

  117.83        2950.00           2813         146.00       594.61
  118.08        2950.25           2816         141.00       572.81
  118.11        2950.50           2820         162.00       664.36
  118.14        2950.75           2823         164.00       673.08
  118.18        2951.00           2827         156.00       638.20
  118.21        2951.25           2830         144.00       585.89
  118.24        2951.50           2834         154.00       629.48
  118.28        2951.75           2837         148.00       603.33
  118.31        2952.00           2841         141.00       572.81
  118.35        2952.25           2845         151.00       616.40
  118.38        2952.50           2848         160.00       655.64
  118.41        2952.75           2852         151.00       616.40
  118.45        2953.00           2855         165.00       677.44
  118.48        2953.25           2859         169.00       694.87
  118.52        2953.50           2862         175.00       721.03
  118.55        2953.75           2866         176.00       725.39
  118.58        2954.00           2869         178.00       734.11
  118.62        2954.25           2873         171.00       703.59
  118.65        2954.50           2876         178.00       734.11
  118.69        2954.75           2880         176.00       725.39
  118.72        2955.00           2883         177.00       729.75
  118.75        2955.25           2887         196.00       812.58
  118.78        2955.50           2891         205.00       851.81
  118.82        2955.75           2894         188.00       777.70
  118.85        2956.00           2898         190.00       786.42
  118.88        2956.25           2901         210.00       873.61
  118.92        2956.50           2905         196.00       812.58
  118.95        2956.75           2908         227.00       947.72
  118.99        2957.00           2912         215.00       895.41
  119.02        2957.25           2915         227.00       947.72
  119.05        2957.50           2919         217.00       904.13
  119.09        2957.75           2922         224.00       934.65
  119.12        2958.00           2926         270.00      1135.18
  119.16        2958.25           2930         254.00      1065.43
  119.19        2958.50           2933         238.00       995.68
  119.22        2958.75           2937         234.00       978.24
  119.26        2959.00           2940         252.00      1056.71
  119.29        2959.25           2944         279.00      1174.42
  119.33        2959.50           2947         279.00      1174.42
  119.36        2959.75           2951         294.00      1239.81
  119.39        2960.00           2954         284.00      1196.22
  119.43        2960.25           2958         305.00      1287.77
  119.46        2960.50           2961         320.00      1353.16
  119.50        2960.75           2965         330.00      1396.76
  119.52        2961.00           2968         377.00      1601.67
  119.55        2961.25           2972         590.00      2530.32
  119.58        2961.50           2976        1367.00      5918.51
  119.61        2961.75           2979        2427.00     10542.15
  119.65        2962.00           2983        4342.00     18899.36
  119.68        2962.25           2986        5814.00     25326.89
  119.71        2962.50           2990        7934.00     34589.46
  119.75        2962.75           2993        9535.00     41588.78
  119.78        2963.00           2997       11721.00     51151.64
  119.81        2963.25           3000       13442.00     58685.22
  119.85        2963.50           3004       15609.00     68177.28
  119.88        2963.75           3007       17494.00     76439.68
  119.91        2964.00           3011       19781.00     86471.12
  119.95        2964.25           3015       22272.00     97406.08
  119.98        2964.50           3018       23882.00    104478.50
  120.02        2964.75           3022       26484.00    115916.60
  120.05        2965.00           3025       28171.00    123337.80
  120.08        2965.25           3029       30596.00    134012.90
  120.12        2965.50           3032       32036.00    140356.00
  120.15        2965.75           3036       34432.00    150917.10
  120.19        2966.00           3039       35878.00    157294.90
  120.22        2966.25           3043       37022.00    162342.80
  120.25        2966.50           3046       37564.00    164735.10
  120.28        2966.75           3050       37966.00    166509.70
  120.32        2967.00           3054       38016.00    166730.50
  120.35        2967.25           3057       37881.00    166134.50
  120.39        2967.50           3061       37477.00    164351.10
  120.42        2967.75           3064       36516.00    160109.80
  120.45        2968.00           3068       34903.00    152994.10
  120.49        2968.25           3071       33467.00    146662.50
  120.52        2968.50           3075       31598.00    138426.30
  120.56        2968.75           3078       29634.00    129777.10
  120.59        2969.00           3082       27300.00    119505.70
  120.62        2969.25           3086       25218.00    110350.20
  120.66        2969.50           3089       23508.00    102835.30
  120.69        2969.75           3093       21344.00     93331.30
  120.73        2970.00           3096       19500.00     85238.16
  120.76        2970.25           3100       17293.00     75558.40
  120.79        2970.50           3103       15532.00     67839.88
  120.83        2970.75           3107       13059.00     57008.29
  120.86        2971.00           3110       11381.00     49663.83
  120.90        2971.25           3114        8957.00     39061.43
  120.93        2971.50           3117        7064.00     30787.52
  120.96        2971.75           3121        4729.00     20588.90
  121.00        2972.00           3125        2723.00     11833.57
  121.03        2972.25           3128        1606.00      6960.86
  121.07        2972.50           3132         869.00      3746.83
  121.10        2972.75           3135         627.00      2691.64
  121.13        2973.00           3139         459.00      1959.17
  121.17        2973.25           3142         382.00      1623.47
  121.20        2973.50           3146         340.00      1440.36
  121.23        2973.75           3149         319.00      1348.80
  121.27        2974.00           3153         316.00      1335.73
  121.30        2974.25           3157         301.00      1270.33
  121.34        2974.50           3160         287.00      1209.30
  121.37        2974.75           3164         270.00      1135.18
  121.41        2975.00           3167         300.00      1265.97
  121.44        2975.25           3171         281.00      1183.14
  121.47        2975.50           3174         260.00      1091.59
  121.51        2975.75           3178         275.00      1156.98
  121.54        2976.00           3181         254.00      1065.43
  121.58        2976.25           3185         252.00      1056.71
  121.61        2976.50           3189         234.00       978.24
  121.64        2976.75           3192         232.00       969.52
  121.68        2977.00           3196         232.00       969.52
  121.71        2977.25           3199         210.00       873.61
  121.74        2977.50           3203         227.00       947.72
  121.78        2977.75           3206         216.00       899.77
  121.81        2978.00           3210         208.00       864.89
  121.85        2978.25           3213         196.00       812.58
  121.88        2978.50           3217         206.00       856.17
  121.92        2978.75           3221         200.00       830.02
  121.95        2979.00           3224         191.00       790.78
  121.98        2979.25           3228         197.00       816.94
  122.02        2979.50           3231         192.00       795.14
  122.05        2979.75           3235         189.00       782.06
  122.09        2980.00           3238         185.00       764.63
  122.12        2980.25           3242         177.00       729.75
  122.15        2980.50           3245         168.00       690.52
  122.18        2980.75           3249         182.00       751.55
  122.22        2981.00           3253         169.00       694.87
  122.25        2981.25           3256         163.00       668.72
  122.28        2981.50           3260         185.00       764.63
  122.32        2981.75           3263         164.00       673.08
  122.35        2982.00           3267         162.00       664.36
  122.39        2982.25           3270         162.00       664.36
  122.42        2982.50           3274         166.00       681.80
  122.45        2982.75           3277         151.00       616.40
  122.49        2983.00           3281         161.00       660.00
  122.52        2983.25           3285         155.00       633.84
  122.56        2983.50           3288         164.00       673.08
  122.59        2983.75           3292         152.00       620.76
  122.62        2984.00           3295         156.00       638.20
HS scan finished at 02:02:51
end
