************************************************************
  CZ Scan of (1) Internal mercury lamp
************************************************************
Integration time is 0.2294 seconds per sample
dh240517Madrid 40.45 3.17 3.13pr940
************************************************************
Dead Time -------------------------  3.5E-08 
Number of Cycles Used -------------  4 
Starting Wavelength (Angstroms) ---  2950 
Final Wavelength (Angstoms) -------  2984 
Wavelength Increment (Angstroms) --  .25 
Filter Wheel #1 Position ---------- (1) Ground quartz diffuser (ND=2.32)
Filter Wheel #2 Position ---------- (1) Neutral Density 0.494



************************************************************
CZ scan start time = 03:22:49
Dark Count =  .4 


Time (GMT)  Wavelength (Ang)  Step Number  Raw Counts  Counts/Second

  203.70        2950.00           1981         340.00      1480.46
  203.88        2950.25           1985         361.00      1572.01
  203.92        2950.50           1989         348.00      1515.34
  203.95        2950.75           1992         382.00      1663.57
  203.98        2951.00           1996         343.00      1493.54
  204.01        2951.25           1999         352.00      1532.78
  204.04        2951.50           2003         370.00      1611.25
  204.07        2951.75           2007         361.00      1572.01
  204.10        2952.00           2010         355.00      1545.86
  204.13        2952.25           2014         353.00      1537.14
  204.16        2952.50           2017         408.00      1776.92
  204.19        2952.75           2021         354.00      1541.50
  204.22        2953.00           2025         386.00      1681.01
  204.25        2953.25           2028         385.00      1676.65
  204.28        2953.50           2032         377.00      1641.77
  204.31        2953.75           2036         376.00      1637.41
  204.34        2954.00           2039         374.00      1628.69
  204.37        2954.25           2043         373.00      1624.33
  204.40        2954.50           2046         378.00      1646.13
  204.44        2954.75           2050         382.00      1663.57
  204.47        2955.00           2054         420.00      1829.24
  204.50        2955.25           2057         376.00      1637.41
  204.53        2955.50           2061         403.00      1755.12
  204.56        2955.75           2065         391.00      1702.80
  204.59        2956.00           2068         412.00      1794.36
  204.62        2956.25           2072         397.00      1728.96
  204.65        2956.50           2075         429.00      1868.47
  204.68        2956.75           2079         393.00      1711.52
  204.71        2957.00           2083         420.00      1829.24
  204.74        2957.25           2086         433.00      1885.91
  204.77        2957.50           2090         453.00      1973.11
  204.80        2957.75           2093         425.00      1851.04
  204.83        2958.00           2097         433.00      1885.91
  204.86        2958.25           2101         453.00      1973.11
  204.89        2958.50           2104         449.00      1955.67
  204.92        2958.75           2108         456.00      1986.19
  204.95        2959.00           2112         494.00      2151.86
  204.99        2959.25           2115         478.00      2082.10
  205.02        2959.50           2119         480.00      2090.82
  205.05        2959.75           2122         503.00      2191.10
  205.08        2960.00           2126         515.00      2243.42
  205.11        2960.25           2130         527.00      2295.74
  205.14        2960.50           2133         542.00      2361.14
  205.17        2960.75           2137         533.00      2321.90
  205.20        2961.00           2141         568.00      2474.50
  205.23        2961.25           2144         855.00      3725.86
  205.26        2961.50           2148        2822.00     12305.21
  205.29        2961.75           2151        6610.00     28841.66
  205.32        2962.00           2155       13758.00     60098.39
  205.35        2962.25           2159       22969.00    100477.40
  205.38        2962.50           2162       29971.00    131249.30
  205.41        2962.75           2166       39110.00    171513.00
  205.44        2963.00           2170       48723.00    213988.20
  205.47        2963.25           2173       53732.00    236170.80
  205.50        2963.50           2177       62425.00    274750.60
  205.54        2963.75           2180       69758.00    307376.30
  205.57        2964.00           2184       80225.00    354075.80
  205.60        2964.25           2188       89655.00    396280.60
  205.63        2964.50           2191       97249.00    430359.70
  205.66        2964.75           2195      106342.00    471273.80
  205.69        2965.00           2199      115131.00    510932.70
  205.72        2965.25           2202      122408.00    543853.30
  205.75        2965.50           2206      132452.00    589417.60
  205.78        2965.75           2209      138778.00    618190.90
  205.81        2966.00           2213      148339.00    661790.00
  205.84        2966.25           2217      157552.00    703929.90
  205.87        2966.50           2220      162969.00    728765.80
  205.90        2966.75           2224      166009.00    742722.80
  205.93        2967.00           2228      167209.00    748236.00
  205.96        2967.25           2231      166661.00    745718.00
  205.99        2967.50           2235      166898.00    746807.00
  206.02        2967.75           2238      166942.00    747009.10
  206.05        2968.00           2242      165569.00    740701.90
  206.09        2968.25           2246      161340.00    721292.50
  206.12        2968.50           2249      155394.00    694047.90
  206.15        2968.75           2253      146272.00    652352.80
  206.18        2969.00           2257      135837.00    604806.80
  206.21        2969.25           2260      128053.00    569443.60
  206.24        2969.50           2264      118499.00    526159.80
  206.27        2969.75           2267      111668.00    495293.20
  206.30        2970.00           2271      102092.00    452136.20
  206.33        2970.25           2275       92338.00    408311.50
  206.36        2970.50           2278       85363.00    377055.80
  206.39        2970.75           2282       75522.00    333073.90
  206.42        2971.00           2286       64975.00    286087.50
  206.45        2971.25           2289       57024.00    250768.50
  206.48        2971.50           2293       46883.00    205848.30
  206.51        2971.75           2296       39544.00    173427.90
  206.54        2972.00           2300       29334.00    128447.10
  206.57        2972.25           2304       20147.00     88094.21
  206.60        2972.50           2307       13530.00     59100.33
  206.64        2972.75           2311        6675.00     29125.58
  206.67        2973.00           2315        2738.00     11938.73
  206.70        2973.25           2318        1368.00      5962.88
  206.73        2973.50           2322         716.00      3119.78
  206.76        2973.75           2326         560.00      2439.62
  206.79        2974.00           2329         562.00      2448.34
  206.82        2974.25           2333         521.00      2269.58
  206.85        2974.50           2336         496.00      2160.58
  206.88        2974.75           2340         492.00      2143.14
  206.91        2975.00           2344         509.00      2217.26
  206.94        2975.25           2347         496.00      2160.58
  206.97        2975.50           2351         459.00      1999.27
  207.00        2975.75           2355         456.00      1986.19
  207.03        2976.00           2358         456.00      1986.19
  207.06        2976.25           2362         442.00      1925.15
  207.09        2976.50           2365         437.00      1903.35
  207.12        2976.75           2369         446.00      1942.59
  207.16        2977.00           2373         409.00      1781.28
  207.19        2977.25           2376         413.00      1798.72
  207.22        2977.50           2380         420.00      1829.24
  207.25        2977.75           2384         403.00      1755.12
  207.28        2978.00           2387         390.00      1698.44
  207.31        2978.25           2391         385.00      1676.65
  207.34        2978.50           2395         405.00      1763.84
  207.37        2978.75           2398         391.00      1702.80
  207.40        2979.00           2402         385.00      1676.65
  207.43        2979.25           2405         419.00      1824.88
  207.46        2979.50           2409         362.00      1576.37
  207.49        2979.75           2413         343.00      1493.54
  207.52        2980.00           2416         360.00      1567.65
  207.55        2980.25           2420         359.00      1563.29
  207.58        2980.50           2424         372.00      1619.97
  207.61        2980.75           2427         374.00      1628.69
  207.64        2981.00           2431         354.00      1541.50
  207.68        2981.25           2435         348.00      1515.34
  207.71        2981.50           2438         384.00      1672.29
  207.74        2981.75           2442         356.00      1550.22
  207.77        2982.00           2445         337.00      1467.38
  207.80        2982.25           2449         344.00      1497.90
  207.83        2982.50           2453         348.00      1515.34
  207.86        2982.75           2456         344.00      1497.90
  207.89        2983.00           2460         335.00      1458.66
  207.92        2983.25           2464         350.00      1524.06
  207.95        2983.50           2467         339.00      1476.10
  207.98        2983.75           2471         315.00      1371.47
  208.01        2984.00           2475         330.00      1436.86
CZ scan finished at 03:28:14
end
