************************************************************
  CZ Scan of (1) Internal mercury lamp
************************************************************
Integration time is 0.2294 seconds per sample
dh230517Madrid 40.45 3.17 3.13pr940
************************************************************
Dead Time -------------------------  3.5E-08 
Number of Cycles Used -------------  4 
Starting Wavelength (Angstroms) ---  2950 
Final Wavelength (Angstoms) -------  2984 
Wavelength Increment (Angstroms) --  .25 
Filter Wheel #1 Position ---------- (1) Ground quartz diffuser (ND=2.32)
Filter Wheel #2 Position ---------- (1) Neutral Density 0.494



************************************************************
CZ scan start time = 03:25:15
Dark Count =  .4 


Time (GMT)  Wavelength (Ang)  Step Number  Raw Counts  Counts/Second

  206.14        2950.00           1981         367.00      1598.17
  206.32        2950.25           1985         376.00      1637.41
  206.35        2950.50           1989         346.00      1506.62
  206.38        2950.75           1992         354.00      1541.50
  206.41        2951.00           1996         365.00      1589.45
  206.44        2951.25           1999         397.00      1728.96
  206.47        2951.50           2003         368.00      1602.53
  206.50        2951.75           2007         374.00      1628.69
  206.53        2952.00           2010         409.00      1781.28
  206.56        2952.25           2014         387.00      1685.37
  206.59        2952.50           2017         397.00      1728.96
  206.62        2952.75           2021         360.00      1567.65
  206.65        2953.00           2025         388.00      1689.73
  206.68        2953.25           2028         354.00      1541.50
  206.71        2953.50           2032         404.00      1759.48
  206.75        2953.75           2036         380.00      1654.85
  206.78        2954.00           2039         378.00      1646.13
  206.81        2954.25           2043         388.00      1689.73
  206.84        2954.50           2046         371.00      1615.61
  206.87        2954.75           2050         382.00      1663.57
  206.90        2955.00           2054         391.00      1702.80
  206.93        2955.25           2057         398.00      1733.32
  206.96        2955.50           2061         375.00      1633.05
  206.99        2955.75           2065         405.00      1763.84
  207.02        2956.00           2068         397.00      1728.96
  207.05        2956.25           2072         400.00      1742.04
  207.08        2956.50           2075         425.00      1851.04
  207.11        2956.75           2079         418.00      1820.52
  207.14        2957.00           2083         435.00      1894.63
  207.17        2957.25           2086         431.00      1877.19
  207.20        2957.50           2090         421.00      1833.60
  207.23        2957.75           2093         431.00      1877.19
  207.26        2958.00           2097         436.00      1898.99
  207.30        2958.25           2101         456.00      1986.19
  207.33        2958.50           2104         448.00      1951.31
  207.36        2958.75           2108         497.00      2164.94
  207.39        2959.00           2112         452.00      1968.75
  207.42        2959.25           2115         464.00      2021.07
  207.45        2959.50           2119         461.00      2007.99
  207.48        2959.75           2122         484.00      2108.26
  207.51        2960.00           2126         560.00      2439.62
  207.54        2960.25           2130         544.00      2369.86
  207.57        2960.50           2133         539.00      2348.06
  207.60        2960.75           2137         535.00      2330.62
  207.63        2961.00           2141         581.00      2531.17
  207.66        2961.25           2144         724.00      3154.66
  207.69        2961.50           2148        2115.00      9220.94
  207.72        2961.75           2151        5249.00     22898.03
  207.75        2962.00           2155       12023.00     52505.29
  207.78        2962.25           2159       20907.00     91428.10
  207.82        2962.50           2162       27400.00    119942.70
  207.85        2962.75           2166       36137.00    158402.40
  207.88        2963.00           2170       43966.00    192953.50
  207.91        2963.25           2173       47927.00    210466.20
  207.94        2963.50           2177       55049.00    242009.00
  207.97        2963.75           2180       62038.00    273030.90
  208.00        2964.00           2184       72182.00    318177.50
  208.03        2964.25           2188       81971.00    361880.70
  208.06        2964.50           2191       88928.00    393022.40
  208.09        2964.75           2195       98946.00    437986.40
  208.12        2965.00           2199      107708.00    477430.40
  208.15        2965.25           2202      115053.00    510580.20
  208.18        2965.50           2206      124788.00    554636.80
  208.21        2965.75           2209      131865.00    586750.70
  208.24        2966.00           2213      140943.00    628051.80
  208.27        2966.25           2217      150334.00    670904.30
  208.30        2966.50           2220      156996.00    701383.10
  208.33        2966.75           2224      164310.00    734920.80
  208.36        2967.00           2228      167319.00    748741.50
  208.40        2967.25           2231      167752.00    750731.50
  208.43        2967.50           2235      168038.00    752045.90
  208.46        2967.75           2238      167217.00    748272.80
  208.49        2968.00           2242      167907.00    751443.80
  208.52        2968.25           2246      164974.00    737969.50
  208.55        2968.50           2249      160969.00    719591.10
  208.58        2968.75           2253      153652.00    686076.10
  208.61        2969.00           2257      145969.00    650970.00
  208.64        2969.25           2260      138876.00    618637.10
  208.67        2969.50           2264      129062.00    574022.60
  208.70        2969.75           2267      121542.00    539931.60
  208.73        2970.00           2271      111299.00    493627.80
  208.76        2970.25           2275      101839.00    450997.70
  208.79        2970.50           2278       94839.00    419535.60
  208.82        2970.75           2282       84836.00    374697.00
  208.85        2971.00           2286       75142.00    331378.40
  208.88        2971.25           2289       67597.00    297753.90
  208.92        2971.50           2293       57717.00    253843.40
  208.95        2971.75           2296       49888.00    219144.40
  208.98        2972.00           2300       38605.00    169285.20
  209.01        2972.25           2304       26943.00    117933.90
  209.04        2972.50           2307       19283.00     84305.06
  209.07        2972.75           2311       10444.00     45598.43
  209.10        2973.00           2315        4331.00     18890.43
  209.13        2973.25           2318        2102.00      9164.23
  209.16        2973.50           2322         960.00      4183.70
  209.19        2973.75           2326         654.00      2849.46
  209.22        2974.00           2329         547.00      2382.94
  209.25        2974.25           2333         538.00      2343.70
  209.28        2974.50           2336         522.00      2273.94
  209.31        2974.75           2340         515.00      2243.42
  209.34        2975.00           2344         497.00      2164.94
  209.37        2975.25           2347         498.00      2169.30
  209.40        2975.50           2351         469.00      2042.87
  209.43        2975.75           2355         455.00      1981.83
  209.47        2976.00           2358         470.00      2047.23
  209.50        2976.25           2362         441.00      1920.79
  209.53        2976.50           2365         456.00      1986.19
  209.56        2976.75           2369         437.00      1903.35
  209.59        2977.00           2373         412.00      1794.36
  209.62        2977.25           2376         396.00      1724.60
  209.65        2977.50           2380         393.00      1711.52
  209.68        2977.75           2384         417.00      1816.16
  209.71        2978.00           2387         390.00      1698.44
  209.74        2978.25           2391         393.00      1711.52
  209.77        2978.50           2395         398.00      1733.32
  209.80        2978.75           2398         380.00      1654.85
  209.83        2979.00           2402         367.00      1598.17
  209.86        2979.25           2405         389.00      1694.08
  209.89        2979.50           2409         387.00      1685.37
  209.92        2979.75           2413         361.00      1572.01
  209.95        2980.00           2416         382.00      1663.57
  209.99        2980.25           2420         381.00      1659.21
  210.02        2980.50           2424         399.00      1737.68
  210.05        2980.75           2427         365.00      1589.45
  210.08        2981.00           2431         374.00      1628.69
  210.11        2981.25           2435         379.00      1650.49
  210.14        2981.50           2438         348.00      1515.34
  210.17        2981.75           2442         356.00      1550.22
  210.20        2982.00           2445         358.00      1558.93
  210.23        2982.25           2449         344.00      1497.90
  210.26        2982.50           2453         382.00      1663.57
  210.29        2982.75           2456         328.00      1428.14
  210.32        2983.00           2460         349.00      1519.70
  210.35        2983.25           2464         329.00      1432.50
  210.38        2983.50           2467         332.00      1445.58
  210.41        2983.75           2471         352.00      1532.78
  210.44        2984.00           2475         339.00      1476.10
CZ scan finished at 03:30:40
end
