************************************************************
  HS Scan of (1) Internal mercury lamp
************************************************************
Integration time is 0.2294 seconds per sample
dh290517Arenosillo 37.1 6.73 3.35pr1000
************************************************************
Dead Time -------------------------  3.5E-08 
Number of Cycles Used -------------  4 
Starting Wavelength (Angstroms) ---  2950 
Final Wavelength (Angstoms) -------  2984 
Wavelength Increment (Angstroms) --  .25 
Filter Wheel #1 Position ---------- (1) Ground quartz diffuser (ND=2.32)
Filter Wheel #2 Position ---------- (1) Neutral Density 0.494



************************************************************
HS scan start time = 22:34:10
Dark Count =  .3 


Time (GMT)  Wavelength (Ang)  Step Number  Raw Counts  Counts/Second

 1355.06        2950.00           1981         340.00      1480.90
 1355.24        2950.25           1985         326.00      1419.86
 1355.27        2950.50           1989         332.00      1446.02
 1355.30        2950.75           1992         329.00      1432.94
 1355.33        2951.00           1996         330.00      1437.30
 1355.36        2951.25           1999         333.00      1450.38
 1355.39        2951.50           2003         325.00      1415.50
 1355.42        2951.75           2007         330.00      1437.30
 1355.45        2952.00           2010         327.00      1424.22
 1355.48        2952.25           2014         330.00      1437.30
 1355.51        2952.50           2017         356.00      1550.65
 1355.55        2952.75           2021         340.00      1480.90
 1355.58        2953.00           2025         335.00      1459.10
 1355.61        2953.25           2028         345.00      1502.69
 1355.64        2953.50           2032         340.00      1480.90
 1355.67        2953.75           2036         372.00      1620.41
 1355.70        2954.00           2039         402.00      1751.20
 1355.73        2954.25           2043         372.00      1620.41
 1355.76        2954.50           2046         359.00      1563.73
 1355.79        2954.75           2050         358.00      1559.37
 1355.82        2955.00           2054         370.00      1611.69
 1355.85        2955.25           2057         360.00      1568.09
 1355.88        2955.50           2061         364.00      1585.53
 1355.91        2955.75           2065         387.00      1685.80
 1355.94        2956.00           2068         359.00      1563.73
 1355.97        2956.25           2072         390.00      1698.88
 1356.00        2956.50           2075         389.00      1694.52
 1356.03        2956.75           2079         399.00      1738.12
 1356.07        2957.00           2083         371.00      1616.05
 1356.10        2957.25           2086         418.00      1820.95
 1356.13        2957.50           2090         396.00      1725.04
 1356.16        2957.75           2093         404.00      1759.92
 1356.19        2958.00           2097         413.00      1799.15
 1356.22        2958.25           2101         425.00      1851.47
 1356.25        2958.50           2104         437.00      1903.79
 1356.28        2958.75           2108         435.00      1895.07
 1356.31        2959.00           2112         430.00      1873.27
 1356.34        2959.25           2115         447.00      1947.39
 1356.37        2959.50           2119         458.00      1995.34
 1356.40        2959.75           2122         492.00      2143.58
 1356.43        2960.00           2126         485.00      2113.06
 1356.46        2960.25           2130         521.00      2270.02
 1356.49        2960.50           2133         511.00      2226.42
 1356.52        2960.75           2137         552.00      2405.17
 1356.55        2961.00           2141         909.00      3961.75
 1356.58        2961.25           2144        2119.00      9238.82
 1356.61        2961.50           2148        5928.00     25863.42
 1356.65        2961.75           2151       11529.00     50344.52
 1356.68        2962.00           2155       19556.00     85502.66
 1356.71        2962.25           2159       28337.00    124062.80
 1356.74        2962.50           2162       35492.00    155560.00
 1356.77        2962.75           2166       43674.00    191663.70
 1356.80        2963.00           2170       51331.00    225534.00
 1356.83        2963.25           2173       56680.00    249242.90
 1356.86        2963.50           2177       64305.00    283108.30
 1356.89        2963.75           2180       71015.00    312976.90
 1356.92        2964.00           2184       80029.00    353200.40
 1356.95        2964.25           2188       89809.00    396971.30
 1356.98        2964.50           2191       96226.00    425764.50
 1357.01        2964.75           2195      104929.00    464908.70
 1357.04        2965.00           2199      114289.00    507129.00
 1357.07        2965.25           2202      121133.00    538080.20
 1357.10        2965.50           2206      130232.00    579334.60
 1357.13        2965.75           2209      137034.00    610253.10
 1357.16        2966.00           2213      145412.00    648428.80
 1357.20        2966.25           2217      154266.00    688885.90
 1357.23        2966.50           2220      158976.00    710454.80
 1357.26        2966.75           2224      161962.00    724146.00
 1357.29        2967.00           2228      162815.00    728059.60
 1357.32        2967.25           2231      163010.00    728954.50
 1357.35        2967.50           2235      163316.00    730358.70
 1357.38        2967.75           2238      162752.00    727770.50
 1357.41        2968.00           2242      160871.00    719142.20
 1357.44        2968.25           2246      156618.00    699652.50
 1357.47        2968.50           2249      151263.00    675151.10
 1357.50        2968.75           2253      143183.00    638261.90
 1357.53        2969.00           2257      134051.00    596685.50
 1357.56        2969.25           2260      126364.00    561782.50
 1357.59        2969.50           2264      117171.00    520154.30
 1357.62        2969.75           2267      110578.00    490374.70
 1357.65        2970.00           2271      101982.00    451641.60
 1357.68        2970.25           2275       92998.00    411273.10
 1357.71        2970.50           2278       85639.00    378291.70
 1357.75        2970.75           2282       75552.00    333208.30
 1357.78        2971.00           2286       65980.00    290558.50
 1357.81        2971.25           2289       57965.00    254944.40
 1357.84        2971.50           2293       46382.00    203633.20
 1357.87        2971.75           2296       37775.00    165624.70
 1357.90        2972.00           2300       28207.00    123491.20
 1357.93        2972.25           2304       18349.00     80210.49
 1357.96        2972.50           2307       11526.00     50331.39
 1357.99        2972.75           2311        5686.00     24806.62
 1358.02        2973.00           2315        2328.00     10150.51
 1358.05        2973.25           2318        1148.00      5003.93
 1358.08        2973.50           2322         645.00      2810.65
 1358.11        2973.75           2326         524.00      2283.09
 1358.14        2974.00           2329         560.00      2440.05
 1358.17        2974.25           2333         502.00      2187.18
 1358.20        2974.50           2336         471.00      2052.02
 1358.23        2974.75           2340         470.00      2047.66
 1358.27        2975.00           2344         450.00      1960.47
 1358.30        2975.25           2347         453.00      1973.55
 1358.33        2975.50           2351         426.00      1855.83
 1358.36        2975.75           2355         421.00      1834.03
 1358.39        2976.00           2358         416.00      1812.23
 1358.42        2976.25           2362         426.00      1855.83
 1358.45        2976.50           2365         420.00      1829.67
 1358.48        2976.75           2369         395.00      1720.68
 1358.51        2977.00           2373         402.00      1751.20
 1358.54        2977.25           2376         389.00      1694.52
 1358.57        2977.50           2380         424.00      1847.11
 1358.60        2977.75           2384         376.00      1637.84
 1358.63        2978.00           2387         389.00      1694.52
 1358.66        2978.25           2391         394.00      1716.32
 1358.69        2978.50           2395         418.00      1820.95
 1358.72        2978.75           2398         366.00      1594.25
 1358.75        2979.00           2402         332.00      1446.02
 1358.78        2979.25           2405         390.00      1698.88
 1358.82        2979.50           2409         345.00      1502.69
 1358.85        2979.75           2413         347.00      1511.41
 1358.88        2980.00           2416         336.00      1463.46
 1358.91        2980.25           2420         348.00      1515.77
 1358.94        2980.50           2424         324.00      1411.14
 1358.97        2980.75           2427         340.00      1480.90
 1359.00        2981.00           2431         363.00      1581.17
 1359.03        2981.25           2435         351.00      1528.85
 1359.06        2981.50           2438         315.00      1371.91
 1359.09        2981.75           2442         330.00      1437.30
 1359.12        2982.00           2445         330.00      1437.30
 1359.15        2982.25           2449         326.00      1419.86
 1359.18        2982.50           2453         326.00      1419.86
 1359.21        2982.75           2456         300.00      1306.51
 1359.24        2983.00           2460         306.00      1332.67
 1359.27        2983.25           2464         313.00      1363.19
 1359.30        2983.50           2467         322.00      1402.42
 1359.33        2983.75           2471         302.00      1315.23
 1359.37        2984.00           2475         303.00      1319.59
HS scan finished at 22:39:36
end
