************************************************************
  HS Scan of (1) Internal mercury lamp
************************************************************
Integration time is 0.2294 seconds per sample
dh040617Arenosillo 37.1 6.73 3.07pr1000
************************************************************
Dead Time -------------------------  3.5E-08 
Number of Cycles Used -------------  4 
Starting Wavelength (Angstroms) ---  2950 
Final Wavelength (Angstoms) -------  2984 
Wavelength Increment (Angstroms) --  .25 
Filter Wheel #1 Position ---------- (1) Ground quartz diffuser (ND=2.32)
Filter Wheel #2 Position ---------- (1) Neutral Density 0.494



************************************************************
HS scan start time = 01:58:15
Dark Count =  .7 


Time (GMT)  Wavelength (Ang)  Step Number  Raw Counts  Counts/Second

  119.13        2950.00           1981         339.00      1474.79
  119.31        2950.25           1985         353.00      1535.83
  119.34        2950.50           1989         353.00      1535.83
  119.37        2950.75           1992         373.00      1623.02
  119.40        2951.00           1996         359.00      1561.99
  119.43        2951.25           1999         352.00      1531.47
  119.46        2951.50           2003         364.00      1583.78
  119.49        2951.75           2007         365.00      1588.14
  119.53        2952.00           2010         374.00      1627.38
  119.56        2952.25           2014         361.00      1570.71
  119.59        2952.50           2017         357.00      1553.27
  119.62        2952.75           2021         391.00      1701.50
  119.65        2953.00           2025         425.00      1849.73
  119.68        2953.25           2028         385.00      1675.34
  119.71        2953.50           2032         390.00      1697.14
  119.74        2953.75           2036         366.00      1592.50
  119.77        2954.00           2039         355.00      1544.55
  119.80        2954.25           2043         383.00      1666.62
  119.83        2954.50           2046         358.00      1557.63
  119.86        2954.75           2050         405.00      1762.53
  119.89        2955.00           2054         396.00      1723.29
  119.92        2955.25           2057         378.00      1644.82
  119.95        2955.50           2061         388.00      1688.42
  119.98        2955.75           2065         374.00      1627.38
  120.01        2956.00           2068         372.00      1618.66
  120.05        2956.25           2072         420.00      1827.93
  120.08        2956.50           2075         411.00      1788.69
  120.11        2956.75           2079         429.00      1867.17
  120.14        2957.00           2083         424.00      1845.37
  120.17        2957.25           2086         408.00      1775.61
  120.20        2957.50           2090         428.00      1862.81
  120.23        2957.75           2093         425.00      1849.73
  120.26        2958.00           2097         432.00      1880.25
  120.29        2958.25           2101         426.00      1854.09
  120.32        2958.50           2104         435.00      1893.33
  120.35        2958.75           2108         426.00      1854.09
  120.38        2959.00           2112         455.00      1980.52
  120.41        2959.25           2115         461.00      2006.68
  120.44        2959.50           2119         492.00      2141.83
  120.47        2959.75           2122         469.00      2041.56
  120.50        2960.00           2126         474.00      2063.36
  120.53        2960.25           2130         510.00      2220.31
  120.57        2960.50           2133         526.00      2290.07
  120.59        2960.75           2137         537.00      2338.03
  120.63        2961.00           2141         618.00      2691.19
  120.66        2961.25           2144         885.00      3855.36
  120.69        2961.50           2148        2260.00      9852.13
  120.72        2961.75           2151        4794.00     20910.24
  120.75        2962.00           2155       10982.00     47950.07
  120.78        2962.25           2159       18990.00     83019.00
  120.81        2962.50           2162       25066.00    109684.90
  120.84        2962.75           2166       32769.00    143563.10
  120.87        2963.00           2170       40571.00    177959.00
  120.90        2963.25           2173       46484.00    204082.40
  120.93        2963.50           2177       54395.00    239108.20
  120.96        2963.75           2180       61110.00    268906.50
  120.99        2964.00           2184       69507.00    306257.00
  121.02        2964.25           2188       77076.00    340008.70
  121.05        2964.50           2191       82252.00    363135.90
  121.08        2964.75           2195       89827.00    397050.20
  121.11        2965.00           2199       97636.00    432097.20
  121.15        2965.25           2202      103170.00    456986.60
  121.18        2965.50           2206      110824.00    491482.80
  121.21        2965.75           2209      116497.00    517105.20
  121.24        2966.00           2213      123898.00    550602.00
  121.27        2966.25           2217      131429.00    584768.80
  121.30        2966.50           2220      136378.00    607266.50
  121.33        2966.75           2224      139987.00    623695.30
  121.36        2967.00           2228      141656.00    631299.40
  121.39        2967.25           2231      141591.00    631003.10
  121.42        2967.50           2235      141990.00    632821.60
  121.45        2967.75           2238      141353.00    629918.60
  121.48        2968.00           2242      140317.00    625198.50
  121.51        2968.25           2246      136425.00    607480.30
  121.54        2968.50           2249      131919.00    586994.60
  121.57        2968.75           2253      125074.00    555931.80
  121.60        2969.00           2257      116985.00    519311.50
  121.63        2969.25           2260      110845.00    491577.70
  121.66        2969.50           2264      102288.00    453016.80
  121.70        2969.75           2267       96542.00    427182.10
  121.72        2970.00           2271       87609.00    387111.50
  121.76        2970.25           2275       78986.00    348538.50
  121.79        2970.50           2278       72750.00    320708.40
  121.82        2970.75           2282       64325.00    283195.50
  121.85        2971.00           2286       56443.00    248189.80
  121.88        2971.25           2289       50774.00    223065.70
  121.91        2971.50           2293       43104.00    189143.80
  121.94        2971.75           2296       37220.00    163175.60
  121.97        2972.00           2300       29269.00    128159.90
  122.00        2972.25           2304       20204.00     88342.92
  122.03        2972.50           2307       12993.00     56748.61
  122.06        2972.75           2311        5597.00     24416.24
  122.09        2973.00           2315        2208.00      9625.30
  122.12        2973.25           2318        1000.00      4356.81
  122.15        2973.50           2322         573.00      2494.99
  122.18        2973.75           2326         515.00      2242.11
  122.21        2974.00           2329         517.00      2250.83
  122.24        2974.25           2333         472.00      2054.64
  122.28        2974.50           2336         470.00      2045.92
  122.31        2974.75           2340         436.00      1897.68
  122.34        2975.00           2344         434.00      1888.97
  122.37        2975.25           2347         434.00      1888.97
  122.40        2975.50           2351         414.00      1801.77
  122.43        2975.75           2355         402.00      1749.45
  122.46        2976.00           2358         399.00      1736.37
  122.49        2976.25           2362         401.00      1745.09
  122.52        2976.50           2365         417.00      1814.85
  122.55        2976.75           2369         399.00      1736.37
  122.58        2977.00           2373         395.00      1718.94
  122.61        2977.25           2376         414.00      1801.77
  122.64        2977.50           2380         376.00      1636.10
  122.67        2977.75           2384         403.00      1753.81
  122.70        2978.00           2387         375.00      1631.74
  122.73        2978.25           2391         393.00      1710.22
  122.76        2978.50           2395         392.00      1705.86
  122.80        2978.75           2398         351.00      1527.11
  122.83        2979.00           2402         334.00      1452.99
  122.86        2979.25           2405         381.00      1657.90
  122.89        2979.50           2409         346.00      1505.31
  122.92        2979.75           2413         346.00      1505.31
  122.95        2980.00           2416         351.00      1527.11
  122.98        2980.25           2420         332.00      1444.28
  123.01        2980.50           2424         333.00      1448.63
  123.04        2980.75           2427         339.00      1474.79
  123.07        2981.00           2431         354.00      1540.19
  123.10        2981.25           2435         337.00      1466.07
  123.13        2981.50           2438         339.00      1474.79
  123.16        2981.75           2442         310.00      1348.36
  123.19        2982.00           2445         321.00      1396.32
  123.22        2982.25           2449         317.00      1378.88
  123.25        2982.50           2453         309.00      1344.00
  123.28        2982.75           2456         324.00      1409.40
  123.31        2983.00           2460         320.00      1391.96
  123.35        2983.25           2464         312.00      1357.08
  123.38        2983.50           2467         320.00      1391.96
  123.41        2983.75           2471         319.00      1387.60
  123.44        2984.00           2475         315.00      1370.16
HS scan finished at 02:03:40
end
