************************************************************
  HS Scan of (1) Internal mercury lamp
************************************************************
Integration time is 0.2294 seconds per sample
dh300517Arenosillo 37.1 6.73 3.23pr1000
************************************************************
Dead Time -------------------------  3.5E-08 
Number of Cycles Used -------------  4 
Starting Wavelength (Angstroms) ---  2950 
Final Wavelength (Angstoms) -------  2984 
Wavelength Increment (Angstroms) --  .25 
Filter Wheel #1 Position ---------- (1) Ground quartz diffuser (ND=2.32)
Filter Wheel #2 Position ---------- (1) Neutral Density 0.494



************************************************************
HS scan start time = 02:11:51
Dark Count =  .2 


Time (GMT)  Wavelength (Ang)  Step Number  Raw Counts  Counts/Second

  132.73        2950.00           1981         343.00      1494.41
  132.91        2950.25           1985         370.00      1612.12
  132.94        2950.50           1989         353.00      1538.01
  132.97        2950.75           1992         348.00      1516.21
  133.00        2951.00           1996         352.00      1533.65
  133.03        2951.25           1999         390.00      1699.32
  133.06        2951.50           2003         348.00      1516.21
  133.09        2951.75           2007         380.00      1655.72
  133.12        2952.00           2010         352.00      1533.65
  133.15        2952.25           2014         358.00      1559.81
  133.18        2952.50           2017         392.00      1708.04
  133.21        2952.75           2021         422.00      1838.83
  133.24        2953.00           2025         363.00      1581.60
  133.28        2953.25           2028         395.00      1721.12
  133.31        2953.50           2032         376.00      1638.28
  133.34        2953.75           2036         373.00      1625.20
  133.37        2954.00           2039         371.00      1616.48
  133.40        2954.25           2043         364.00      1585.96
  133.43        2954.50           2046         391.00      1703.68
  133.46        2954.75           2050         411.00      1790.87
  133.49        2955.00           2054         387.00      1686.24
  133.52        2955.25           2057         398.00      1734.19
  133.55        2955.50           2061         394.00      1716.76
  133.58        2955.75           2065         403.00      1755.99
  133.61        2956.00           2068         385.00      1677.52
  133.64        2956.25           2072         393.00      1712.40
  133.67        2956.50           2075         386.00      1681.88
  133.70        2956.75           2079         425.00      1851.91
  133.73        2957.00           2083         399.00      1738.55
  133.76        2957.25           2086         424.00      1847.55
  133.80        2957.50           2090         432.00      1882.43
  133.83        2957.75           2093         447.00      1947.82
  133.86        2958.00           2097         434.00      1891.15
  133.89        2958.25           2101         444.00      1934.74
  133.92        2958.50           2104         439.00      1912.94
  133.95        2958.75           2108         473.00      2061.18
  133.98        2959.00           2112         467.00      2035.02
  134.01        2959.25           2115         487.00      2122.22
  134.04        2959.50           2119         488.00      2126.58
  134.07        2959.75           2122         495.00      2157.09
  134.10        2960.00           2126         521.00      2270.45
  134.13        2960.25           2130         532.00      2318.41
  134.16        2960.50           2133         537.00      2340.21
  134.19        2960.75           2137         584.00      2545.13
  134.22        2961.00           2141         809.00      3526.15
  134.25        2961.25           2144        1757.00      7660.29
  134.28        2961.50           2148        5580.00     24344.19
  134.31        2961.75           2151       10621.00     46373.37
  134.34        2962.00           2155       19483.00     85182.97
  134.38        2962.25           2159       29172.00    127735.50
  134.41        2962.50           2162       36218.00    158760.30
  134.44        2962.75           2166       44936.00    197241.00
  134.47        2963.00           2170       53404.00    234718.10
  134.50        2963.25           2173       59098.00    259973.80
  134.53        2963.50           2177       67484.00    297251.80
  134.56        2963.75           2180       75417.00    332606.20
  134.59        2964.00           2184       85442.00    377410.30
  134.62        2964.25           2188       96663.00    427727.90
  134.65        2964.50           2191      104113.00    461234.40
  134.68        2964.75           2195      113700.00    504468.90
  134.71        2965.00           2199      122601.00    544728.30
  134.74        2965.25           2202      130179.00    579094.30
  134.77        2965.50           2206      141245.00    629428.80
  134.80        2965.75           2209      147419.00    657589.80
  134.83        2966.00           2213      156112.00    697336.00
  134.86        2966.25           2217      163473.00    731079.80
  134.90        2966.50           2220      167316.00    748728.60
  134.93        2966.75           2224      169435.00    758469.60
  134.96        2967.00           2228      169626.00    759348.00
  134.99        2967.25           2231      169953.00    760851.80
  135.02        2967.50           2235      169988.00    761012.80
  135.05        2967.75           2238      168823.00    755655.50
  135.08        2968.00           2242      165655.00    741097.80
  135.11        2968.25           2246      158998.00    710556.10
  135.14        2968.50           2249      152490.00    680761.80
  135.17        2968.75           2253      142946.00    637181.80
  135.20        2969.00           2257      132800.00    590999.90
  135.23        2969.25           2260      125259.00    556772.70
  135.26        2969.50           2264      115114.00    510856.80
  135.29        2969.75           2267      107375.00    475930.20
  135.32        2970.00           2271       97912.00    433339.80
  135.35        2970.25           2275       88274.00    390092.80
  135.38        2970.50           2278       80609.00    355792.80
  135.41        2970.75           2282       70806.00    312046.00
  135.44        2971.00           2286       60090.00    264378.40
  135.48        2971.25           2289       51947.00    228262.80
  135.51        2971.50           2293       41113.00    180353.70
  135.54        2971.75           2296       33271.00    145775.90
  135.57        2972.00           2300       23832.00    104267.40
  135.60        2972.25           2304       14620.00     63873.24
  135.63        2972.50           2307        8762.00     38245.58
  135.66        2972.75           2311        4091.00     17843.75
  135.69        2973.00           2315        1471.00      6412.95
  135.72        2973.25           2318         808.00      3521.79
  135.75        2973.50           2322         578.00      2518.97
  135.78        2973.75           2326         554.00      2414.33
  135.81        2974.00           2329         533.00      2322.77
  135.84        2974.25           2333         523.00      2279.17
  135.87        2974.50           2336         500.00      2178.89
  135.90        2974.75           2340         471.00      2052.46
  135.93        2975.00           2344         468.00      2039.38
  135.96        2975.25           2347         459.00      2000.14
  136.00        2975.50           2351         453.00      1973.98
  136.03        2975.75           2355         447.00      1947.82
  136.06        2976.00           2358         465.00      2026.30
  136.09        2976.25           2362         456.00      1987.06
  136.12        2976.50           2365         419.00      1825.75
  136.15        2976.75           2369         415.00      1808.31
  136.18        2977.00           2373         438.00      1908.58
  136.21        2977.25           2376         391.00      1703.68
  136.24        2977.50           2380         417.00      1817.03
  136.27        2977.75           2384         400.00      1742.91
  136.30        2978.00           2387         406.00      1769.07
  136.33        2978.25           2391         388.00      1690.60
  136.36        2978.50           2395         376.00      1638.28
  136.39        2978.75           2398         381.00      1660.08
  136.42        2979.00           2402         366.00      1594.68
  136.45        2979.25           2405         374.00      1629.56
  136.48        2979.50           2409         367.00      1599.04
  136.51        2979.75           2413         390.00      1699.32
  136.55        2980.00           2416         363.00      1581.60
  136.58        2980.25           2420         369.00      1607.76
  136.61        2980.50           2424         353.00      1538.01
  136.64        2980.75           2427         334.00      1455.17
  136.67        2981.00           2431         384.00      1673.16
  136.70        2981.25           2435         342.00      1490.05
  136.73        2981.50           2438         349.00      1520.57
  136.76        2981.75           2442         343.00      1494.41
  136.79        2982.00           2445         332.00      1446.46
  136.82        2982.25           2449         336.00      1463.89
  136.85        2982.50           2453         352.00      1533.65
  136.88        2982.75           2456         335.00      1459.53
  136.91        2983.00           2460         344.00      1498.77
  136.94        2983.25           2464         333.00      1450.81
  136.97        2983.50           2467         326.00      1420.30
  137.00        2983.75           2471         343.00      1494.41
  137.03        2984.00           2475         318.00      1385.42
HS scan finished at 02:17:16
end
************************************************************
  HS Scan of (1) Internal mercury lamp
************************************************************
Integration time is 0.2294 seconds per sample
dh300517Arenosillo 37.1 6.73 3.25pr1000
************************************************************
Dead Time -------------------------  3.5E-08 
Number of Cycles Used -------------  4 
Starting Wavelength (Angstroms) ---  2950 
Final Wavelength (Angstoms) -------  2984 
Wavelength Increment (Angstroms) --  .25 
Filter Wheel #1 Position ---------- (1) Ground quartz diffuser (ND=2.32)
Filter Wheel #2 Position ---------- (1) Neutral Density 0.494



************************************************************
HS scan start time = 22:00:05
Dark Count =  .3 


Time (GMT)  Wavelength (Ang)  Step Number  Raw Counts  Counts/Second

 1320.97        2950.00           1981         493.00      2147.94
 1321.15        2950.25           1985         486.00      2117.42
 1321.18        2950.50           1989         518.00      2256.94
 1321.21        2950.75           1992         526.00      2291.81
 1321.25        2951.00           1996         493.00      2147.94
 1321.28        2951.25           1999         527.00      2296.17
 1321.31        2951.50           2003         520.00      2265.65
 1321.34        2951.75           2007         507.00      2208.98
 1321.37        2952.00           2010         505.00      2200.26
 1321.40        2952.25           2014         562.00      2448.77
 1321.43        2952.50           2017         508.00      2213.34
 1321.46        2952.75           2021         512.00      2230.78
 1321.49        2953.00           2025         503.00      2191.54
 1321.52        2953.25           2028         536.00      2335.41
 1321.55        2953.50           2032         516.00      2248.22
 1321.58        2953.75           2036         527.00      2296.17
 1321.61        2954.00           2039         545.00      2374.65
 1321.64        2954.25           2043         536.00      2335.41
 1321.67        2954.50           2046         547.00      2383.37
 1321.70        2954.75           2050         532.00      2317.97
 1321.73        2955.00           2054         539.00      2348.49
 1321.76        2955.25           2057         544.00      2370.29
 1321.80        2955.50           2061         569.00      2479.29
 1321.83        2955.75           2065         582.00      2535.97
 1321.86        2956.00           2068         566.00      2466.21
 1321.89        2956.25           2072         568.00      2474.93
 1321.92        2956.50           2075         588.00      2562.13
 1321.95        2956.75           2079         591.00      2575.21
 1321.98        2957.00           2083         605.00      2636.25
 1322.01        2957.25           2086         618.00      2692.93
 1322.04        2957.50           2090         606.00      2640.61
 1322.07        2957.75           2093         619.00      2697.29
 1322.10        2958.00           2097         670.00      2919.65
 1322.13        2958.25           2101         649.00      2828.09
 1322.16        2958.50           2104         647.00      2819.37
 1322.19        2958.75           2108         673.00      2932.73
 1322.22        2959.00           2112         681.00      2967.61
 1322.25        2959.25           2115         691.00      3011.22
 1322.28        2959.50           2119         724.00      3155.10
 1322.32        2959.75           2122         771.00      3360.03
 1322.35        2960.00           2126         787.00      3429.79
 1322.38        2960.25           2130         807.00      3517.00
 1322.41        2960.50           2133         786.00      3425.43
 1322.44        2960.75           2137         845.00      3682.69
 1322.47        2961.00           2141        1162.00      5064.98
 1322.50        2961.25           2144        2709.00     11812.64
 1322.53        2961.50           2148        9621.00     42000.24
 1322.56        2961.75           2151       18675.00     81639.66
 1322.59        2962.00           2155       33365.00    146189.40
 1322.62        2962.25           2159       47877.00    210245.50
 1322.65        2962.50           2162       58111.00    255592.30
 1322.68        2962.75           2166       70425.00    310348.00
 1322.71        2963.00           2170       82261.00    363177.90
 1322.74        2963.25           2173       90063.00    398109.90
 1322.77        2963.50           2177      103898.00    460265.80
 1322.80        2963.75           2180      115958.00    514670.60
 1322.83        2964.00           2184      130508.00    580587.80
 1322.86        2964.25           2188      145860.00    650473.00
 1322.90        2964.50           2191      157323.00    702881.30
 1322.93        2964.75           2195      172615.00    773100.10
 1322.96        2965.00           2199      189388.00    850524.10
 1322.99        2965.25           2202      201842.00    908288.40
 1323.02        2965.50           2206      217636.00    981887.50
 1323.05        2965.75           2209      227464.00   1027881.00
 1323.08        2966.00           2213      241689.00   1094720.00
 1323.11        2966.25           2217      254170.00   1153628.00
 1323.14        2966.50           2220      260253.00   1182429.00
 1323.17        2966.75           2224      263962.00   1200019.00
 1323.20        2967.00           2228      265422.00   1206949.00
 1323.23        2967.25           2231      265221.00   1205995.00
 1323.26        2967.50           2235      265469.00   1207172.00
 1323.29        2967.75           2238      264643.00   1203251.00
 1323.32        2968.00           2242      262167.00   1191504.00
 1323.35        2968.25           2246      254611.00   1155714.00
 1323.38        2968.50           2249      246034.00   1115200.00
 1323.42        2968.75           2253      231956.00   1048953.00
 1323.45        2969.00           2257      216556.00    976842.40
 1323.48        2969.25           2260      205215.00    923974.00
 1323.51        2969.50           2264      190541.00    855861.90
 1323.54        2969.75           2267      178067.00    798219.80
 1323.57        2970.00           2271      160944.00    719476.90
 1323.60        2970.25           2275      142530.00    635284.90
 1323.63        2970.50           2278      129069.00    574054.80
 1323.66        2970.75           2282      113315.00    502729.70
 1323.69        2971.00           2286       98134.00    434337.00
 1323.72        2971.25           2289       86101.00    380360.00
 1323.75        2971.50           2293       71471.00    315009.00
 1323.78        2971.75           2296       60574.00    266527.50
 1323.81        2972.00           2300       45705.00    200639.90
 1323.84        2972.25           2304       30452.00    133366.10
 1323.87        2972.50           2307       19248.00     84152.02
 1323.90        2972.75           2311        7933.00     34622.14
 1323.93        2973.00           2315        2874.00     12532.52
 1323.96        2973.25           2318        1470.00      6408.15
 1324.00        2973.50           2322         889.00      3874.55
 1324.03        2973.75           2326         822.00      3582.40
 1324.06        2974.00           2329         760.00      3312.07
 1324.09        2974.25           2333         735.00      3203.06
 1324.12        2974.50           2336         732.00      3189.98
 1324.15        2974.75           2340         693.00      3019.94
 1324.18        2975.00           2344         680.00      2963.25
 1324.21        2975.25           2347         665.00      2897.85
 1324.24        2975.50           2351         669.00      2915.29
 1324.27        2975.75           2355         644.00      2806.29
 1324.30        2976.00           2358         651.00      2836.81
 1324.33        2976.25           2362         615.00      2679.85
 1324.36        2976.50           2365         579.00      2522.89
 1324.39        2976.75           2369         576.00      2509.81
 1324.42        2977.00           2373         559.00      2435.69
 1324.45        2977.25           2376         566.00      2466.21
 1324.48        2977.50           2380         544.00      2370.29
 1324.51        2977.75           2384         551.00      2400.81
 1324.55        2978.00           2387         530.00      2309.25
 1324.58        2978.25           2391         513.00      2235.14
 1324.61        2978.50           2395         526.00      2291.81
 1324.64        2978.75           2398         500.00      2178.46
 1324.67        2979.00           2402         502.00      2187.18
 1324.70        2979.25           2405         496.00      2161.02
 1324.73        2979.50           2409         489.00      2130.50
 1324.76        2979.75           2413         479.00      2086.90
 1324.79        2980.00           2416         473.00      2060.74
 1324.82        2980.25           2420         486.00      2117.42
 1324.85        2980.50           2424         490.00      2134.86
 1324.88        2980.75           2427         459.00      1999.70
 1324.91        2981.00           2431         475.00      2069.46
 1324.94        2981.25           2435         450.00      1960.47
 1324.97        2981.50           2438         470.00      2047.66
 1325.00        2981.75           2442         453.00      1973.55
 1325.03        2982.00           2445         450.00      1960.47
 1325.07        2982.25           2449         434.00      1890.71
 1325.10        2982.50           2453         428.00      1864.55
 1325.13        2982.75           2456         450.00      1960.47
 1325.16        2983.00           2460         437.00      1903.79
 1325.19        2983.25           2464         435.00      1895.07
 1325.22        2983.50           2467         438.00      1908.15
 1325.25        2983.75           2471         430.00      1873.27
 1325.28        2984.00           2475         425.00      1851.47
HS scan finished at 22:05:30
end
