************************************************************
  HS Scan of (1) Internal mercury lamp
************************************************************
Integration time is 0.2294 seconds per sample
dh310517Arenosillo 37.1 6.73 3.19pr1000
************************************************************
Dead Time -------------------------  3.5E-08 
Number of Cycles Used -------------  4 
Starting Wavelength (Angstroms) ---  2950 
Final Wavelength (Angstoms) -------  2984 
Wavelength Increment (Angstroms) --  .25 
Filter Wheel #1 Position ---------- (1) Ground quartz diffuser (ND=2.32)
Filter Wheel #2 Position ---------- (1) Neutral Density 0.494



************************************************************
HS scan start time = 02:12:06
Dark Count =  .3 


Time (GMT)  Wavelength (Ang)  Step Number  Raw Counts  Counts/Second

  132.99        2950.00           1981         381.00      1659.64
  133.17        2950.25           1985         362.00      1576.81
  133.20        2950.50           1989         344.00      1498.34
  133.24        2950.75           1992         372.00      1620.41
  133.27        2951.00           1996         376.00      1637.84
  133.30        2951.25           1999         390.00      1698.88
  133.33        2951.50           2003         353.00      1537.57
  133.36        2951.75           2007         362.00      1576.81
  133.39        2952.00           2010         379.00      1650.92
  133.42        2952.25           2014         361.00      1572.45
  133.45        2952.50           2017         363.00      1581.17
  133.48        2952.75           2021         382.00      1664.00
  133.51        2953.00           2025         361.00      1572.45
  133.54        2953.25           2028         379.00      1650.92
  133.57        2953.50           2032         383.00      1668.36
  133.60        2953.75           2036         381.00      1659.64
  133.63        2954.00           2039         381.00      1659.64
  133.66        2954.25           2043         388.00      1690.16
  133.69        2954.50           2046         374.00      1629.13
  133.72        2954.75           2050         406.00      1768.64
  133.75        2955.00           2054         387.00      1685.80
  133.78        2955.25           2057         383.00      1668.36
  133.81        2955.50           2061         410.00      1786.08
  133.85        2955.75           2065         402.00      1751.20
  133.88        2956.00           2068         412.00      1794.79
  133.91        2956.25           2072         411.00      1790.43
  133.94        2956.50           2075         405.00      1764.28
  133.97        2956.75           2079         434.00      1890.71
  134.00        2957.00           2083         424.00      1847.11
  134.03        2957.25           2086         427.00      1860.19
  134.06        2957.50           2090         416.00      1812.23
  134.09        2957.75           2093         438.00      1908.15
  134.12        2958.00           2097         449.00      1956.11
  134.15        2958.25           2101         458.00      1995.34
  134.18        2958.50           2104         468.00      2038.94
  134.21        2958.75           2108         462.00      2012.78
  134.24        2959.00           2112         463.00      2017.14
  134.27        2959.25           2115         487.00      2121.78
  134.30        2959.50           2119         515.00      2243.86
  134.33        2959.75           2122         524.00      2283.09
  134.37        2960.00           2126         513.00      2235.14
  134.40        2960.25           2130         521.00      2270.02
  134.43        2960.50           2133         510.00      2222.06
  134.46        2960.75           2137         556.00      2422.61
  134.49        2961.00           2141         755.00      3290.27
  134.52        2961.25           2144        1467.00      6395.07
  134.55        2961.50           2148        4578.00     19969.05
  134.58        2961.75           2151        9163.00     39997.98
  134.61        2962.00           2155       17468.00     76348.91
  134.64        2962.25           2159       27459.00    120202.60
  134.67        2962.50           2162       35302.00    154722.70
  134.70        2962.75           2166       45027.00    197642.80
  134.73        2963.00           2170       53978.00    237261.60
  134.76        2963.25           2173       59790.00    263045.80
  134.79        2963.50           2177       68006.00    299575.00
  134.82        2963.75           2180       74024.00    326391.40
  134.85        2964.00           2184       83301.00    367829.30
  134.88        2964.25           2188       92197.00    407679.50
  134.92        2964.50           2191       99576.00    440819.30
  134.95        2964.75           2195      109798.00    486855.70
  134.98        2965.00           2199      119490.00    530643.70
  135.01        2965.25           2202      126839.00    563936.70
  135.04        2965.50           2206      136324.00    607022.60
  135.07        2965.75           2209      143827.00    641198.60
  135.10        2966.00           2213      152415.00    680418.30
  135.13        2966.25           2217      160230.00    716203.00
  135.16        2966.50           2220      164792.00    737134.30
  135.19        2966.75           2224      168428.00    753839.20
  135.22        2967.00           2228      169607.00    759260.10
  135.25        2967.25           2231      169895.00    760584.60
  135.28        2967.50           2235      169978.00    760966.40
  135.31        2967.75           2238      169250.00    757618.50
  135.34        2968.00           2242      167502.00    749583.00
  135.37        2968.25           2246      162398.00    726146.30
  135.40        2968.50           2249      156576.00    699460.20
  135.44        2968.75           2253      148460.00    662343.10
  135.47        2969.00           2257      139195.00    620090.10
  135.50        2969.25           2260      131774.00    586337.80
  135.53        2969.50           2264      122670.00    545040.40
  135.56        2969.75           2267      115728.00    513631.10
  135.59        2970.00           2271      105610.00    467976.20
  135.62        2970.25           2275       94955.00    420056.80
  135.65        2970.50           2278       87744.00    387718.00
  135.68        2970.75           2282       77687.00    342738.60
  135.71        2971.00           2286       68163.00    300274.00
  135.74        2971.25           2289       60524.00    266305.40
  135.77        2971.50           2293       51389.00    225790.80
  135.80        2971.75           2296       43874.00    192547.40
  135.83        2972.00           2300       34041.00    149166.90
  135.86        2972.25           2304       24237.00    106045.40
  135.89        2972.50           2307       16232.00     70933.08
  135.92        2972.75           2311        7388.00     32240.81
  135.95        2973.00           2315        2552.00     11127.70
  135.98        2973.25           2318        1066.00      4646.35
  136.02        2973.50           2322         625.00      2723.45
  136.05        2973.75           2326         565.00      2461.85
  136.08        2974.00           2329         544.00      2370.29
  136.11        2974.25           2333         541.00      2357.21
  136.14        2974.50           2336         547.00      2383.37
  136.17        2974.75           2340         498.00      2169.74
  136.20        2975.00           2344         538.00      2344.13
  136.23        2975.25           2347         481.00      2095.62
  136.26        2975.50           2351         481.00      2095.62
  136.29        2975.75           2355         448.00      1951.75
  136.32        2976.00           2358         446.00      1943.03
  136.35        2976.25           2362         446.00      1943.03
  136.38        2976.50           2365         430.00      1873.27
  136.41        2976.75           2369         429.00      1868.91
  136.44        2977.00           2373         459.00      1999.70
  136.47        2977.25           2376         424.00      1847.11
  136.50        2977.50           2380         413.00      1799.15
  136.54        2977.75           2384         416.00      1812.23
  136.57        2978.00           2387         390.00      1698.88
  136.60        2978.25           2391         413.00      1799.15
  136.63        2978.50           2395         372.00      1620.41
  136.66        2978.75           2398         374.00      1629.13
  136.69        2979.00           2402         377.00      1642.20
  136.72        2979.25           2405         386.00      1681.44
  136.75        2979.50           2409         401.00      1746.84
  136.78        2979.75           2413         366.00      1594.25
  136.81        2980.00           2416         406.00      1768.64
  136.84        2980.25           2420         342.00      1489.62
  136.87        2980.50           2424         361.00      1572.45
  136.90        2980.75           2427         370.00      1611.69
  136.93        2981.00           2431         347.00      1511.41
  136.96        2981.25           2435         358.00      1559.37
  136.99        2981.50           2438         352.00      1533.21
  137.02        2981.75           2442         334.00      1454.74
  137.05        2982.00           2445         330.00      1437.30
  137.08        2982.25           2449         332.00      1446.02
  137.12        2982.50           2453         329.00      1432.94
  137.15        2982.75           2456         351.00      1528.85
  137.18        2983.00           2460         329.00      1432.94
  137.21        2983.25           2464         356.00      1550.65
  137.24        2983.50           2467         354.00      1541.93
  137.27        2983.75           2471         324.00      1411.14
  137.30        2984.00           2475         323.00      1406.78
HS scan finished at 02:17:32
end
************************************************************
  HS Scan of (1) Internal mercury lamp
************************************************************
Integration time is 0.2294 seconds per sample
dh310517Arenosillo 37.1 6.73 3.29pr1000
************************************************************
Dead Time -------------------------  3.5E-08 
Number of Cycles Used -------------  4 
Starting Wavelength (Angstroms) ---  2950 
Final Wavelength (Angstoms) -------  2984 
Wavelength Increment (Angstroms) --  .25 
Filter Wheel #1 Position ---------- (1) Ground quartz diffuser (ND=2.32)
Filter Wheel #2 Position ---------- (1) Neutral Density 0.494



************************************************************
HS scan start time = 21:46:00
Dark Count =  .2 


Time (GMT)  Wavelength (Ang)  Step Number  Raw Counts  Counts/Second

 1306.88        2950.00           1981         334.00      1455.17
 1307.06        2950.25           1985         337.00      1468.25
 1307.09        2950.50           1989         337.00      1468.25
 1307.12        2950.75           1992         329.00      1433.38
 1307.16        2951.00           1996         353.00      1538.01
 1307.19        2951.25           1999         368.00      1603.40
 1307.22        2951.50           2003         319.00      1389.78
 1307.25        2951.75           2007         352.00      1533.65
 1307.28        2952.00           2010         340.00      1481.33
 1307.31        2952.25           2014         363.00      1581.60
 1307.34        2952.50           2017         341.00      1485.69
 1307.37        2952.75           2021         341.00      1485.69
 1307.40        2953.00           2025         339.00      1476.97
 1307.43        2953.25           2028         358.00      1559.81
 1307.46        2953.50           2032         362.00      1577.24
 1307.49        2953.75           2036         352.00      1533.65
 1307.52        2954.00           2039         344.00      1498.77
 1307.55        2954.25           2043         392.00      1708.04
 1307.58        2954.50           2046         380.00      1655.72
 1307.61        2954.75           2050         363.00      1581.60
 1307.64        2955.00           2054         354.00      1542.37
 1307.67        2955.25           2057         398.00      1734.19
 1307.70        2955.50           2061         387.00      1686.24
 1307.74        2955.75           2065         400.00      1742.91
 1307.77        2956.00           2068         368.00      1603.40
 1307.80        2956.25           2072         392.00      1708.04
 1307.83        2956.50           2075         357.00      1555.45
 1307.86        2956.75           2079         399.00      1738.55
 1307.89        2957.00           2083         382.00      1664.44
 1307.92        2957.25           2086         405.00      1764.71
 1307.95        2957.50           2090         411.00      1790.87
 1307.98        2957.75           2093         411.00      1790.87
 1308.01        2958.00           2097         443.00      1930.38
 1308.04        2958.25           2101         444.00      1934.74
 1308.07        2958.50           2104         425.00      1851.91
 1308.10        2958.75           2108         436.00      1899.86
 1308.13        2959.00           2112         451.00      1965.26
 1308.16        2959.25           2115         449.00      1956.54
 1308.19        2959.50           2119         488.00      2126.58
 1308.22        2959.75           2122         465.00      2026.30
 1308.26        2960.00           2126         489.00      2130.93
 1308.29        2960.25           2130         497.00      2165.81
 1308.32        2960.50           2133         506.00      2205.05
 1308.35        2960.75           2137         539.00      2348.93
 1308.38        2961.00           2141         588.00      2562.57
 1308.41        2961.25           2144         916.00      3992.71
 1308.44        2961.50           2148        3168.00     13815.75
 1308.47        2961.75           2151        7272.00     31734.44
 1308.50        2962.00           2155       14814.00     64722.74
 1308.53        2962.25           2159       24048.00    105215.90
 1308.56        2962.50           2162       30648.00    134229.00
 1308.59        2962.75           2166       39260.00    172175.70
 1308.62        2963.00           2170       46531.00    204292.50
 1308.65        2963.25           2173       50180.00    220437.90
 1308.68        2963.50           2177       57817.00    254288.00
 1308.71        2963.75           2180       64726.00    284981.00
 1308.74        2964.00           2184       74370.00    327935.10
 1308.77        2964.25           2188       84578.00    373543.30
 1308.80        2964.50           2191       91531.00    404692.70
 1308.84        2964.75           2195      100489.00    444925.50
 1308.87        2965.00           2199      109304.00    484627.80
 1308.90        2965.25           2202      116681.00    517939.20
 1308.93        2965.50           2206      126098.00    560576.60
 1308.96        2965.75           2209      132616.00    590163.80
 1308.99        2966.00           2213      142113.00    633384.50
 1309.02        2966.25           2217      150483.00    671586.20
 1309.05        2966.50           2220      156073.00    697157.40
 1309.08        2966.75           2224      160257.00    716327.20
 1309.11        2967.00           2228      161310.00    721155.90
 1309.14        2967.25           2231      161728.00    723073.10
 1309.17        2967.50           2235      161415.00    721637.50
 1309.20        2967.75           2238      161582.00    722403.50
 1309.23        2968.00           2242      159729.00    713906.60
 1309.26        2968.25           2246      155653.00    695234.50
 1309.29        2968.50           2249      150668.00    672431.70
 1309.32        2968.75           2253      142116.00    633398.10
 1309.36        2969.00           2257      132783.00    590922.60
 1309.39        2969.25           2260      126004.00    560150.50
 1309.42        2969.50           2264      117265.00    520579.70
 1309.45        2969.75           2267      110219.00    488755.40
 1309.48        2970.00           2271      100621.00    445519.20
 1309.51        2970.25           2275       91508.00    404589.50
 1309.54        2970.50           2278       84717.00    374165.30
 1309.57        2970.75           2282       76244.00    336297.00
 1309.60        2971.00           2286       66636.00    293477.70
 1309.63        2971.25           2289       59170.00    260293.50
 1309.66        2971.50           2293       49785.00    218689.30
 1309.69        2971.75           2296       42314.00    185656.70
 1309.72        2972.00           2300       31563.00    138255.90
 1309.75        2972.25           2304       20137.00     88051.24
 1309.78        2972.50           2307       12136.00     53000.58
 1309.81        2972.75           2311        5360.00     23383.56
 1309.84        2973.00           2315        2109.00      9195.64
 1309.87        2973.25           2318        1054.00      4594.46
 1309.90        2973.50           2322         636.00      2771.85
 1309.94        2973.75           2326         531.00      2314.05
 1309.97        2974.00           2329         511.00      2226.85
 1310.00        2974.25           2333         515.00      2244.29
 1310.03        2974.50           2336         501.00      2183.25
 1310.06        2974.75           2340         472.00      2056.82
 1310.09        2975.00           2344         472.00      2056.82
 1310.12        2975.25           2347         454.00      1978.34
 1310.15        2975.50           2351         463.00      2017.58
 1310.18        2975.75           2355         428.00      1864.99
 1310.21        2976.00           2358         427.00      1860.63
 1310.24        2976.25           2362         431.00      1878.07
 1310.27        2976.50           2365         400.00      1742.91
 1310.30        2976.75           2369         405.00      1764.71
 1310.33        2977.00           2373         431.00      1878.07
 1310.36        2977.25           2376         391.00      1703.68
 1310.39        2977.50           2380         391.00      1703.68
 1310.42        2977.75           2384         400.00      1742.91
 1310.46        2978.00           2387         388.00      1690.60
 1310.49        2978.25           2391         352.00      1533.65
 1310.52        2978.50           2395         375.00      1633.92
 1310.55        2978.75           2398         366.00      1594.68
 1310.58        2979.00           2402         356.00      1551.09
 1310.61        2979.25           2405         358.00      1559.81
 1310.64        2979.50           2409         353.00      1538.01
 1310.67        2979.75           2413         341.00      1485.69
 1310.70        2980.00           2416         335.00      1459.53
 1310.73        2980.25           2420         360.00      1568.53
 1310.76        2980.50           2424         341.00      1485.69
 1310.79        2980.75           2427         368.00      1603.40
 1310.82        2981.00           2431         350.00      1524.93
 1310.85        2981.25           2435         337.00      1468.25
 1310.88        2981.50           2438         325.00      1415.94
 1310.91        2981.75           2442         327.00      1424.66
 1310.94        2982.00           2445         346.00      1507.49
 1310.97        2982.25           2449         323.00      1407.22
 1311.01        2982.50           2453         321.00      1398.50
 1311.04        2982.75           2456         296.00      1289.51
 1311.07        2983.00           2460         329.00      1433.38
 1311.10        2983.25           2464         318.00      1385.42
 1311.13        2983.50           2467         315.00      1372.34
 1311.16        2983.75           2471         313.00      1363.62
 1311.19        2984.00           2475         305.00      1328.75
HS scan finished at 21:51:25
end
