************************************************************
  HS Scan of (1) Internal mercury lamp
************************************************************
Integration time is 0.2294 seconds per sample
dh030617Arenosillo 37.1 6.73 3.19pr1000
************************************************************
Dead Time -------------------------  3.5E-08 
Number of Cycles Used -------------  4 
Starting Wavelength (Angstroms) ---  2950 
Final Wavelength (Angstoms) -------  2984 
Wavelength Increment (Angstroms) --  .25 
Filter Wheel #1 Position ---------- (1) Ground quartz diffuser (ND=2.32)
Filter Wheel #2 Position ---------- (1) Neutral Density 0.494



************************************************************
HS scan start time = 02:10:21
Dark Count =  1 


Time (GMT)  Wavelength (Ang)  Step Number  Raw Counts  Counts/Second

  131.24        2950.00           1981         333.00      1447.33
  131.42        2950.25           1985         311.00      1351.42
  131.45        2950.50           1989         324.00      1408.09
  131.49        2950.75           1992         345.00      1499.64
  131.52        2951.00           1996         317.00      1377.57
  131.55        2951.25           1999         320.00      1390.65
  131.58        2951.50           2003         329.00      1429.89
  131.61        2951.75           2007         343.00      1490.92
  131.64        2952.00           2010         323.00      1403.73
  131.67        2952.25           2014         321.00      1395.01
  131.70        2952.50           2017         326.00      1416.81
  131.73        2952.75           2021         335.00      1456.05
  131.76        2953.00           2025         328.00      1425.53
  131.79        2953.25           2028         345.00      1499.64
  131.82        2953.50           2032         356.00      1547.60
  131.85        2953.75           2036         334.00      1451.69
  131.88        2954.00           2039         354.00      1538.88
  131.91        2954.25           2043         339.00      1473.49
  131.94        2954.50           2046         346.00      1504.00
  131.97        2954.75           2050         357.00      1551.96
  132.00        2955.00           2054         336.00      1460.41
  132.03        2955.25           2057         342.00      1486.56
  132.07        2955.50           2061         339.00      1473.49
  132.10        2955.75           2065         365.00      1586.84
  132.13        2956.00           2068         390.00      1695.83
  132.16        2956.25           2072         365.00      1586.84
  132.19        2956.50           2075         341.00      1482.20
  132.22        2956.75           2079         371.00      1612.99
  132.25        2957.00           2083         363.00      1578.12
  132.28        2957.25           2086         384.00      1669.67
  132.31        2957.50           2090         382.00      1660.95
  132.34        2957.75           2093         394.00      1713.27
  132.37        2958.00           2097         386.00      1678.39
  132.40        2958.25           2101         406.00      1765.58
  132.43        2958.50           2104         401.00      1743.79
  132.46        2958.75           2108         406.00      1765.58
  132.49        2959.00           2112         407.00      1769.94
  132.52        2959.25           2115         441.00      1918.18
  132.55        2959.50           2119         453.00      1970.49
  132.59        2959.75           2122         461.00      2005.37
  132.62        2960.00           2126         443.00      1926.90
  132.65        2960.25           2130         449.00      1953.05
  132.68        2960.50           2133         483.00      2101.29
  132.71        2960.75           2137         481.00      2092.57
  132.74        2961.00           2141         524.00      2280.04
  132.77        2961.25           2144         787.00      3426.74
  132.80        2961.50           2148        1743.00      7595.74
  132.83        2961.75           2151        3620.00     15784.66
  132.86        2962.00           2155        9055.00     39522.81
  132.89        2962.25           2159       16085.00     70286.03
  132.92        2962.50           2162       21389.00     93540.27
  132.95        2962.75           2166       30420.00    133222.20
  132.98        2963.00           2170       39648.00    173884.20
  133.01        2963.25           2173       46080.00    202294.80
  133.04        2963.50           2177       54913.00    241403.40
  133.07        2963.75           2180       60490.00    266151.30
  133.10        2964.00           2184       67943.00    299291.40
  133.13        2964.25           2188       75078.00    331090.10
  133.17        2964.50           2191       80891.00    357049.70
  133.20        2964.75           2195       88805.00    392468.50
  133.23        2965.00           2199       97538.00    431655.50
  133.26        2965.25           2202      103841.00    460006.00
  133.29        2965.50           2206      111573.00    494861.80
  133.32        2965.75           2209      117343.00    520928.80
  133.35        2966.00           2213      125005.00    555617.80
  133.38        2966.25           2217      132117.00    587892.80
  133.41        2966.50           2220      135578.00    603626.00
  133.44        2966.75           2224      138420.00    616558.40
  133.47        2967.00           2228      139017.00    619276.50
  133.50        2967.25           2231      139003.00    619212.80
  133.53        2967.50           2235      138878.00    618643.50
  133.56        2967.75           2238      138504.00    616940.80
  133.59        2968.00           2242      137101.00    610554.90
  133.62        2968.25           2246      133210.00    592859.60
  133.65        2968.50           2249      128012.00    569254.90
  133.69        2968.75           2253      120793.00    536537.80
  133.72        2969.00           2257      112836.00    500563.50
  133.75        2969.25           2260      107236.00    475300.10
  133.78        2969.50           2264       99314.00    439638.10
  133.81        2969.75           2267       93547.00    413733.50
  133.84        2970.00           2271       84417.00    372819.30
  133.87        2970.25           2275       74480.00    328422.30
  133.90        2970.50           2278       68154.00    300230.80
  133.93        2970.75           2282       60612.00    266693.10
  133.96        2971.00           2286       52718.00    231674.80
  133.99        2971.25           2289       46830.00    205611.20
  134.02        2971.50           2293       38683.00    169626.60
  134.05        2971.75           2296       31917.00    139810.60
  134.08        2972.00           2300       23453.00    102599.70
  134.11        2972.25           2304       15645.00     68358.65
  134.14        2972.50           2307       10390.00     45359.66
  134.17        2972.75           2311        4704.00     20516.04
  134.20        2973.00           2315        1780.00      7757.12
  134.24        2973.25           2318         819.00      3566.27
  134.27        2973.50           2322         555.00      2415.20
  134.30        2973.75           2326         475.00      2066.41
  134.33        2974.00           2329         503.00      2188.49
  134.36        2974.25           2333         460.00      2001.01
  134.39        2974.50           2336         454.00      1974.85
  134.42        2974.75           2340         436.00      1896.38
  134.45        2975.00           2344         432.00      1878.94
  134.48        2975.25           2347         418.00      1817.90
  134.51        2975.50           2351         402.00      1748.15
  134.54        2975.75           2355         395.00      1717.63
  134.57        2976.00           2358         388.00      1687.11
  134.60        2976.25           2362         390.00      1695.83
  134.63        2976.50           2365         393.00      1708.91
  134.66        2976.75           2369         395.00      1717.63
  134.69        2977.00           2373         362.00      1573.76
  134.72        2977.25           2376         358.00      1556.32
  134.75        2977.50           2380         341.00      1482.20
  134.79        2977.75           2384         359.00      1560.68
  134.82        2978.00           2387         363.00      1578.12
  134.85        2978.25           2391         373.00      1621.71
  134.88        2978.50           2395         346.00      1504.00
  134.91        2978.75           2398         339.00      1473.49
  134.94        2979.00           2402         334.00      1451.69
  134.97        2979.25           2405         333.00      1447.33
  135.00        2979.50           2409         325.00      1412.45
  135.03        2979.75           2413         328.00      1425.53
  135.06        2980.00           2416         358.00      1556.32
  135.09        2980.25           2420         336.00      1460.41
  135.12        2980.50           2424         326.00      1416.81
  135.15        2980.75           2427         311.00      1351.42
  135.18        2981.00           2431         302.00      1312.18
  135.21        2981.25           2435         306.00      1329.62
  135.24        2981.50           2438         312.00      1355.77
  135.27        2981.75           2442         307.00      1333.98
  135.30        2982.00           2445         301.00      1307.82
  135.34        2982.25           2449         295.00      1281.66
  135.37        2982.50           2453         299.00      1299.10
  135.40        2982.75           2456         304.00      1320.90
  135.43        2983.00           2460         297.00      1290.38
  135.46        2983.25           2464         287.00      1246.78
  135.49        2983.50           2467         307.00      1333.98
  135.52        2983.75           2471         288.00      1251.14
  135.55        2984.00           2475         297.00      1290.38
HS scan finished at 02:15:47
end
************************************************************
  HS Scan of (1) Internal mercury lamp
************************************************************
Integration time is 0.2294 seconds per sample
dh030617Arenosillo 37.1 6.73 3.37pr1000
************************************************************
Dead Time -------------------------  3.5E-08 
Number of Cycles Used -------------  4 
Starting Wavelength (Angstroms) ---  2950 
Final Wavelength (Angstoms) -------  2984 
Wavelength Increment (Angstroms) --  .25 
Filter Wheel #1 Position ---------- (1) Ground quartz diffuser (ND=2.32)
Filter Wheel #2 Position ---------- (1) Neutral Density 0.494



************************************************************
HS scan start time = 20:48:31
Dark Count =  1.9 


Time (GMT)  Wavelength (Ang)  Step Number  Raw Counts  Counts/Second

 1249.40        2950.00           1981         319.00      1382.37
 1249.58        2950.25           1985         327.00      1417.25
 1249.61        2950.50           1989         330.00      1430.32
 1249.64        2950.75           1992         322.00      1395.45
 1249.67        2951.00           1996         316.00      1369.29
 1249.70        2951.25           1999         328.00      1421.61
 1249.73        2951.50           2003         324.00      1404.17
 1249.76        2951.75           2007         317.00      1373.65
 1249.79        2952.00           2010         301.00      1303.90
 1249.82        2952.25           2014         307.00      1330.05
 1249.85        2952.50           2017         331.00      1434.68
 1249.88        2952.75           2021         327.00      1417.25
 1249.91        2953.00           2025         313.00      1356.21
 1249.94        2953.25           2028         324.00      1404.17
 1249.98        2953.50           2032         350.00      1517.52
 1250.01        2953.75           2036         329.00      1425.96
 1250.04        2954.00           2039         358.00      1552.39
 1250.07        2954.25           2043         320.00      1386.73
 1250.10        2954.50           2046         332.00      1439.04
 1250.13        2954.75           2050         352.00      1526.24
 1250.16        2955.00           2054         346.00      1500.08
 1250.19        2955.25           2057         329.00      1425.96
 1250.22        2955.50           2061         334.00      1447.76
 1250.25        2955.75           2065         365.00      1582.91
 1250.28        2956.00           2068         383.00      1661.39
 1250.31        2956.25           2072         338.00      1465.20
 1250.34        2956.50           2075         372.00      1613.43
 1250.37        2956.75           2079         348.00      1508.80
 1250.40        2957.00           2083         397.00      1722.42
 1250.43        2957.25           2086         382.00      1657.03
 1250.46        2957.50           2090         401.00      1739.86
 1250.50        2957.75           2093         354.00      1534.96
 1250.53        2958.00           2097         385.00      1670.11
 1250.56        2958.25           2101         387.00      1678.83
 1250.59        2958.50           2104         385.00      1670.11
 1250.62        2958.75           2108         399.00      1731.14
 1250.65        2959.00           2112         420.00      1822.70
 1250.68        2959.25           2115         431.00      1870.65
 1250.71        2959.50           2119         405.00      1757.30
 1250.74        2959.75           2122         418.00      1813.98
 1250.77        2960.00           2126         444.00      1927.33
 1250.80        2960.25           2130         436.00      1892.45
 1250.83        2960.50           2133         450.00      1953.49
 1250.86        2960.75           2137         470.00      2040.69
 1250.89        2961.00           2141         574.00      2494.11
 1250.92        2961.25           2144        1020.00      4438.79
 1250.95        2961.50           2148        3011.00     13123.29
 1250.98        2961.75           2151        5819.00     25380.43
 1251.01        2962.00           2155       11202.00     48907.10
 1251.05        2962.25           2159       17799.00     77792.60
 1251.08        2962.50           2162       23613.00    103298.30
 1251.11        2962.75           2166       32168.00    140911.60
 1251.14        2963.00           2170       39854.00    174789.20
 1251.17        2963.25           2173       46013.00    201994.50
 1251.20        2963.50           2177       54863.00    241177.70
 1251.23        2963.75           2180       61442.00    270376.10
 1251.26        2964.00           2184       68955.00    303793.30
 1251.29        2964.25           2188       74915.00    330358.90
 1251.32        2964.50           2191       78693.00    347224.30
 1251.35        2964.75           2195       85620.00    378199.50
 1251.38        2965.00           2199       93834.00    415017.50
 1251.41        2965.25           2202       99895.00    442246.50
 1251.44        2965.50           2206      106544.00    472177.30
 1251.47        2965.75           2209      112884.00    500776.20
 1251.50        2966.00           2213      120875.00    536905.00
 1251.53        2966.25           2217      127038.00    564832.10
 1251.56        2966.50           2220      129965.00    578114.90
 1251.60        2966.75           2224      131339.00    584354.50
 1251.63        2967.00           2228      132286.00    588656.60
 1251.66        2967.25           2231      132077.00    587707.00
 1251.69        2967.50           2235      131858.00    586712.00
 1251.72        2967.75           2238      131295.00    584154.60
 1251.75        2968.00           2242      129985.00    578205.70
 1251.78        2968.25           2246      125740.00    558945.80
 1251.81        2968.50           2249      121301.00    538833.50
 1251.84        2968.75           2253      114194.00    506692.60
 1251.87        2969.00           2257      105850.00    469050.30
 1251.90        2969.25           2260       99047.00    438433.70
 1251.93        2969.50           2264       90925.00    401967.50
 1251.96        2969.75           2267       85161.00    376144.90
 1251.99        2970.00           2271       77355.00    341249.00
 1252.02        2970.25           2275       69774.00    307440.90
 1252.05        2970.50           2278       64060.00    282011.80
 1252.08        2970.75           2282       56562.00    248712.30
 1252.11        2971.00           2286       47995.00    210760.40
 1252.15        2971.25           2289       41375.00    181502.90
 1252.18        2971.50           2293       32935.00    144288.80
 1252.21        2971.75           2296       27199.00    119052.60
 1252.24        2972.00           2300       20117.00     87956.06
 1252.27        2972.25           2304       13005.00     56795.88
 1252.30        2972.50           2307        8193.00     35751.33
 1252.33        2972.75           2311        3808.00     16601.19
 1252.36        2973.00           2315        1497.00      6518.92
 1252.39        2973.25           2318         773.00      3361.77
 1252.42        2973.50           2322         484.00      2101.72
 1252.45        2973.75           2326         448.00      1944.77
 1252.48        2974.00           2329         436.00      1892.45
 1252.51        2974.25           2333         423.00      1835.78
 1252.54        2974.50           2336         435.00      1888.09
 1252.57        2974.75           2340         410.00      1779.10
 1252.60        2975.00           2344         391.00      1696.26
 1252.63        2975.25           2347         374.00      1622.15
 1252.67        2975.50           2351         404.00      1752.94
 1252.70        2975.75           2355         379.00      1643.95
 1252.73        2976.00           2358         369.00      1600.35
 1252.76        2976.25           2362         347.00      1504.44
 1252.79        2976.50           2365         349.00      1513.16
 1252.82        2976.75           2369         352.00      1526.24
 1252.85        2977.00           2373         354.00      1534.96
 1252.88        2977.25           2376         340.00      1473.92
 1252.91        2977.50           2380         373.00      1617.79
 1252.94        2977.75           2384         334.00      1447.76
 1252.97        2978.00           2387         327.00      1417.25
 1253.00        2978.25           2391         315.00      1364.93
 1253.03        2978.50           2395         310.00      1343.13
 1253.06        2978.75           2398         333.00      1443.40
 1253.09        2979.00           2402         306.00      1325.69
 1253.12        2979.25           2405         314.00      1360.57
 1253.15        2979.50           2409         303.00      1312.61
 1253.18        2979.75           2413         294.00      1273.38
 1253.21        2980.00           2416         326.00      1412.89
 1253.25        2980.25           2420         306.00      1325.69
 1253.28        2980.50           2424         275.00      1190.55
 1253.31        2980.75           2427         303.00      1312.61
 1253.34        2981.00           2431         300.00      1299.54
 1253.37        2981.25           2435         294.00      1273.38
 1253.40        2981.50           2438         308.00      1334.41
 1253.43        2981.75           2442         268.00      1160.03
 1253.46        2982.00           2445         286.00      1238.50
 1253.49        2982.25           2449         273.00      1181.83
 1253.52        2982.50           2453         304.00      1316.97
 1253.55        2982.75           2456         304.00      1316.97
 1253.58        2983.00           2460         293.00      1269.02
 1253.61        2983.25           2464         275.00      1190.55
 1253.64        2983.50           2467         273.00      1181.83
 1253.67        2983.75           2471         282.00      1221.06
 1253.70        2984.00           2475         278.00      1203.63
HS scan finished at 20:53:56
end
