************************************************************
  HS Scan of (1) Internal mercury lamp
************************************************************
Integration time is 0.2294 seconds per sample
dh020617Arenosillo 37.1 6.73 3.33pr1000
************************************************************
Dead Time -------------------------  3.5E-08 
Number of Cycles Used -------------  4 
Starting Wavelength (Angstroms) ---  2950 
Final Wavelength (Angstoms) -------  2984 
Wavelength Increment (Angstroms) --  .25 
Filter Wheel #1 Position ---------- (1) Ground quartz diffuser (ND=2.32)
Filter Wheel #2 Position ---------- (1) Neutral Density 0.494



************************************************************
HS scan start time = 22:00:04
Dark Count =  1.7 


Time (GMT)  Wavelength (Ang)  Step Number  Raw Counts  Counts/Second

 1320.95        2950.00           1981         285.00      1235.01
 1321.13        2950.25           1985         267.00      1156.54
 1321.16        2950.50           1989         290.00      1256.81
 1321.19        2950.75           1992         281.00      1217.58
 1321.22        2951.00           1996         298.00      1291.69
 1321.25        2951.25           1999         310.00      1344.00
 1321.28        2951.50           2003         316.00      1370.16
 1321.31        2951.75           2007         314.00      1361.44
 1321.34        2952.00           2010         297.00      1287.33
 1321.37        2952.25           2014         302.00      1309.13
 1321.40        2952.50           2017         293.00      1269.89
 1321.43        2952.75           2021         301.00      1304.77
 1321.46        2953.00           2025         298.00      1291.69
 1321.49        2953.25           2028         301.00      1304.77
 1321.52        2953.50           2032         301.00      1304.77
 1321.55        2953.75           2036         307.00      1330.93
 1321.59        2954.00           2039         292.00      1265.53
 1321.62        2954.25           2043         304.00      1317.85
 1321.65        2954.50           2046         296.00      1282.97
 1321.68        2954.75           2050         310.00      1344.00
 1321.71        2955.00           2054         311.00      1348.36
 1321.74        2955.25           2057         357.00      1548.91
 1321.77        2955.50           2061         306.00      1326.57
 1321.80        2955.75           2065         314.00      1361.44
 1321.83        2956.00           2068         315.00      1365.80
 1321.86        2956.25           2072         310.00      1344.00
 1321.89        2956.50           2075         317.00      1374.52
 1321.92        2956.75           2079         347.00      1505.31
 1321.95        2957.00           2083         332.00      1439.92
 1321.98        2957.25           2086         375.00      1627.38
 1322.01        2957.50           2090         346.00      1500.95
 1322.04        2957.75           2093         344.00      1492.23
 1322.07        2958.00           2097         357.00      1548.91
 1322.11        2958.25           2101         349.00      1514.03
 1322.14        2958.50           2104         357.00      1548.91
 1322.17        2958.75           2108         390.00      1692.78
 1322.20        2959.00           2112         379.00      1644.82
 1322.23        2959.25           2115         405.00      1758.17
 1322.26        2959.50           2119         395.00      1714.58
 1322.29        2959.75           2122         404.00      1753.81
 1322.32        2960.00           2126         436.00      1893.33
 1322.35        2960.25           2130         427.00      1854.09
 1322.38        2960.50           2133         445.00      1932.56
 1322.41        2960.75           2137         451.00      1958.72
 1322.44        2961.00           2141         725.00      3153.36
 1322.47        2961.25           2144        1394.00      6070.60
 1322.50        2961.50           2148        3641.00     15873.25
 1322.53        2961.75           2151        7057.00     30788.61
 1322.56        2962.00           2155       13402.00     58534.35
 1322.59        2962.25           2159       20440.00     89373.72
 1322.62        2962.50           2162       26168.00    114522.20
 1322.65        2962.75           2166       34030.00    149112.30
 1322.69        2963.00           2170       41948.00    184033.80
 1322.72        2963.25           2173       47689.00    209407.60
 1322.75        2963.50           2177       55012.00    241839.20
 1322.78        2963.75           2180       60801.00    267529.50
 1322.81        2964.00           2184       67808.00    298687.30
 1322.84        2964.25           2188       74025.00    326389.60
 1322.87        2964.50           2191       77609.00    342384.00
 1322.90        2964.75           2195       84050.00    371173.90
 1322.93        2965.00           2199       91717.00    405520.10
 1322.96        2965.25           2202       97677.00    432277.00
 1322.99        2965.50           2206      104966.00    465069.00
 1323.02        2965.75           2209      110685.00    490851.20
 1323.05        2966.00           2213      116962.00    519202.90
 1323.08        2966.25           2217      122877.00    545971.60
 1323.11        2966.50           2220      125486.00    557795.00
 1323.14        2966.75           2224      126804.00    563771.60
 1323.17        2967.00           2228      126962.00    564488.30
 1323.21        2967.25           2231      127071.00    564982.80
 1323.24        2967.50           2235      126736.00    563463.30
 1323.27        2967.75           2238      126047.00    560338.60
 1323.30        2968.00           2242      123732.00    549845.30
 1323.33        2968.25           2246      118751.00    527293.80
 1323.36        2968.50           2249      114240.00    506901.30
 1323.39        2968.75           2253      107204.00    475152.70
 1323.42        2969.00           2257      100537.00    445134.60
 1323.45        2969.25           2260       95097.00    420688.10
 1323.48        2969.50           2264       88465.00    390941.90
 1323.51        2969.75           2267       82576.00    364580.30
 1323.54        2970.00           2271       73463.00    323883.10
 1323.57        2970.25           2275       64414.00    283586.80
 1323.60        2970.50           2278       58025.00    255204.50
 1323.63        2970.75           2282       50535.00    222003.00
 1323.66        2971.00           2286       43605.00    191352.70
 1323.69        2971.25           2289       38601.00    169261.80
 1323.72        2971.50           2293       31348.00    137303.00
 1323.75        2971.75           2296       26275.00    114992.40
 1323.79        2972.00           2300       19225.00     84045.03
 1323.82        2972.25           2304       12560.00     54849.31
 1323.85        2972.50           2307        7785.00     33969.31
 1323.88        2972.75           2311        3129.00     13639.03
 1323.91        2973.00           2315        1153.00      5019.63
 1323.94        2973.25           2318         634.00      2756.59
 1323.97        2973.50           2322         482.00      2093.88
 1324.00        2973.75           2326         429.00      1862.81
 1324.03        2974.00           2329         429.00      1862.81
 1324.06        2974.25           2333         409.00      1775.61
 1324.09        2974.50           2336         408.00      1771.25
 1324.12        2974.75           2340         410.00      1779.97
 1324.15        2975.00           2344         392.00      1701.50
 1324.18        2975.25           2347         388.00      1684.06
 1324.21        2975.50           2351         365.00      1583.78
 1324.24        2975.75           2355         352.00      1527.11
 1324.27        2976.00           2358         328.00      1422.48
 1324.31        2976.25           2362         334.00      1448.63
 1324.34        2976.50           2365         333.00      1444.28
 1324.37        2976.75           2369         321.00      1391.96
 1324.40        2977.00           2373         318.00      1378.88
 1324.43        2977.25           2376         324.00      1405.04
 1324.46        2977.50           2380         318.00      1378.88
 1324.49        2977.75           2384         306.00      1326.57
 1324.52        2978.00           2387         312.00      1352.72
 1324.55        2978.25           2391         296.00      1282.97
 1324.58        2978.50           2395         308.00      1335.28
 1324.61        2978.75           2398         303.00      1313.49
 1324.64        2979.00           2402         304.00      1317.85
 1324.67        2979.25           2405         301.00      1304.77
 1324.70        2979.50           2409         316.00      1370.16
 1324.73        2979.75           2413         307.00      1330.93
 1324.76        2980.00           2416         300.00      1300.41
 1324.79        2980.25           2420         280.00      1213.22
 1324.82        2980.50           2424         300.00      1300.41
 1324.86        2980.75           2427         291.00      1261.17
 1324.89        2981.00           2431         279.00      1208.86
 1324.92        2981.25           2435         287.00      1243.73
 1324.95        2981.50           2438         279.00      1208.86
 1324.98        2981.75           2442         274.00      1187.06
 1325.01        2982.00           2445         283.00      1226.29
 1325.04        2982.25           2449         284.00      1230.65
 1325.07        2982.50           2453         273.00      1182.70
 1325.10        2982.75           2456         276.00      1195.78
 1325.13        2983.00           2460         265.00      1147.82
 1325.16        2983.25           2464         267.00      1156.54
 1325.19        2983.50           2467         271.00      1173.98
 1325.22        2983.75           2471         252.00      1091.15
 1325.25        2984.00           2475         269.00      1165.26
HS scan finished at 22:05:29
end
