************************************************************
  HS Scan of (1) Internal mercury lamp
************************************************************
Integration time is 0.2294 seconds per sample
dh010617Arenosillo 37.1 6.73 3.19pr1000
************************************************************
Dead Time -------------------------  3.5E-08 
Number of Cycles Used -------------  4 
Starting Wavelength (Angstroms) ---  2950 
Final Wavelength (Angstoms) -------  2984 
Wavelength Increment (Angstroms) --  .25 
Filter Wheel #1 Position ---------- (1) Ground quartz diffuser (ND=2.32)
Filter Wheel #2 Position ---------- (1) Neutral Density 0.494



************************************************************
HS scan start time = 02:12:36
Dark Count =  .2 


Time (GMT)  Wavelength (Ang)  Step Number  Raw Counts  Counts/Second

  133.49        2950.00           1981         345.00      1503.13
  133.67        2950.25           1985         339.00      1476.97
  133.70        2950.50           1989         343.00      1494.41
  133.73        2950.75           1992         347.00      1511.85
  133.76        2951.00           1996         352.00      1533.65
  133.79        2951.25           1999         339.00      1476.97
  133.82        2951.50           2003         352.00      1533.65
  133.85        2951.75           2007         351.00      1529.29
  133.88        2952.00           2010         344.00      1498.77
  133.91        2952.25           2014         342.00      1490.05
  133.94        2952.50           2017         323.00      1407.22
  133.97        2952.75           2021         344.00      1498.77
  134.00        2953.00           2025         359.00      1564.17
  134.03        2953.25           2028         367.00      1599.04
  134.06        2953.50           2032         355.00      1546.73
  134.09        2953.75           2036         366.00      1594.68
  134.12        2954.00           2039         368.00      1603.40
  134.16        2954.25           2043         372.00      1620.84
  134.19        2954.50           2046         362.00      1577.24
  134.22        2954.75           2050         396.00      1725.47
  134.25        2955.00           2054         372.00      1620.84
  134.28        2955.25           2057         377.00      1642.64
  134.31        2955.50           2061         376.00      1638.28
  134.34        2955.75           2065         397.00      1729.83
  134.37        2956.00           2068         408.00      1777.79
  134.40        2956.25           2072         397.00      1729.83
  134.43        2956.50           2075         368.00      1603.40
  134.46        2956.75           2079         405.00      1764.71
  134.49        2957.00           2083         398.00      1734.19
  134.52        2957.25           2086         413.00      1799.59
  134.55        2957.50           2090         412.00      1795.23
  134.58        2957.75           2093         418.00      1821.39
  134.61        2958.00           2097         425.00      1851.91
  134.64        2958.25           2101         428.00      1864.99
  134.68        2958.50           2104         435.00      1895.51
  134.71        2958.75           2108         454.00      1978.34
  134.74        2959.00           2112         469.00      2043.74
  134.77        2959.25           2115         455.00      1982.70
  134.80        2959.50           2119         468.00      2039.38
  134.83        2959.75           2122         475.00      2069.90
  134.86        2960.00           2126         519.00      2261.73
  134.89        2960.25           2130         526.00      2292.25
  134.92        2960.50           2133         494.00      2152.73
  134.95        2960.75           2137         537.00      2340.21
  134.98        2961.00           2141         680.00      2963.69
  135.01        2961.25           2144        1199.00      5226.76
  135.04        2961.50           2148        4015.00     17512.04
  135.07        2961.75           2151        8167.00     35645.14
  135.10        2962.00           2155       15641.00     68344.63
  135.13        2962.25           2159       24449.00    106977.00
  135.16        2962.50           2162       31175.00    136548.20
  135.19        2962.75           2166       39740.00    174293.70
  135.22        2963.00           2170       47828.00    210029.10
  135.26        2963.25           2173       51970.00    228364.70
  135.29        2963.50           2177       59210.00    260471.00
  135.32        2963.75           2180       66032.00    290790.20
  135.35        2964.00           2184       75720.00    333958.40
  135.38        2964.25           2188       85091.00    375839.20
  135.41        2964.50           2191       91868.00    406204.10
  135.44        2964.75           2195      101030.00    447358.90
  135.47        2965.00           2199      109728.00    486540.30
  135.50        2965.25           2202      116781.00    518391.30
  135.53        2965.50           2206      126160.00    560857.80
  135.56        2965.75           2209      132902.00    591463.40
  135.59        2966.00           2213      141567.00    630896.10
  135.62        2966.25           2217      150079.00    669739.90
  135.65        2966.50           2220      155826.00    696026.50
  135.68        2966.75           2224      160742.00    718551.00
  135.71        2967.00           2228      162295.00    725674.30
  135.74        2967.25           2231      162095.00    724756.60
  135.78        2967.50           2235      162450.00    726385.30
  135.81        2967.75           2238      162398.00    726146.70
  135.84        2968.00           2242      161023.00    719839.60
  135.87        2968.25           2246      156901.00    700949.00
  135.90        2968.50           2249      152380.00    680258.70
  135.93        2968.75           2253      144235.00    643059.80
  135.96        2969.00           2257      135652.00    603966.20
  135.99        2969.25           2260      128728.00    572507.50
  136.02        2969.50           2264      119516.00    530761.80
  136.05        2969.75           2267      111729.00    495569.50
  136.08        2970.00           2271      102123.00    452276.60
  136.11        2970.25           2275       93409.00    413117.80
  136.14        2970.50           2278       86682.00    382962.00
  136.17        2970.75           2282       76927.00    339345.80
  136.20        2971.00           2286       67305.00    296455.00
  136.23        2971.25           2289       59613.00    262260.30
  136.26        2971.50           2293       50022.00    219738.40
  136.29        2971.75           2296       41987.00    184212.70
  136.33        2972.00           2300       31654.00    138656.50
  136.36        2972.25           2304       22135.00     96817.50
  136.39        2972.50           2307       15711.00     68651.24
  136.42        2972.75           2311        8434.00     36812.00
  136.45        2973.00           2315        3234.00     14103.74
  136.48        2973.25           2318        1459.00      6360.61
  136.51        2973.50           2322         682.00      2972.41
  136.54        2973.75           2326         557.00      2427.41
  136.57        2974.00           2329         547.00      2383.81
  136.60        2974.25           2333         497.00      2165.81
  136.63        2974.50           2336         505.00      2200.69
  136.66        2974.75           2340         508.00      2213.77
  136.69        2975.00           2344         463.00      2017.58
  136.72        2975.25           2347         441.00      1921.66
  136.75        2975.50           2351         442.00      1926.02
  136.78        2975.75           2355         438.00      1908.58
  136.81        2976.00           2358         437.00      1904.22
  136.85        2976.25           2362         409.00      1782.15
  136.88        2976.50           2365         424.00      1847.55
  136.91        2976.75           2369         411.00      1790.87
  136.94        2977.00           2373         418.00      1821.39
  136.97        2977.25           2376         397.00      1729.83
  137.00        2977.50           2380         416.00      1812.67
  137.03        2977.75           2384         420.00      1830.11
  137.06        2978.00           2387         411.00      1790.87
  137.09        2978.25           2391         382.00      1664.44
  137.12        2978.50           2395         386.00      1681.88
  137.15        2978.75           2398         389.00      1694.96
  137.18        2979.00           2402         385.00      1677.52
  137.21        2979.25           2405         360.00      1568.53
  137.24        2979.50           2409         354.00      1542.37
  137.27        2979.75           2413         373.00      1625.20
  137.30        2980.00           2416         362.00      1577.24
  137.33        2980.25           2420         361.00      1572.89
  137.36        2980.50           2424         340.00      1481.33
  137.39        2980.75           2427         355.00      1546.73
  137.43        2981.00           2431         339.00      1476.97
  137.46        2981.25           2435         342.00      1490.05
  137.49        2981.50           2438         354.00      1542.37
  137.52        2981.75           2442         324.00      1411.58
  137.55        2982.00           2445         341.00      1485.69
  137.58        2982.25           2449         318.00      1385.42
  137.61        2982.50           2453         311.00      1354.90
  137.64        2982.75           2456         318.00      1385.42
  137.67        2983.00           2460         325.00      1415.94
  137.70        2983.25           2464         318.00      1385.42
  137.73        2983.50           2467         328.00      1429.02
  137.76        2983.75           2471         319.00      1389.78
  137.79        2984.00           2475         311.00      1354.90
HS scan finished at 02:18:01
end
