************************************************************
  HS Scan of (1) Internal mercury lamp
************************************************************
Integration time is 0.2294 seconds per sample
dh170619Arenosillo 37.1 6.73 2.96pr1000
************************************************************
Dead Time -------------------------  4.1E-08 
Number of Cycles Used -------------  4 
Starting Wavelength (Angstroms) ---  2950 
Final Wavelength (Angstoms) -------  2984 
Wavelength Increment (Angstroms) --  .25 
Filter Wheel #1 Position ---------- (1) Ground quartz diffuser (ND=2.32)
Filter Wheel #2 Position ---------- (1) Neutral Density 0.494



************************************************************
HS scan start time = 22:01:10
Dark Count =  .4 


Time (GMT)  Wavelength (Ang)  Step Number  Raw Counts  Counts/Second

 1322.05        2950.00           1981         951.00      4144.56
 1322.23        2950.25           1985         979.00      4266.66
 1322.26        2950.50           1989         959.00      4179.44
 1322.29        2950.75           1992         974.00      4244.85
 1322.32        2951.00           1996         985.00      4292.82
 1322.36        2951.25           1999         979.00      4266.66
 1322.39        2951.50           2003         979.00      4266.66
 1322.42        2951.75           2007        1004.00      4375.68
 1322.45        2952.00           2010        1011.00      4406.20
 1322.48        2952.25           2014         995.00      4336.43
 1322.51        2952.50           2017         971.00      4231.77
 1322.54        2952.75           2021         955.00      4162.00
 1322.57        2953.00           2025         953.00      4153.28
 1322.60        2953.25           2028         976.00      4253.58
 1322.63        2953.50           2032         990.00      4314.63
 1322.66        2953.75           2036        1046.00      4558.83
 1322.69        2954.00           2039         999.00      4353.87
 1322.72        2954.25           2043         992.00      4323.35
 1322.75        2954.50           2046         995.00      4336.43
 1322.78        2954.75           2050        1000.00      4358.23
 1322.81        2955.00           2054        1026.00      4471.61
 1322.84        2955.25           2057        1030.00      4489.06
 1322.87        2955.50           2061        1038.00      4523.94
 1322.90        2955.75           2065        1054.00      4593.72
 1322.94        2956.00           2068        1041.00      4537.03
 1322.97        2956.25           2072        1058.00      4611.16
 1323.00        2956.50           2075        1068.00      4654.77
 1323.03        2956.75           2079        1078.00      4698.38
 1323.06        2957.00           2083        1097.00      4781.23
 1323.09        2957.25           2086        1096.00      4776.87
 1323.12        2957.50           2090        1098.00      4785.59
 1323.15        2957.75           2093        1105.00      4816.12
 1323.18        2958.00           2097        1099.00      4789.96
 1323.21        2958.25           2101        1167.00      5086.50
 1323.24        2958.50           2104        1159.00      5051.61
 1323.27        2958.75           2108        1164.00      5073.42
 1323.30        2959.00           2112        1198.00      5221.69
 1323.33        2959.25           2115        1199.00      5226.05
 1323.36        2959.50           2119        1217.00      5304.55
 1323.39        2959.75           2122        1246.00      5431.03
 1323.42        2960.00           2126        1270.00      5535.69
 1323.46        2960.25           2130        1289.00      5618.56
 1323.49        2960.50           2133        1301.00      5670.89
 1323.52        2960.75           2137        1410.00      6146.27
 1323.55        2961.00           2141        1489.00      6490.83
 1323.58        2961.25           2144        2077.00      9055.67
 1323.61        2961.50           2148        5455.00     23800.90
 1323.64        2961.75           2151       11724.00     51212.91
 1323.67        2962.00           2155       24634.00    107858.70
 1323.70        2962.25           2159       41918.00    184111.70
 1323.73        2962.50           2162       55313.00    243538.20
 1323.76        2962.75           2166       72622.00    320762.80
 1323.79        2963.00           2170       89239.00    395366.00
 1323.82        2963.25           2173      103781.00    461032.90
 1323.85        2963.50           2177      123499.00    550647.30
 1323.88        2963.75           2180      138552.00    619511.20
 1323.91        2964.00           2184      157853.00    708389.20
 1323.94        2964.25           2188      174248.00    784405.40
 1323.97        2964.50           2191      185140.00    835174.10
 1324.01        2964.75           2195      203500.00    921242.20
 1324.04        2965.00           2199      221638.00   1006882.00
 1324.07        2965.25           2202      234637.00   1068638.00
 1324.10        2965.50           2206      252052.00   1151878.00
 1324.13        2965.75           2209      265973.00   1218839.00
 1324.16        2966.00           2213      282897.00   1300756.00
 1324.19        2966.25           2217      299472.00   1381535.00
 1324.22        2966.50           2220      310823.00   1437175.00
 1324.25        2966.75           2224      320559.00   1485108.00
 1324.28        2967.00           2228      323900.00   1501601.00
 1324.31        2967.25           2231      324916.00   1506622.00
 1324.34        2967.50           2235      324903.00   1506557.00
 1324.37        2967.75           2238      324226.00   1503212.00
 1324.40        2968.00           2242      322381.00   1494100.00
 1324.43        2968.25           2246      315973.00   1462505.00
 1324.46        2968.50           2249      306987.00   1418343.00
 1324.49        2968.75           2253      291048.00   1340411.00
 1324.53        2969.00           2257      273737.00   1256348.00
 1324.56        2969.25           2260      260255.00   1191289.00
 1324.59        2969.50           2264      242837.00   1107760.00
 1324.62        2969.75           2267      230139.00   1047233.00
 1324.65        2970.00           2271      209701.00    950451.80
 1324.68        2970.25           2275      189278.00    854518.40
 1324.71        2970.50           2278      174216.00    784256.50
 1324.74        2970.75           2282      154758.00    694093.00
 1324.77        2971.00           2286      136738.00    611191.80
 1324.80        2971.25           2289      124045.00    553138.30
 1324.83        2971.50           2293      104618.00    464823.50
 1324.86        2971.75           2296       90073.00    399122.50
 1324.89        2972.00           2300       69883.00    308509.90
 1324.92        2972.25           2304       47379.00    208304.10
 1324.95        2972.50           2307       30771.00    134879.00
 1324.98        2972.75           2311       14074.00     61504.51
 1325.01        2973.00           2315        5558.00     24250.78
 1325.04        2973.25           2318        2628.00     11459.61
 1325.07        2973.50           2322        1504.00      6556.25
 1325.10        2973.75           2326        1382.00      6024.16
 1325.14        2974.00           2329        1324.00      5771.20
 1325.17        2974.25           2333        1243.00      5417.94
 1325.20        2974.50           2336        1253.00      5461.55
 1325.23        2974.75           2340        1225.00      5339.44
 1325.26        2975.00           2344        1167.00      5086.50
 1325.29        2975.25           2347        1162.00      5064.70
 1325.32        2975.50           2351        1151.00      5016.73
 1325.35        2975.75           2355        1134.00      4942.59
 1325.38        2976.00           2358        1082.00      4715.82
 1325.41        2976.25           2362        1075.00      4685.29
 1325.44        2976.50           2365        1071.00      4667.85
 1325.47        2976.75           2369        1062.00      4628.60
 1325.50        2977.00           2373        1070.00      4663.49
 1325.53        2977.25           2376        1038.00      4523.94
 1325.56        2977.50           2380         987.00      4301.54
 1325.59        2977.75           2384        1016.00      4428.01
 1325.62        2978.00           2387         989.00      4310.26
 1325.66        2978.25           2391         993.00      4327.71
 1325.69        2978.50           2395         971.00      4231.77
 1325.72        2978.75           2398         976.00      4253.58
 1325.75        2979.00           2402         957.00      4170.72
 1325.78        2979.25           2405         948.00      4131.48
 1325.81        2979.50           2409         934.00      4070.43
 1325.84        2979.75           2413         958.00      4175.08
 1325.87        2980.00           2416         953.00      4153.28
 1325.90        2980.25           2420         932.00      4061.71
 1325.93        2980.50           2424         921.00      4013.74
 1325.96        2980.75           2427         902.00      3930.89
 1325.99        2981.00           2431         930.00      4052.98
 1326.02        2981.25           2435         895.00      3900.36
 1326.05        2981.50           2438         870.00      3791.35
 1326.08        2981.75           2442         897.00      3909.08
 1326.11        2982.00           2445         850.00      3704.14
 1326.14        2982.25           2449         861.00      3752.10
 1326.17        2982.50           2453         859.00      3743.38
 1326.21        2982.75           2456         880.00      3834.95
 1326.24        2983.00           2460         857.00      3734.66
 1326.27        2983.25           2464         870.00      3791.35
 1326.30        2983.50           2467         849.00      3699.78
 1326.33        2983.75           2471         818.00      3564.60
 1326.36        2984.00           2475         825.00      3595.12
HS scan finished at 22:06:35
end
