************************************************************
  HS Scan of (1) Internal mercury lamp
************************************************************
Integration time is 0.2294 seconds per sample
dh180619Arenosillo 37.1 6.73 2.96pr1000
************************************************************
Dead Time -------------------------  4.1E-08 
Number of Cycles Used -------------  4 
Starting Wavelength (Angstroms) ---  2950 
Final Wavelength (Angstoms) -------  2984 
Wavelength Increment (Angstroms) --  .25 
Filter Wheel #1 Position ---------- (1) Ground quartz diffuser (ND=2.32)
Filter Wheel #2 Position ---------- (1) Neutral Density 0.494



************************************************************
HS scan start time = 02:04:40
Dark Count =  .5 


Time (GMT)  Wavelength (Ang)  Step Number  Raw Counts  Counts/Second

  125.55        2950.00           1981        1046.00      4558.39
  125.73        2950.25           1985        1062.00      4628.17
  125.76        2950.50           1989        1096.00      4776.44
  125.79        2950.75           1992        1042.00      4540.95
  125.82        2951.00           1996        1068.00      4654.33
  125.85        2951.25           1999        1081.00      4711.02
  125.88        2951.50           2003        1088.00      4741.55
  125.91        2951.75           2007        1046.00      4558.39
  125.94        2952.00           2010        1078.00      4697.94
  125.97        2952.25           2014        1084.00      4724.11
  126.00        2952.50           2017        1082.00      4715.38
  126.03        2952.75           2021        1087.00      4737.19
  126.06        2953.00           2025        1095.00      4772.08
  126.10        2953.25           2028        1073.00      4676.14
  126.13        2953.50           2032        1112.00      4846.21
  126.16        2953.75           2036        1077.00      4693.58
  126.19        2954.00           2039        1102.00      4802.60
  126.22        2954.25           2043        1121.00      4885.46
  126.25        2954.50           2046        1138.00      4959.60
  126.28        2954.75           2050        1149.00      5007.57
  126.31        2955.00           2054        1089.00      4745.91
  126.34        2955.25           2057        1138.00      4959.60
  126.37        2955.50           2061        1167.00      5086.06
  126.40        2955.75           2065        1149.00      5007.57
  126.43        2956.00           2068        1146.00      4994.48
  126.46        2956.25           2072        1175.00      5120.95
  126.49        2956.50           2075        1174.00      5116.59
  126.52        2956.75           2079        1167.00      5086.06
  126.55        2957.00           2083        1185.00      5164.56
  126.58        2957.25           2086        1225.00      5339.01
  126.62        2957.50           2090        1202.00      5238.70
  126.65        2957.75           2093        1235.00      5382.62
  126.68        2958.00           2097        1271.00      5539.62
  126.71        2958.25           2101        1266.00      5517.81
  126.74        2958.50           2104        1286.00      5605.04
  126.77        2958.75           2108        1266.00      5517.81
  126.80        2959.00           2112        1306.00      5692.26
  126.83        2959.25           2115        1362.00      5936.49
  126.86        2959.50           2119        1308.00      5700.98
  126.89        2959.75           2122        1367.00      5958.30
  126.92        2960.00           2126        1380.00      6015.00
  126.95        2960.25           2130        1428.00      6224.34
  126.98        2960.50           2133        1475.00      6429.33
  127.01        2960.75           2137        1505.00      6560.18
  127.04        2961.00           2141        1509.00      6577.62
  127.07        2961.25           2144        1727.00      7528.48
  127.10        2961.50           2148        2947.00     12851.15
  127.13        2961.75           2151        6482.00     28286.93
  127.17        2962.00           2155       18292.00     79998.23
  127.20        2962.25           2159       36295.00    159251.30
  127.23        2962.50           2162       49966.00    219781.10
  127.26        2962.75           2166       69318.00    305983.40
  127.29        2963.00           2170       91276.00    404542.50
  127.32        2963.25           2173      108882.00    484151.80
  127.35        2963.50           2177      133934.00    598342.60
  127.38        2963.75           2180      152003.00    681381.10
  127.41        2964.00           2184      173617.00    781470.40
  127.44        2964.25           2188      191874.00    866669.60
  127.47        2964.50           2191      204811.00    927411.20
  127.50        2964.75           2195      224908.00   1022387.00
  127.53        2965.00           2199      245470.00   1120349.00
  127.56        2965.25           2202      261376.00   1196685.00
  127.59        2965.50           2206      281659.00   1294744.00
  127.62        2965.75           2209      296818.00   1368563.00
  127.65        2966.00           2213      317473.00   1469893.00
  127.69        2966.25           2217      336335.00   1563192.00
  127.72        2966.50           2220      348018.00   1621353.00
  127.75        2966.75           2224      358685.00   1674708.00
  127.78        2967.00           2228      362590.00   1694301.00
  127.81        2967.25           2231      362817.00   1695441.00
  127.84        2967.50           2235      363066.00   1696692.00
  127.87        2967.75           2238      363133.00   1697029.00
  127.90        2968.00           2242      361559.00   1689125.00
  127.93        2968.25           2246      356954.00   1666034.00
  127.96        2968.50           2249      348403.00   1623275.00
  127.99        2968.75           2253      329765.00   1530610.00
  128.02        2969.00           2257      306666.00   1416767.00
  128.05        2969.25           2260      290730.00   1338861.00
  128.08        2969.50           2264      269051.00   1233695.00
  128.11        2969.75           2267      253482.00   1158739.00
  128.14        2970.00           2271      232150.00   1056798.00
  128.17        2970.25           2275      211372.00    958334.80
  128.20        2970.50           2278      195823.00    885178.20
  128.23        2970.75           2282      174163.00    784009.60
  128.27        2971.00           2286      153126.00    686561.00
  128.30        2971.25           2289      137418.00    614309.30
  128.33        2971.50           2293      115851.00    515809.20
  128.36        2971.75           2296      100204.00    444846.80
  128.39        2972.00           2300       77260.00    341538.80
  128.42        2972.25           2304       53637.00    236086.30
  128.45        2972.50           2307       37450.00    164353.60
  128.48        2972.75           2311       19384.00     84790.78
  128.51        2973.00           2315        8488.00     37054.95
  128.54        2973.25           2318        4005.00     17468.91
  128.57        2973.50           2322        1841.00      8025.74
  128.60        2973.75           2326        1530.00      6669.22
  128.63        2974.00           2329        1457.00      6350.83
  128.66        2974.25           2333        1400.00      6102.22
  128.69        2974.50           2336        1396.00      6084.78
  128.72        2974.75           2340        1350.00      5884.16
  128.75        2975.00           2344        1315.00      5731.51
  128.79        2975.25           2347        1310.00      5709.71
  128.82        2975.50           2351        1267.00      5522.17
  128.85        2975.75           2355        1252.00      5456.76
  128.88        2976.00           2358        1251.00      5452.40
  128.91        2976.25           2362        1221.00      5321.56
  128.94        2976.50           2365        1194.00      5203.81
  128.97        2976.75           2369        1188.00      5177.65
  129.00        2977.00           2373        1163.00      5068.62
  129.03        2977.25           2376        1173.00      5112.23
  129.06        2977.50           2380        1121.00      4885.46
  129.09        2977.75           2384        1094.00      4767.72
  129.12        2978.00           2387        1127.00      4911.63
  129.15        2978.25           2391        1098.00      4785.16
  129.18        2978.50           2395        1070.00      4663.05
  129.21        2978.75           2398        1082.00      4715.38
  129.24        2979.00           2402        1063.00      4632.53
  129.27        2979.25           2405        1041.00      4536.59
  129.30        2979.50           2409        1017.00      4431.93
  129.33        2979.75           2413        1015.00      4423.21
  129.37        2980.00           2416        1032.00      4497.34
  129.40        2980.25           2420        1007.00      4388.32
  129.43        2980.50           2424         981.00      4274.94
  129.46        2980.75           2427         970.00      4226.98
  129.49        2981.00           2431        1033.00      4501.70
  129.52        2981.25           2435         993.00      4327.27
  129.55        2981.50           2438         998.00      4349.08
  129.58        2981.75           2442         969.00      4222.61
  129.61        2982.00           2445         939.00      4091.79
  129.64        2982.25           2449         945.00      4117.96
  129.67        2982.50           2453         977.00      4257.50
  129.70        2982.75           2456         976.00      4253.14
  129.73        2983.00           2460         946.00      4122.32
  129.76        2983.25           2464         945.00      4117.96
  129.79        2983.50           2467         938.00      4087.43
  129.82        2983.75           2471         930.00      4052.55
  129.85        2984.00           2475         934.00      4069.99
HS scan finished at 02:10:05
end
************************************************************
  HS Scan of (1) Internal mercury lamp
************************************************************
Integration time is 0.2294 seconds per sample
dh180619Arenosillo 37.1 6.73 3.19pr1000
************************************************************
Dead Time -------------------------  4.1E-08 
Number of Cycles Used -------------  4 
Starting Wavelength (Angstroms) ---  2950 
Final Wavelength (Angstoms) -------  2984 
Wavelength Increment (Angstroms) --  .25 
Filter Wheel #1 Position ---------- (1) Ground quartz diffuser (ND=2.32)
Filter Wheel #2 Position ---------- (1) Neutral Density 0.494



************************************************************
HS scan start time = 21:44:50
Dark Count =  .8 


Time (GMT)  Wavelength (Ang)  Step Number  Raw Counts  Counts/Second

 1305.71        2950.00           1981         905.00      3942.22
 1305.89        2950.25           1985         942.00      4103.57
 1305.92        2950.50           1989         951.00      4142.81
 1305.95        2950.75           1992         922.00      4016.35
 1305.98        2951.00           1996         903.00      3933.50
 1306.01        2951.25           1999         951.00      4142.81
 1306.05        2951.50           2003         936.00      4077.40
 1306.08        2951.75           2007         966.00      4208.22
 1306.11        2952.00           2010         963.00      4195.14
 1306.14        2952.25           2014         950.00      4138.45
 1306.17        2952.50           2017         937.00      4081.76
 1306.20        2952.75           2021         957.00      4168.98
 1306.23        2953.00           2025         990.00      4312.88
 1306.26        2953.25           2028         976.00      4251.83
 1306.29        2953.50           2032         976.00      4251.83
 1306.32        2953.75           2036         970.00      4225.67
 1306.35        2954.00           2039         950.00      4138.45
 1306.38        2954.25           2043        1010.00      4400.10
 1306.41        2954.50           2046         962.00      4190.78
 1306.44        2954.75           2050         987.00      4299.80
 1306.47        2955.00           2054        1002.00      4365.21
 1306.50        2955.25           2057         994.00      4330.32
 1306.53        2955.50           2061         996.00      4339.05
 1306.56        2955.75           2065        1008.00      4391.38
 1306.60        2956.00           2068        1033.00      4500.39
 1306.63        2956.25           2072        1045.00      4552.72
 1306.66        2956.50           2075        1045.00      4552.72
 1306.69        2956.75           2079        1063.00      4631.22
 1306.72        2957.00           2083        1077.00      4692.27
 1306.75        2957.25           2086        1062.00      4626.86
 1306.78        2957.50           2090        1079.00      4700.99
 1306.81        2957.75           2093        1101.00      4796.93
 1306.84        2958.00           2097        1122.00      4888.51
 1306.87        2958.25           2101        1103.00      4805.66
 1306.90        2958.50           2104        1118.00      4871.07
 1306.93        2958.75           2108        1151.00      5014.98
 1306.96        2959.00           2112        1187.00      5171.98
 1306.99        2959.25           2115        1173.00      5110.92
 1307.02        2959.50           2119        1220.00      5315.89
 1307.05        2959.75           2122        1217.00      5302.81
 1307.08        2960.00           2126        1238.00      5394.39
 1307.12        2960.25           2130        1256.00      5472.89
 1307.15        2960.50           2133        1333.00      5808.71
 1307.18        2960.75           2137        1425.00      6209.95
 1307.21        2961.00           2141        1898.00      8273.08
 1307.24        2961.25           2144        3045.00     13277.50
 1307.27        2961.50           2148        7254.00     31659.21
 1307.30        2961.75           2151       14570.00     63676.05
 1307.33        2962.00           2155       29679.00    130064.90
 1307.36        2962.25           2159       48847.00    214813.90
 1307.39        2962.50           2162       63807.00    281371.20
 1307.42        2962.75           2166       81643.00    361204.30
 1307.45        2963.00           2170      100721.00    447183.50
 1307.48        2963.25           2173      116112.00    516995.10
 1307.51        2963.50           2177      136240.00    608907.00
 1307.54        2963.75           2180      150787.00    675773.40
 1307.57        2964.00           2184      168510.00    757744.30
 1307.60        2964.25           2188      182472.00    822716.70
 1307.63        2964.50           2191      191529.00    865052.60
 1307.66        2964.75           2195      208641.00    945451.80
 1307.70        2965.00           2199      226669.00   1030744.00
 1307.73        2965.25           2202      239576.00   1092185.00
 1307.76        2965.50           2206      256848.00   1174903.00
 1307.79        2965.75           2209      270881.00   1242535.00
 1307.82        2966.00           2213      290320.00   1336862.00
 1307.85        2966.25           2217      308384.00   1425196.00
 1307.88        2966.50           2220      317342.00   1469246.00
 1307.91        2966.75           2224      323769.00   1500952.00
 1307.94        2967.00           2228      325273.00   1508384.00
 1307.97        2967.25           2231      325224.00   1508142.00
 1308.00        2967.50           2235      325102.00   1507539.00
 1308.03        2967.75           2238      324156.00   1502864.00
 1308.06        2968.00           2242      322792.00   1496127.00
 1308.09        2968.25           2246      314756.00   1456513.00
 1308.12        2968.50           2249      305983.00   1413417.00
 1308.15        2968.75           2253      290259.00   1336565.00
 1308.18        2969.00           2257      272372.00   1249743.00
 1308.22        2969.25           2260      258130.00   1181065.00
 1308.25        2969.50           2264      239313.00   1090929.00
 1308.28        2969.75           2267      224693.00   1021365.00
 1308.31        2970.00           2271      203746.00    922397.80
 1308.34        2970.25           2275      184557.00    832449.60
 1308.37        2970.50           2278      170706.00    767940.10
 1308.40        2970.75           2282      152869.00    685374.00
 1308.43        2971.00           2286      132206.00    590430.00
 1308.46        2971.25           2289      114911.00    511533.00
 1308.49        2971.50           2293       91572.00    405875.30
 1308.52        2971.75           2296       73648.00    325354.00
 1308.55        2972.00           2300       54028.00    237823.00
 1308.58        2972.25           2304       36963.00    162200.60
 1308.61        2972.50           2307       24419.00    106911.40
 1308.64        2972.75           2311       11736.00     51263.70
 1308.67        2973.00           2315        4768.00     20798.90
 1308.70        2973.25           2318        2403.00     10476.16
 1308.73        2973.50           2322        1389.00      6052.94
 1308.76        2973.75           2326        1223.00      5328.98
 1308.80        2974.00           2329        1177.00      5128.37
 1308.83        2974.25           2333        1166.00      5080.40
 1308.86        2974.50           2336        1114.00      4853.62
 1308.89        2974.75           2340        1088.00      4740.24
 1308.92        2975.00           2344        1071.00      4666.11
 1308.95        2975.25           2347        1065.00      4639.94
 1308.98        2975.50           2351        1005.00      4378.29
 1309.01        2975.75           2355         965.00      4203.86
 1309.04        2976.00           2358        1011.00      4404.46
 1309.07        2976.25           2362         965.00      4203.86
 1309.10        2976.50           2365         966.00      4208.22
 1309.13        2976.75           2369         949.00      4134.09
 1309.16        2977.00           2373         918.00      3998.91
 1309.19        2977.25           2376         905.00      3942.22
 1309.22        2977.50           2380         904.00      3937.86
 1309.25        2977.75           2384         908.00      3955.31
 1309.28        2978.00           2387         849.00      3698.03
 1309.32        2978.25           2391         857.00      3732.92
 1309.35        2978.50           2395         843.00      3671.87
 1309.38        2978.75           2398         845.00      3680.59
 1309.41        2979.00           2402         845.00      3680.59
 1309.44        2979.25           2405         853.00      3715.47
 1309.47        2979.50           2409         838.00      3650.07
 1309.50        2979.75           2413         844.00      3676.23
 1309.53        2980.00           2416         814.00      3545.42
 1309.56        2980.25           2420         810.00      3527.97
 1309.59        2980.50           2424         830.00      3615.18
 1309.62        2980.75           2427         826.00      3597.74
 1309.65        2981.00           2431         785.00      3418.96
 1309.68        2981.25           2435         793.00      3453.85
 1309.71        2981.50           2438         810.00      3527.97
 1309.74        2981.75           2442         785.00      3418.96
 1309.77        2982.00           2445         756.00      3292.51
 1309.80        2982.25           2449         784.00      3414.60
 1309.83        2982.50           2453         797.00      3471.29
 1309.86        2982.75           2456         770.00      3353.56
 1309.90        2983.00           2460         795.00      3462.57
 1309.93        2983.25           2464         772.00      3362.28
 1309.96        2983.50           2467         796.00      3466.93
 1309.99        2983.75           2471         748.00      3257.63
 1310.02        2984.00           2475         736.00      3205.30
HS scan finished at 21:50:15
end
