************************************************************
  HS Scan of (1) Internal mercury lamp
************************************************************
Integration time is 0.2294 seconds per sample
dh180619Arenosillo 37.1 6.73 2.96pr1000
************************************************************
Dead Time -------------------------  4.1E-08 
Number of Cycles Used -------------  4 
Starting Wavelength (Angstroms) ---  2950 
Final Wavelength (Angstoms) -------  2984 
Wavelength Increment (Angstroms) --  .25 
Filter Wheel #1 Position ---------- (1) Ground quartz diffuser (ND=2.32)
Filter Wheel #2 Position ---------- (1) Neutral Density 0.494



************************************************************
HS scan start time = 02:04:40
Dark Count =  .5 


Time (GMT)  Wavelength (Ang)  Step Number  Raw Counts  Counts/Second

  125.55        2950.00           1981        1046.00      4558.39
  125.73        2950.25           1985        1062.00      4628.17
  125.76        2950.50           1989        1096.00      4776.44
  125.79        2950.75           1992        1042.00      4540.95
  125.82        2951.00           1996        1068.00      4654.33
  125.85        2951.25           1999        1081.00      4711.02
  125.88        2951.50           2003        1088.00      4741.55
  125.91        2951.75           2007        1046.00      4558.39
  125.94        2952.00           2010        1078.00      4697.94
  125.97        2952.25           2014        1084.00      4724.11
  126.00        2952.50           2017        1082.00      4715.38
  126.03        2952.75           2021        1087.00      4737.19
  126.06        2953.00           2025        1095.00      4772.08
  126.10        2953.25           2028        1073.00      4676.14
  126.13        2953.50           2032        1112.00      4846.21
  126.16        2953.75           2036        1077.00      4693.58
  126.19        2954.00           2039        1102.00      4802.60
  126.22        2954.25           2043        1121.00      4885.46
  126.25        2954.50           2046        1138.00      4959.60
  126.28        2954.75           2050        1149.00      5007.57
  126.31        2955.00           2054        1089.00      4745.91
  126.34        2955.25           2057        1138.00      4959.60
  126.37        2955.50           2061        1167.00      5086.06
  126.40        2955.75           2065        1149.00      5007.57
  126.43        2956.00           2068        1146.00      4994.48
  126.46        2956.25           2072        1175.00      5120.95
  126.49        2956.50           2075        1174.00      5116.59
  126.52        2956.75           2079        1167.00      5086.06
  126.55        2957.00           2083        1185.00      5164.56
  126.58        2957.25           2086        1225.00      5339.01
  126.62        2957.50           2090        1202.00      5238.70
  126.65        2957.75           2093        1235.00      5382.62
  126.68        2958.00           2097        1271.00      5539.62
  126.71        2958.25           2101        1266.00      5517.81
  126.74        2958.50           2104        1286.00      5605.04
  126.77        2958.75           2108        1266.00      5517.81
  126.80        2959.00           2112        1306.00      5692.26
  126.83        2959.25           2115        1362.00      5936.49
  126.86        2959.50           2119        1308.00      5700.98
  126.89        2959.75           2122        1367.00      5958.30
  126.92        2960.00           2126        1380.00      6015.00
  126.95        2960.25           2130        1428.00      6224.34
  126.98        2960.50           2133        1475.00      6429.33
  127.01        2960.75           2137        1505.00      6560.18
  127.04        2961.00           2141        1509.00      6577.62
  127.07        2961.25           2144        1727.00      7528.48
  127.10        2961.50           2148        2947.00     12851.15
  127.13        2961.75           2151        6482.00     28286.93
  127.17        2962.00           2155       18292.00     79998.23
  127.20        2962.25           2159       36295.00    159251.30
  127.23        2962.50           2162       49966.00    219781.10
  127.26        2962.75           2166       69318.00    305983.40
  127.29        2963.00           2170       91276.00    404542.50
  127.32        2963.25           2173      108882.00    484151.80
  127.35        2963.50           2177      133934.00    598342.60
  127.38        2963.75           2180      152003.00    681381.10
  127.41        2964.00           2184      173617.00    781470.40
  127.44        2964.25           2188      191874.00    866669.60
  127.47        2964.50           2191      204811.00    927411.20
  127.50        2964.75           2195      224908.00   1022387.00
  127.53        2965.00           2199      245470.00   1120349.00
  127.56        2965.25           2202      261376.00   1196685.00
  127.59        2965.50           2206      281659.00   1294744.00
  127.62        2965.75           2209      296818.00   1368563.00
  127.65        2966.00           2213      317473.00   1469893.00
  127.69        2966.25           2217      336335.00   1563192.00
  127.72        2966.50           2220      348018.00   1621353.00
  127.75        2966.75           2224      358685.00   1674708.00
  127.78        2967.00           2228      362590.00   1694301.00
  127.81        2967.25           2231      362817.00   1695441.00
  127.84        2967.50           2235      363066.00   1696692.00
  127.87        2967.75           2238      363133.00   1697029.00
  127.90        2968.00           2242      361559.00   1689125.00
  127.93        2968.25           2246      356954.00   1666034.00
  127.96        2968.50           2249      348403.00   1623275.00
  127.99        2968.75           2253      329765.00   1530610.00
  128.02        2969.00           2257      306666.00   1416767.00
  128.05        2969.25           2260      290730.00   1338861.00
  128.08        2969.50           2264      269051.00   1233695.00
  128.11        2969.75           2267      253482.00   1158739.00
  128.14        2970.00           2271      232150.00   1056798.00
  128.17        2970.25           2275      211372.00    958334.80
  128.20        2970.50           2278      195823.00    885178.20
  128.23        2970.75           2282      174163.00    784009.60
  128.27        2971.00           2286      153126.00    686561.00
  128.30        2971.25           2289      137418.00    614309.30
  128.33        2971.50           2293      115851.00    515809.20
  128.36        2971.75           2296      100204.00    444846.80
  128.39        2972.00           2300       77260.00    341538.80
  128.42        2972.25           2304       53637.00    236086.30
  128.45        2972.50           2307       37450.00    164353.60
  128.48        2972.75           2311       19384.00     84790.78
  128.51        2973.00           2315        8488.00     37054.95
  128.54        2973.25           2318        4005.00     17468.91
  128.57        2973.50           2322        1841.00      8025.74
  128.60        2973.75           2326        1530.00      6669.22
  128.63        2974.00           2329        1457.00      6350.83
  128.66        2974.25           2333        1400.00      6102.22
  128.69        2974.50           2336        1396.00      6084.78
  128.72        2974.75           2340        1350.00      5884.16
  128.75        2975.00           2344        1315.00      5731.51
  128.79        2975.25           2347        1310.00      5709.71
  128.82        2975.50           2351        1267.00      5522.17
  128.85        2975.75           2355        1252.00      5456.76
  128.88        2976.00           2358        1251.00      5452.40
  128.91        2976.25           2362        1221.00      5321.56
  128.94        2976.50           2365        1194.00      5203.81
  128.97        2976.75           2369        1188.00      5177.65
  129.00        2977.00           2373        1163.00      5068.62
  129.03        2977.25           2376        1173.00      5112.23
  129.06        2977.50           2380        1121.00      4885.46
  129.09        2977.75           2384        1094.00      4767.72
  129.12        2978.00           2387        1127.00      4911.63
  129.15        2978.25           2391        1098.00      4785.16
  129.18        2978.50           2395        1070.00      4663.05
  129.21        2978.75           2398        1082.00      4715.38
  129.24        2979.00           2402        1063.00      4632.53
  129.27        2979.25           2405        1041.00      4536.59
  129.30        2979.50           2409        1017.00      4431.93
  129.33        2979.75           2413        1015.00      4423.21
  129.37        2980.00           2416        1032.00      4497.34
  129.40        2980.25           2420        1007.00      4388.32
  129.43        2980.50           2424         981.00      4274.94
  129.46        2980.75           2427         970.00      4226.98
  129.49        2981.00           2431        1033.00      4501.70
  129.52        2981.25           2435         993.00      4327.27
  129.55        2981.50           2438         998.00      4349.08
  129.58        2981.75           2442         969.00      4222.61
  129.61        2982.00           2445         939.00      4091.79
  129.64        2982.25           2449         945.00      4117.96
  129.67        2982.50           2453         977.00      4257.50
  129.70        2982.75           2456         976.00      4253.14
  129.73        2983.00           2460         946.00      4122.32
  129.76        2983.25           2464         945.00      4117.96
  129.79        2983.50           2467         938.00      4087.43
  129.82        2983.75           2471         930.00      4052.55
  129.85        2984.00           2475         934.00      4069.99
HS scan finished at 02:10:05
end
