************************************************************
  HS Scan of (1) Internal mercury lamp
************************************************************
Integration time is 0.2294 seconds per sample
dh210619Arenosillo 37.1 6.73 3.07pr1000
************************************************************
Dead Time -------------------------  4.1E-08 
Number of Cycles Used -------------  4 
Starting Wavelength (Angstroms) ---  2950 
Final Wavelength (Angstoms) -------  2984 
Wavelength Increment (Angstroms) --  .25 
Filter Wheel #1 Position ---------- (1) Ground quartz diffuser (ND=2.32)
Filter Wheel #2 Position ---------- (1) Neutral Density 0.494



************************************************************
HS scan start time = 02:05:59
Dark Count =  .7 


Time (GMT)  Wavelength (Ang)  Step Number  Raw Counts  Counts/Second

  126.86        2950.00           1981         874.00      3807.48
  127.05        2950.25           1985         871.00      3794.40
  127.08        2950.50           1989         897.00      3907.78
  127.11        2950.75           1992         875.00      3811.84
  127.14        2951.00           1996         895.00      3899.05
  127.17        2951.25           1999         893.00      3890.33
  127.20        2951.50           2003         915.00      3986.27
  127.23        2951.75           2007         882.00      3842.37
  127.26        2952.00           2010         883.00      3846.73
  127.29        2952.25           2014         884.00      3851.09
  127.32        2952.50           2017         919.00      4003.71
  127.35        2952.75           2021         908.00      3955.74
  127.38        2953.00           2025         896.00      3903.41
  127.41        2953.25           2028         901.00      3925.22
  127.44        2953.50           2032         931.00      4056.04
  127.47        2953.75           2036         900.00      3920.86
  127.50        2954.00           2039         924.00      4025.51
  127.53        2954.25           2043         915.00      3986.27
  127.56        2954.50           2046         924.00      4025.51
  127.60        2954.75           2050         916.00      3990.63
  127.63        2955.00           2054         932.00      4060.40
  127.66        2955.25           2057         955.00      4160.69
  127.69        2955.50           2061         947.00      4125.81
  127.72        2955.75           2065         936.00      4077.84
  127.75        2956.00           2068         954.00      4156.33
  127.78        2956.25           2072         928.00      4042.95
  127.81        2956.50           2075         970.00      4226.10
  127.84        2956.75           2079         995.00      4335.12
  127.87        2957.00           2083         971.00      4230.46
  127.90        2957.25           2086         990.00      4313.32
  127.93        2957.50           2090        1018.00      4435.42
  127.96        2957.75           2093        1001.00      4361.29
  127.99        2958.00           2097        1029.00      4483.39
  128.02        2958.25           2101        1058.00      4609.85
  128.05        2958.50           2104        1069.00      4657.82
  128.08        2958.75           2108        1100.00      4793.01
  128.12        2959.00           2112        1094.00      4766.84
  128.15        2959.25           2115        1095.00      4771.20
  128.18        2959.50           2119        1136.00      4950.00
  128.21        2959.75           2122        1181.00      5146.25
  128.24        2960.00           2126        1167.00      5085.19
  128.27        2960.25           2130        1197.00      5216.02
  128.30        2960.50           2133        1189.00      5181.14
  128.33        2960.75           2137        1233.00      5373.02
  128.36        2961.00           2141        1336.00      5822.23
  128.39        2961.25           2144        1744.00      7601.76
  128.42        2961.50           2148        3717.00     16210.86
  128.45        2961.75           2151        7618.00     33250.62
  128.48        2962.00           2155       18490.00     80866.20
  128.51        2962.25           2159       35757.00    156874.60
  128.54        2962.50           2162       50023.00    220033.20
  128.57        2962.75           2166       67889.00    299596.10
  128.60        2963.00           2170       85750.00    379662.30
  128.63        2963.25           2173       99830.00    443154.90
  128.66        2963.50           2177      116461.00    518583.20
  128.70        2963.75           2180      129388.00    577539.90
  128.73        2964.00           2184      145907.00    653301.10
  128.76        2964.25           2188      160819.00    722104.30
  128.79        2964.50           2191      170771.00    768242.50
  128.82        2964.75           2195      188482.00    850793.40
  128.85        2965.00           2199      205845.00    932278.50
  128.88        2965.25           2202      218922.00    994017.90
  128.91        2965.50           2206      235427.00   1072400.00
  128.94        2965.75           2209      247909.00   1132021.00
  128.97        2966.00           2213      264595.00   1212192.00
  129.00        2966.25           2217      280644.00   1289816.00
  129.03        2966.50           2220      290513.00   1337803.00
  129.06        2966.75           2224      298492.00   1376742.00
  129.09        2967.00           2228      301605.00   1391969.00
  129.12        2967.25           2231      302008.00   1393942.00
  129.15        2967.50           2235      301905.00   1393438.00
  129.18        2967.75           2238      301566.00   1391778.00
  129.22        2968.00           2242      299917.00   1383710.00
  129.25        2968.25           2246      293006.00   1349956.00
  129.28        2968.50           2249      284408.00   1308095.00
  129.31        2968.75           2253      269835.00   1237481.00
  129.34        2969.00           2257      252868.00   1155791.00
  129.37        2969.25           2260      240418.00   1096204.00
  129.40        2969.50           2264      223427.00   1015361.00
  129.43        2969.75           2267      209980.00    951766.10
  129.46        2970.00           2271      191516.00    864992.20
  129.49        2970.25           2275      173240.00    779716.50
  129.52        2970.50           2278      160550.00    720859.60
  129.55        2970.75           2282      141412.00    632638.40
  129.58        2971.00           2286      122543.00    546285.70
  129.61        2971.25           2289      108905.00    484255.20
  129.64        2971.50           2293       91048.00    403514.00
  129.67        2971.75           2296       78452.00    346883.30
  129.70        2972.00           2300       61653.00    271765.90
  129.73        2972.25           2304       44719.00    196512.90
  129.77        2972.50           2307       32015.00    140362.10
  129.80        2972.75           2311       15835.00     69221.03
  129.83        2973.00           2315        5795.00     25284.70
  129.86        2973.25           2318        2496.00     10882.36
  129.89        2973.50           2322        1411.00      6149.33
  129.92        2973.75           2326        1245.00      5425.36
  129.95        2974.00           2329        1233.00      5373.02
  129.98        2974.25           2333        1183.00      5154.97
  130.01        2974.50           2336        1147.00      4997.97
  130.04        2974.75           2340        1158.00      5045.94
  130.07        2975.00           2344        1133.00      4936.92
  130.10        2975.25           2347        1094.00      4766.84
  130.13        2975.50           2351        1098.00      4784.29
  130.16        2975.75           2355        1029.00      4483.39
  130.19        2976.00           2358        1023.00      4457.22
  130.22        2976.25           2362         992.00      4322.04
  130.25        2976.50           2365         986.00      4295.87
  130.29        2976.75           2369         959.00      4178.13
  130.32        2977.00           2373         950.00      4138.89
  130.35        2977.25           2376         975.00      4247.91
  130.38        2977.50           2380         963.00      4195.58
  130.41        2977.75           2384         945.00      4117.09
  130.44        2978.00           2387         962.00      4191.22
  130.47        2978.25           2391         908.00      3955.74
  130.50        2978.50           2395         923.00      4021.15
  130.53        2978.75           2398         905.00      3942.66
  130.56        2979.00           2402         878.00      3824.92
  130.59        2979.25           2405         891.00      3881.61
  130.62        2979.50           2409         870.00      3790.04
  130.65        2979.75           2413         851.00      3707.19
  130.68        2980.00           2416         866.00      3772.60
  130.71        2980.25           2420         840.00      3659.22
  130.74        2980.50           2424         856.00      3728.99
  130.77        2980.75           2427         819.00      3567.65
  130.80        2981.00           2431         826.00      3598.18
  130.83        2981.25           2435         838.00      3650.50
  130.87        2981.50           2438         837.00      3646.14
  130.90        2981.75           2442         840.00      3659.22
  130.93        2982.00           2445         815.00      3550.21
  130.96        2982.25           2449         811.00      3532.77
  130.99        2982.50           2453         797.00      3471.72
  131.02        2982.75           2456         804.00      3502.25
  131.05        2983.00           2460         788.00      3432.48
  131.08        2983.25           2464         787.00      3428.12
  131.11        2983.50           2467         782.00      3406.32
  131.14        2983.75           2471         783.00      3410.68
  131.17        2984.00           2475         796.00      3467.36
HS scan finished at 02:11:24
end
