************************************************************
  HS Scan of (1) Internal mercury lamp
************************************************************
Integration time is 0.2294 seconds per sample
dh220619Arenosillo 37.1 6.73 3.25pr1000
************************************************************
Dead Time -------------------------  4.1E-08 
Number of Cycles Used -------------  4 
Starting Wavelength (Angstroms) ---  2950 
Final Wavelength (Angstoms) -------  2984 
Wavelength Increment (Angstroms) --  .25 
Filter Wheel #1 Position ---------- (1) Ground quartz diffuser (ND=2.32)
Filter Wheel #2 Position ---------- (1) Neutral Density 0.494



************************************************************
HS scan start time = 02:05:44
Dark Count =  1.1 


Time (GMT)  Wavelength (Ang)  Step Number  Raw Counts  Counts/Second

  126.62        2950.00           1981         773.00      3365.33
  126.80        2950.25           1985         795.00      3461.26
  126.83        2950.50           1989         829.00      3609.51
  126.87        2950.75           1992         800.00      3483.06
  126.90        2951.00           1996         812.00      3535.39
  126.93        2951.25           1999         828.00      3605.15
  126.96        2951.50           2003         792.00      3448.18
  126.99        2951.75           2007         816.00      3552.83
  127.02        2952.00           2010         813.00      3539.75
  127.05        2952.25           2014         837.00      3644.40
  127.08        2952.50           2017         843.00      3670.56
  127.11        2952.75           2021         807.00      3513.58
  127.14        2953.00           2025         812.00      3535.39
  127.17        2953.25           2028         824.00      3587.71
  127.20        2953.50           2032         813.00      3539.75
  127.23        2953.75           2036         873.00      3801.38
  127.26        2954.00           2039         843.00      3670.56
  127.29        2954.25           2043         836.00      3640.04
  127.32        2954.50           2046         873.00      3801.38
  127.35        2954.75           2050         857.00      3731.61
  127.38        2955.00           2054         867.00      3775.21
  127.42        2955.25           2057         872.00      3797.02
  127.45        2955.50           2061         882.00      3840.62
  127.48        2955.75           2065         892.00      3884.23
  127.51        2956.00           2068         886.00      3858.06
  127.54        2956.25           2072         871.00      3792.66
  127.57        2956.50           2075         888.00      3866.79
  127.60        2956.75           2079         946.00      4119.70
  127.63        2957.00           2083         884.00      3849.34
  127.66        2957.25           2086         909.00      3958.36
  127.69        2957.50           2090         942.00      4102.26
  127.72        2957.75           2093         948.00      4128.42
  127.75        2958.00           2097         941.00      4097.90
  127.78        2958.25           2101         970.00      4224.36
  127.81        2958.50           2104         971.00      4228.72
  127.84        2958.75           2108         989.00      4307.21
  127.87        2959.00           2112        1009.00      4394.43
  127.90        2959.25           2115        1020.00      4442.40
  127.94        2959.50           2119        1050.00      4573.22
  127.97        2959.75           2122        1035.00      4507.81
  128.00        2960.00           2126        1078.00      4695.32
  128.03        2960.25           2130        1096.00      4773.82
  128.06        2960.50           2133        1136.00      4948.26
  128.09        2960.75           2137        1193.00      5196.84
  128.12        2961.00           2141        1438.00      6265.34
  128.15        2961.25           2144        2353.00     10256.71
  128.18        2961.50           2148        6055.00     26418.75
  128.21        2961.75           2151       11808.00     51577.57
  128.24        2962.00           2155       24650.00    107926.00
  128.27        2962.25           2159       40463.00    177671.00
  128.30        2962.50           2162       52171.00    229569.60
  128.33        2962.75           2166       69354.00    306141.70
  128.36        2963.00           2170       85847.00    380096.80
  128.39        2963.25           2173       98254.00    436029.60
  128.42        2963.50           2177      114449.00    509431.10
  128.45        2963.75           2180      127146.00    567292.20
  128.48        2964.00           2184      142345.00    636922.50
  128.52        2964.25           2188      154533.00    693051.10
  128.55        2964.50           2191      162450.00    729651.80
  128.58        2964.75           2195      177055.00    797465.50
  128.61        2965.00           2199      192437.00    869303.90
  128.64        2965.25           2202      204259.00    924810.40
  128.67        2965.50           2206      219834.00    998333.70
  128.70        2965.75           2209      232415.00   1058056.00
  128.73        2966.00           2213      250364.00   1143781.00
  128.76        2966.25           2217      268529.00   1231171.00
  128.79        2966.50           2220      277552.00   1274820.00
  128.82        2966.75           2224      284537.00   1308720.00
  128.85        2967.00           2228      286757.00   1319515.00
  128.88        2967.25           2231      287028.00   1320834.00
  128.91        2967.50           2235      287091.00   1321140.00
  128.94        2967.75           2238      286703.00   1319252.00
  128.97        2968.00           2242      285249.00   1312181.00
  129.00        2968.25           2246      280624.00   1289717.00
  129.04        2968.50           2249      273077.00   1253152.00
  129.07        2968.75           2253      259495.00   1187629.00
  129.10        2969.00           2257      244367.00   1115070.00
  129.13        2969.25           2260      232332.00   1057661.00
  129.16        2969.50           2264      216725.00    983621.10
  129.19        2969.75           2267      204371.00    925337.50
  129.22        2970.00           2271      187911.00    848121.40
  129.25        2970.25           2275      169697.00    763253.00
  129.28        2970.50           2278      157582.00    707133.60
  129.31        2970.75           2282      139719.00    624863.30
  129.34        2971.00           2286      119915.00    534306.00
  129.37        2971.25           2289      104543.00    464480.60
  129.40        2971.50           2293       85586.00    378923.00
  129.43        2971.75           2296       72841.00    321739.90
  129.46        2972.00           2300       56231.00    247618.50
  129.49        2972.25           2304       39788.00    174685.60
  129.52        2972.50           2307       28082.00    123029.20
  129.55        2972.75           2311       14373.00     62811.51
  129.58        2973.00           2315        6175.00     26943.00
  129.62        2973.25           2318        2994.00     13053.63
  129.65        2973.50           2322        1423.00      6199.92
  129.68        2973.75           2326        1201.00      5231.72
  129.71        2974.00           2329        1145.00      4987.51
  129.74        2974.25           2333        1107.00      4821.79
  129.77        2974.50           2336        1064.00      4634.27
  129.80        2974.75           2340        1065.00      4638.63
  129.83        2975.00           2344        1059.00      4612.47
  129.86        2975.25           2347        1032.00      4494.73
  129.89        2975.50           2351         989.00      4307.21
  129.92        2975.75           2355         957.00      4167.67
  129.95        2976.00           2358         942.00      4102.26
  129.98        2976.25           2362         945.00      4115.34
  130.01        2976.50           2365         932.00      4058.65
  130.04        2976.75           2369         891.00      3879.87
  130.07        2977.00           2373         889.00      3871.15
  130.10        2977.25           2376         910.00      3962.72
  130.13        2977.50           2380         874.00      3805.74
  130.17        2977.75           2384         876.00      3814.46
  130.20        2978.00           2387         843.00      3670.56
  130.23        2978.25           2391         807.00      3513.58
  130.26        2978.50           2395         829.00      3609.51
  130.29        2978.75           2398         847.00      3688.00
  130.32        2979.00           2402         836.00      3640.04
  130.35        2979.25           2405         811.00      3531.03
  130.38        2979.50           2409         815.00      3548.47
  130.41        2979.75           2413         815.00      3548.47
  130.44        2980.00           2416         804.00      3500.50
  130.47        2980.25           2420         803.00      3496.14
  130.50        2980.50           2424         745.00      3243.24
  130.53        2980.75           2427         747.00      3251.96
  130.56        2981.00           2431         783.00      3408.93
  130.59        2981.25           2435         793.00      3452.54
  130.62        2981.50           2438         743.00      3234.52
  130.65        2981.75           2442         748.00      3256.32
  130.68        2982.00           2445         756.00      3291.20
  130.72        2982.25           2449         740.00      3221.44
  130.75        2982.50           2453         747.00      3251.96
  130.78        2982.75           2456         731.00      3182.19
  130.81        2983.00           2460         713.00      3103.71
  130.84        2983.25           2464         708.00      3081.91
  130.87        2983.50           2467         708.00      3081.91
  130.90        2983.75           2471         714.00      3108.07
  130.93        2984.00           2475         713.00      3103.71
HS scan finished at 02:11:09
end
