************************************************************
  HS Scan of (1) Internal mercury lamp
************************************************************
Integration time is 0.2294 seconds per sample
dh200619Arenosillo 37.1 6.73 3.05pr1000
************************************************************
Dead Time -------------------------  4.1E-08 
Number of Cycles Used -------------  4 
Starting Wavelength (Angstroms) ---  2950 
Final Wavelength (Angstoms) -------  2984 
Wavelength Increment (Angstroms) --  .25 
Filter Wheel #1 Position ---------- (1) Ground quartz diffuser (ND=2.32)
Filter Wheel #2 Position ---------- (1) Neutral Density 0.494



************************************************************
HS scan start time = 02:05:58
Dark Count =  .6 


Time (GMT)  Wavelength (Ang)  Step Number  Raw Counts  Counts/Second

  126.85        2950.00           1981         894.00      3895.13
  127.03        2950.25           1985         891.00      3882.05
  127.06        2950.50           1989         868.00      3781.76
  127.09        2950.75           1992         936.00      4078.28
  127.12        2951.00           1996         906.00      3947.46
  127.15        2951.25           1999         874.00      3807.92
  127.18        2951.50           2003         902.00      3930.01
  127.21        2951.75           2007         887.00      3864.61
  127.24        2952.00           2010         924.00      4025.95
  127.27        2952.25           2014         921.00      4012.87
  127.30        2952.50           2017         858.00      3738.15
  127.34        2952.75           2021         918.00      3999.78
  127.37        2953.00           2025         905.00      3943.10
  127.40        2953.25           2028         896.00      3903.85
  127.43        2953.50           2032         911.00      3969.26
  127.46        2953.75           2036         943.00      4108.80
  127.49        2954.00           2039         925.00      4030.31
  127.52        2954.25           2043         925.00      4030.31
  127.55        2954.50           2046         927.00      4039.03
  127.58        2954.75           2050         926.00      4034.67
  127.61        2955.00           2054         947.00      4126.24
  127.64        2955.25           2057         954.00      4156.77
  127.67        2955.50           2061         974.00      4243.98
  127.70        2955.75           2065         948.00      4130.60
  127.73        2956.00           2068         956.00      4165.49
  127.76        2956.25           2072         945.00      4117.52
  127.79        2956.50           2075         962.00      4191.65
  127.82        2956.75           2079        1001.00      4361.72
  127.86        2957.00           2083         991.00      4318.11
  127.89        2957.25           2086        1004.00      4374.80
  127.92        2957.50           2090        1015.00      4422.77
  127.95        2957.75           2093        1025.00      4466.38
  127.98        2958.00           2097        1046.00      4557.96
  128.01        2958.25           2101        1051.00      4579.76
  128.04        2958.50           2104        1079.00      4701.87
  128.07        2958.75           2108        1065.00      4640.81
  128.10        2959.00           2112        1083.00      4719.31
  128.13        2959.25           2115        1129.00      4919.91
  128.16        2959.50           2119        1177.00      5129.24
  128.19        2959.75           2122        1116.00      4863.22
  128.22        2960.00           2126        1173.00      5111.80
  128.25        2960.25           2130        1181.00      5146.68
  128.28        2960.50           2133        1238.00      5395.27
  128.31        2960.75           2137        1293.00      5635.13
  128.34        2961.00           2141        1778.00      7750.50
  128.37        2961.25           2144        2875.00     12536.52
  128.40        2961.50           2148        7441.00     32477.39
  128.44        2961.75           2151       14658.00     64062.56
  128.47        2962.00           2155       30812.00    135058.80
  128.50        2962.25           2159       47073.00    206946.40
  128.53        2962.50           2162       60052.00    264631.60
  128.56        2962.75           2166       76786.00    339413.30
  128.59        2963.00           2170       93685.00    415404.00
  128.62        2963.25           2173      107149.00    476291.90
  128.65        2963.50           2177      124486.00    555149.60
  128.68        2963.75           2180      137427.00    614350.10
  128.71        2964.00           2184      152753.00    684839.80
  128.74        2964.25           2188      165714.00    744776.20
  128.77        2964.50           2191      174601.00    786046.60
  128.80        2964.75           2195      190162.00    858654.10
  128.83        2965.00           2199      207517.00    940155.10
  128.86        2965.25           2202      219820.00    998269.70
  128.89        2965.50           2206      236431.00   1077185.00
  128.92        2965.75           2209      250019.00   1142130.00
  128.96        2966.00           2213      268429.00   1230691.00
  128.99        2966.25           2217      285932.00   1315505.00
  129.02        2966.50           2220      294328.00   1356406.00
  129.05        2966.75           2224      299522.00   1381779.00
  129.08        2967.00           2228      301364.00   1390790.00
  129.11        2967.25           2231      301643.00   1392156.00
  129.14        2967.50           2235      301268.00   1390320.00
  129.17        2967.75           2238      301175.00   1389865.00
  129.20        2968.00           2242      299982.00   1384029.00
  129.23        2968.25           2246      295090.00   1360125.00
  129.26        2968.50           2249      286781.00   1319634.00
  129.29        2968.75           2253      272839.00   1252003.00
  129.32        2969.00           2257      258067.00   1180763.00
  129.35        2969.25           2260      244848.00   1117373.00
  129.38        2969.50           2264      229674.00   1045021.00
  129.41        2969.75           2267      217208.00    985908.00
  129.44        2970.00           2271      199994.00    904758.10
  129.47        2970.25           2275      181338.00    817427.40
  129.51        2970.50           2278      167705.00    754009.80
  129.54        2970.75           2282      148520.00    665329.40
  129.57        2971.00           2286      128987.00    575707.10
  129.60        2971.25           2289      114507.00    509697.00
  129.63        2971.50           2293       95501.00    423598.50
  129.66        2971.75           2296       82318.00    364236.90
  129.69        2972.00           2300       64579.00    284816.60
  129.72        2972.25           2304       47453.00    208631.40
  129.75        2972.50           2307       34313.00    150500.40
  129.78        2972.75           2311       18670.00     81656.53
  129.81        2973.00           2315        8053.00     35152.63
  129.84        2973.25           2318        3674.00     16023.60
  129.87        2973.50           2322        1630.00      7104.95
  129.90        2973.75           2326        1298.00      5656.94
  129.93        2974.00           2329        1166.00      5081.27
  129.96        2974.25           2333        1174.00      5116.16
  129.99        2974.50           2336        1134.00      4941.72
  130.03        2974.75           2340        1179.00      5137.96
  130.06        2975.00           2344        1104.00      4810.89
  130.09        2975.25           2347        1059.00      4614.65
  130.12        2975.50           2351        1072.00      4671.34
  130.15        2975.75           2355        1064.00      4636.45
  130.18        2976.00           2358        1039.00      4527.43
  130.21        2976.25           2362         998.00      4348.64
  130.24        2976.50           2365         967.00      4213.46
  130.27        2976.75           2369         983.00      4283.23
  130.30        2977.00           2373         978.00      4261.43
  130.33        2977.25           2376         950.00      4139.33
  130.36        2977.50           2380         948.00      4130.60
  130.39        2977.75           2384         963.00      4196.01
  130.42        2978.00           2387         955.00      4161.13
  130.45        2978.25           2391         903.00      3934.38
  130.48        2978.50           2395         892.00      3886.41
  130.51        2978.75           2398         917.00      3995.42
  130.54        2979.00           2402         903.00      3934.38
  130.57        2979.25           2405         910.00      3964.90
  130.61        2979.50           2409         883.00      3847.16
  130.64        2979.75           2413         859.00      3742.51
  130.67        2980.00           2416         864.00      3764.31
  130.70        2980.25           2420         862.00      3755.59
  130.73        2980.50           2424         828.00      3607.33
  130.76        2980.75           2427         840.00      3659.66
  130.79        2981.00           2431         826.00      3598.61
  130.82        2981.25           2435         847.00      3690.18
  130.85        2981.50           2438         809.00      3524.48
  130.88        2981.75           2442         811.00      3533.21
  130.91        2982.00           2445         841.00      3664.02
  130.94        2982.25           2449         812.00      3537.57
  130.97        2982.50           2453         796.00      3467.80
  131.00        2982.75           2456         814.00      3546.29
  131.03        2983.00           2460         780.00      3398.03
  131.06        2983.25           2464         790.00      3441.64
  131.09        2983.50           2467         793.00      3454.72
  131.12        2983.75           2471         771.00      3358.79
  131.16        2984.00           2475         793.00      3454.72
HS scan finished at 02:11:23
end
************************************************************
  HS Scan of (1) Internal mercury lamp
************************************************************
Integration time is 0.2294 seconds per sample
dh200619Arenosillo 37.1 6.73 3.19pr1000
************************************************************
Dead Time -------------------------  4.1E-08 
Number of Cycles Used -------------  4 
Starting Wavelength (Angstroms) ---  2950 
Final Wavelength (Angstoms) -------  2984 
Wavelength Increment (Angstroms) --  .25 
Filter Wheel #1 Position ---------- (1) Ground quartz diffuser (ND=2.32)
Filter Wheel #2 Position ---------- (1) Neutral Density 0.494



************************************************************
HS scan start time = 21:44:48
Dark Count =  .8 


Time (GMT)  Wavelength (Ang)  Step Number  Raw Counts  Counts/Second

 1305.68        2950.00           1981         827.00      3602.10
 1305.86        2950.25           1985         846.00      3684.95
 1305.89        2950.50           1989         793.00      3453.85
 1305.92        2950.75           1992         800.00      3484.37
 1305.95        2951.00           1996         803.00      3497.45
 1305.98        2951.25           1999         818.00      3562.86
 1306.01        2951.50           2003         855.00      3724.20
 1306.05        2951.75           2007         818.00      3562.86
 1306.08        2952.00           2010         814.00      3545.42
 1306.11        2952.25           2014         847.00      3689.31
 1306.14        2952.50           2017         844.00      3676.23
 1306.17        2952.75           2021         871.00      3793.96
 1306.20        2953.00           2025         828.00      3606.46
 1306.23        2953.25           2028         846.00      3684.95
 1306.26        2953.50           2032         852.00      3711.11
 1306.29        2953.75           2036         862.00      3754.72
 1306.32        2954.00           2039         886.00      3859.37
 1306.35        2954.25           2043         846.00      3684.95
 1306.38        2954.50           2046         840.00      3658.79
 1306.41        2954.75           2050         860.00      3746.00
 1306.44        2955.00           2054         884.00      3850.65
 1306.47        2955.25           2057         890.00      3876.82
 1306.50        2955.50           2061         900.00      3920.42
 1306.53        2955.75           2065         902.00      3929.14
 1306.56        2956.00           2068         946.00      4121.01
 1306.60        2956.25           2072         895.00      3898.62
 1306.63        2956.50           2075         912.00      3972.75
 1306.66        2956.75           2079         955.00      4160.26
 1306.69        2957.00           2083         947.00      4125.37
 1306.72        2957.25           2086         933.00      4064.32
 1306.75        2957.50           2090         963.00      4195.14
 1306.78        2957.75           2093         933.00      4064.32
 1306.81        2958.00           2097         986.00      4295.44
 1306.84        2958.25           2101         964.00      4199.50
 1306.87        2958.50           2104         966.00      4208.22
 1306.90        2958.75           2108        1003.00      4369.57
 1306.93        2959.00           2112        1025.00      4465.51
 1306.96        2959.25           2115        1041.00      4535.28
 1306.99        2959.50           2119        1063.00      4631.22
 1307.02        2959.75           2122        1038.00      4522.20
 1307.05        2960.00           2126        1093.00      4762.05
 1307.08        2960.25           2130        1131.00      4927.76
 1307.12        2960.50           2133        1142.00      4975.73
 1307.15        2960.75           2137        1143.00      4980.09
 1307.18        2961.00           2141        1255.00      5468.53
 1307.21        2961.25           2144        1425.00      6209.95
 1307.24        2961.50           2148        2720.00     11859.30
 1307.27        2961.75           2151        4875.00     21266.14
 1307.30        2962.00           2155       12359.00     53991.23
 1307.33        2962.25           2159       27175.00    119037.30
 1307.36        2962.50           2162       39901.00    175186.70
 1307.39        2962.75           2166       56468.00    248674.20
 1307.42        2963.00           2170       72991.00    322412.60
 1307.45        2963.25           2173       84597.00    374477.30
 1307.48        2963.50           2177      101474.00    450589.70
 1307.51        2963.75           2180      114347.00    508968.70
 1307.54        2964.00           2184      132205.00    590425.50
 1307.57        2964.25           2188      148833.00    666770.10
 1307.60        2964.50           2191      159800.00    717389.60
 1307.63        2964.75           2195      175821.00    791722.20
 1307.66        2965.00           2199      191459.00    864724.80
 1307.70        2965.25           2202      203206.00    919857.40
 1307.73        2965.50           2206      219453.00    996531.10
 1307.76        2965.75           2209      231838.00   1055312.00
 1307.79        2966.00           2213      247868.00   1131824.00
 1307.82        2966.25           2217      262910.00   1204071.00
 1307.85        2966.50           2220      273650.00   1255926.00
 1307.88        2966.75           2224      284136.00   1306773.00
 1307.91        2967.00           2228      289024.00   1330550.00
 1307.94        2967.25           2231      289253.00   1331665.00
 1307.97        2967.50           2235      290419.00   1337344.00
 1308.00        2967.75           2238      289955.00   1335084.00
 1308.03        2968.00           2242      289191.00   1331363.00
 1308.06        2968.25           2246      285395.00   1312893.00
 1308.09        2968.50           2249      278784.00   1280793.00
 1308.12        2968.75           2253      265213.00   1215171.00
 1308.15        2969.00           2257      249871.00   1141419.00
 1308.18        2969.25           2260      238135.00   1085309.00
 1308.22        2969.50           2264      222150.00   1009307.00
 1308.25        2969.75           2267      209089.00    947563.90
 1308.28        2970.00           2271      191251.00    863750.90
 1308.31        2970.25           2275      173726.00    781975.90
 1308.34        2970.50           2278      160405.00    720188.30
 1308.37        2970.75           2282      142763.00    638844.50
 1308.40        2971.00           2286      126290.00    563383.90
 1308.43        2971.25           2289      114314.00    508818.70
 1308.46        2971.50           2293       98805.00    438521.00
 1308.49        2971.75           2296       86389.00    382536.20
 1308.52        2972.00           2300       68358.00    301691.40
 1308.55        2972.25           2304       48636.00    213877.80
 1308.58        2972.50           2307       33546.00    147114.90
 1308.61        2972.75           2311       16137.00     70544.63
 1308.64        2973.00           2315        6667.00     29093.97
 1308.67        2973.25           2318        3103.00     13530.61
 1308.70        2973.50           2322        1515.00      6602.48
 1308.73        2973.75           2326        1187.00      5171.98
 1308.77        2974.00           2329        1173.00      5110.92
 1308.80        2974.25           2333        1123.00      4892.87
 1308.83        2974.50           2336        1095.00      4770.77
 1308.86        2974.75           2340        1098.00      4783.85
 1308.89        2975.00           2344        1062.00      4626.86
 1308.92        2975.25           2347        1052.00      4583.25
 1308.95        2975.50           2351         993.00      4325.96
 1308.98        2975.75           2355        1008.00      4391.38
 1309.01        2976.00           2358         997.00      4343.41
 1309.04        2976.25           2362         961.00      4186.42
 1309.07        2976.50           2365         952.00      4147.17
 1309.10        2976.75           2369         945.00      4116.65
 1309.13        2977.00           2373         916.00      3990.19
 1309.16        2977.25           2376         904.00      3937.86
 1309.19        2977.50           2380         914.00      3981.47
 1309.22        2977.75           2384         883.00      3846.29
 1309.25        2978.00           2387         890.00      3876.82
 1309.28        2978.25           2391         865.00      3767.80
 1309.32        2978.50           2395         840.00      3658.79
 1309.35        2978.75           2398         837.00      3645.71
 1309.38        2979.00           2402         836.00      3641.35
 1309.41        2979.25           2405         826.00      3597.74
 1309.44        2979.50           2409         815.00      3549.78
 1309.47        2979.75           2413         791.00      3445.13
 1309.50        2980.00           2416         794.00      3458.21
 1309.53        2980.25           2420         830.00      3615.18
 1309.56        2980.50           2424         806.00      3510.53
 1309.59        2980.75           2427         809.00      3523.61
 1309.62        2981.00           2431         789.00      3436.40
 1309.65        2981.25           2435         772.00      3362.28
 1309.68        2981.50           2438         778.00      3388.44
 1309.71        2981.75           2442         774.00      3371.00
 1309.74        2982.00           2445         774.00      3371.00
 1309.77        2982.25           2449         764.00      3327.39
 1309.80        2982.50           2453         765.00      3331.75
 1309.83        2982.75           2456         780.00      3397.16
 1309.86        2983.00           2460         753.00      3279.43
 1309.90        2983.25           2464         773.00      3366.64
 1309.93        2983.50           2467         735.00      3200.94
 1309.96        2983.75           2471         735.00      3200.94
 1309.99        2984.00           2475         718.00      3126.82
HS scan finished at 21:50:13
end
