************************************************************
  HS Scan of (1) Internal mercury lamp
************************************************************
Integration time is 0.2294 seconds per sample
dh230619Arenosillo 37.1 6.73 3.05pr1000
************************************************************
Dead Time -------------------------  4.1E-08 
Number of Cycles Used -------------  4 
Starting Wavelength (Angstroms) ---  2950 
Final Wavelength (Angstoms) -------  2984 
Wavelength Increment (Angstroms) --  .25 
Filter Wheel #1 Position ---------- (1) Ground quartz diffuser (ND=2.32)
Filter Wheel #2 Position ---------- (1) Neutral Density 0.494



************************************************************
HS scan start time = 02:06:34
Dark Count =  .7 


Time (GMT)  Wavelength (Ang)  Step Number  Raw Counts  Counts/Second

  127.45        2950.00           1981         885.00      3855.45
  127.63        2950.25           1985         847.00      3689.75
  127.66        2950.50           1989         867.00      3776.96
  127.69        2950.75           1992         879.00      3829.28
  127.72        2951.00           1996         887.00      3864.17
  127.75        2951.25           1999         851.00      3707.19
  127.78        2951.50           2003         883.00      3846.73
  127.81        2951.75           2007         903.00      3933.94
  127.84        2952.00           2010         863.00      3759.52
  127.87        2952.25           2014         886.00      3859.81
  127.90        2952.50           2017         854.00      3720.27
  127.93        2952.75           2021         850.00      3702.83
  127.96        2953.00           2025         868.00      3781.32
  127.99        2953.25           2028         921.00      4012.43
  128.02        2953.50           2032         878.00      3824.92
  128.06        2953.75           2036         930.00      4051.68
  128.09        2954.00           2039         929.00      4047.32
  128.12        2954.25           2043         907.00      3951.38
  128.15        2954.50           2046         918.00      3999.35
  128.18        2954.75           2050         947.00      4125.81
  128.21        2955.00           2054         939.00      4090.92
  128.24        2955.25           2057         935.00      4073.48
  128.27        2955.50           2061         928.00      4042.95
  128.30        2955.75           2065         928.00      4042.95
  128.33        2956.00           2068         963.00      4195.58
  128.36        2956.25           2072         961.00      4186.86
  128.39        2956.50           2075         973.00      4239.19
  128.42        2956.75           2079         990.00      4313.32
  128.45        2957.00           2083        1023.00      4457.22
  128.48        2957.25           2086         998.00      4348.20
  128.51        2957.50           2090        1006.00      4383.09
  128.54        2957.75           2093        1044.00      4548.80
  128.58        2958.00           2097        1006.00      4383.09
  128.61        2958.25           2101        1039.00      4527.00
  128.64        2958.50           2104        1041.00      4535.72
  128.67        2958.75           2108        1054.00      4592.41
  128.70        2959.00           2112        1056.00      4601.13
  128.73        2959.25           2115        1096.00      4775.57
  128.76        2959.50           2119        1071.00      4666.54
  128.79        2959.75           2122        1138.00      4958.72
  128.82        2960.00           2126        1146.00      4993.61
  128.85        2960.25           2130        1188.00      5176.77
  128.88        2960.50           2133        1192.00      5194.22
  128.91        2960.75           2137        1253.00      5460.25
  128.94        2961.00           2141        1448.00      6310.70
  128.97        2961.25           2144        1963.00      8557.06
  129.00        2961.50           2148        4117.00     17956.98
  129.03        2961.75           2151        9834.00     42940.84
  129.06        2962.00           2155       23631.00    103447.00
  129.09        2962.25           2159       40040.00    175801.80
  129.13        2962.50           2162       52547.00    231241.80
  129.16        2962.75           2166       69647.00    307453.30
  129.19        2963.00           2170       85104.00    376757.20
  129.22        2963.25           2173       98658.00    437857.00
  129.25        2963.50           2177      116056.00    516740.70
  129.28        2963.75           2180      128662.00    574221.10
  129.31        2964.00           2184      145672.00    652219.90
  129.34        2964.25           2188      162030.00    727709.10
  129.37        2964.50           2191      173653.00    781636.90
  129.40        2964.75           2195      190258.00    859102.90
  129.43        2965.00           2199      206639.00    936018.00
  129.46        2965.25           2202      218412.00    991604.00
  129.49        2965.50           2206      234914.00   1069956.00
  129.52        2965.75           2209      246980.00   1127573.00
  129.55        2966.00           2213      262275.00   1201013.00
  129.58        2966.25           2217      276931.00   1271813.00
  129.61        2966.50           2220      286346.00   1317518.00
  129.64        2966.75           2224      293485.00   1352292.00
  129.67        2967.00           2228      295356.00   1361423.00
  129.71        2967.25           2231      295938.00   1364264.00
  129.74        2967.50           2235      295675.00   1362980.00
  129.77        2967.75           2238      295162.00   1360476.00
  129.80        2968.00           2242      292692.00   1348424.00
  129.83        2968.25           2246      284356.00   1307843.00
  129.86        2968.50           2249      275174.00   1263303.00
  129.89        2968.75           2253      259841.00   1189296.00
  129.92        2969.00           2257      244105.00   1113820.00
  129.95        2969.25           2260      231419.00   1053319.00
  129.98        2969.50           2264      214635.00    973742.80
  130.01        2969.75           2267      202549.00    916767.50
  130.04        2970.00           2271      185932.00    838872.80
  130.07        2970.25           2275      167515.00    753127.90
  130.10        2970.50           2278      153551.00    688520.80
  130.13        2970.75           2282      135391.00    605016.30
  130.16        2971.00           2286      118370.00    527271.50
  130.19        2971.25           2289      106263.00    472275.30
  130.23        2971.50           2293       89819.00    397976.90
  130.26        2971.75           2296       76926.00    340040.40
  130.29        2972.00           2300       56788.00    250098.50
  130.32        2972.25           2304       36866.00    161772.60
  130.35        2972.50           2307       23967.00    104924.30
  130.38        2972.75           2311       11553.00     50463.07
  130.41        2973.00           2315        4199.00     18314.97
  130.44        2973.25           2318        1962.00      8552.69
  130.47        2973.50           2322        1297.00      5652.14
  130.50        2973.75           2326        1186.00      5168.05
  130.53        2974.00           2329        1146.00      4993.61
  130.56        2974.25           2333        1152.00      5019.78
  130.59        2974.50           2336        1120.00      4880.23
  130.62        2974.75           2340        1090.00      4749.40
  130.65        2975.00           2344        1082.00      4714.51
  130.68        2975.25           2347        1053.00      4588.05
  130.71        2975.50           2351        1045.00      4553.16
  130.74        2975.75           2355        1029.00      4483.39
  130.77        2976.00           2358        1018.00      4435.42
  130.81        2976.25           2362         994.00      4330.76
  130.84        2976.50           2365         975.00      4247.91
  130.87        2976.75           2369         982.00      4278.43
  130.90        2977.00           2373         959.00      4178.13
  130.93        2977.25           2376         941.00      4099.64
  130.96        2977.50           2380         929.00      4047.32
  130.99        2977.75           2384         930.00      4051.68
  131.02        2978.00           2387         911.00      3968.82
  131.05        2978.25           2391         878.00      3824.92
  131.08        2978.50           2395         890.00      3877.25
  131.11        2978.75           2398         870.00      3790.04
  131.14        2979.00           2402         852.00      3711.55
  131.17        2979.25           2405         852.00      3711.55
  131.20        2979.50           2409         838.00      3650.50
  131.23        2979.75           2413         875.00      3811.84
  131.26        2980.00           2416         848.00      3694.11
  131.29        2980.25           2420         827.00      3602.54
  131.33        2980.50           2424         824.00      3589.46
  131.36        2980.75           2427         840.00      3659.22
  131.39        2981.00           2431         811.00      3532.77
  131.42        2981.25           2435         833.00      3628.70
  131.45        2981.50           2438         817.00      3558.93
  131.48        2981.75           2442         810.00      3528.41
  131.51        2982.00           2445         804.00      3502.25
  131.54        2982.25           2449         801.00      3489.17
  131.57        2982.50           2453         788.00      3432.48
  131.60        2982.75           2456         792.00      3449.92
  131.63        2983.00           2460         784.00      3415.04
  131.66        2983.25           2464         775.00      3375.79
  131.69        2983.50           2467         739.00      3218.82
  131.72        2983.75           2471         771.00      3358.35
  131.75        2984.00           2475         757.00      3297.31
HS scan finished at 02:11:59
end
