************************************************************
  HS Scan of (1) Internal mercury lamp
************************************************************
Integration time is 0.2294 seconds per sample
dh250619Arenosillo 37.1 6.73 3.19pr1000
************************************************************
Dead Time -------------------------  4.1E-08 
Number of Cycles Used -------------  4 
Starting Wavelength (Angstroms) ---  2950 
Final Wavelength (Angstoms) -------  2984 
Wavelength Increment (Angstroms) --  .25 
Filter Wheel #1 Position ---------- (1) Ground quartz diffuser (ND=2.32)
Filter Wheel #2 Position ---------- (1) Neutral Density 0.494



************************************************************
HS scan start time = 01:54:16
Dark Count =  1 


Time (GMT)  Wavelength (Ang)  Step Number  Raw Counts  Counts/Second

  115.15        2950.00           1981         797.00      3470.42
  115.33        2950.25           1985         793.00      3452.97
  115.36        2950.50           1989         841.00      3662.28
  115.39        2950.75           1992         824.00      3588.15
  115.42        2951.00           1996         801.00      3487.86
  115.45        2951.25           1999         799.00      3479.14
  115.48        2951.50           2003         851.00      3705.88
  115.51        2951.75           2007         854.00      3718.96
  115.54        2952.00           2010         859.00      3740.77
  115.58        2952.25           2014         838.00      3649.19
  115.61        2952.50           2017         833.00      3627.39
  115.64        2952.75           2021         837.00      3644.83
  115.67        2953.00           2025         836.00      3640.47
  115.70        2953.25           2028         828.00      3605.59
  115.73        2953.50           2032         823.00      3583.79
  115.76        2953.75           2036         848.00      3692.80
  115.79        2954.00           2039         848.00      3692.80
  115.82        2954.25           2043         844.00      3675.36
  115.85        2954.50           2046         844.00      3675.36
  115.88        2954.75           2050         886.00      3858.50
  115.91        2955.00           2054         866.00      3771.29
  115.94        2955.25           2057         891.00      3880.30
  115.97        2955.50           2061         880.00      3832.34
  116.00        2955.75           2065         912.00      3971.88
  116.03        2956.00           2068         923.00      4019.84
  116.06        2956.25           2072         927.00      4037.29
  116.09        2956.50           2075         942.00      4102.70
  116.13        2956.75           2079         934.00      4067.81
  116.16        2957.00           2083         916.00      3989.32
  116.19        2957.25           2086         915.00      3984.96
  116.22        2957.50           2090         946.00      4120.14
  116.25        2957.75           2093         955.00      4159.38
  116.28        2958.00           2097         975.00      4246.60
  116.31        2958.25           2101         986.00      4294.57
  116.34        2958.50           2104         985.00      4290.21
  116.37        2958.75           2108        1003.00      4368.70
  116.40        2959.00           2112         995.00      4333.81
  116.43        2959.25           2115        1000.00      4355.62
  116.46        2959.50           2119        1056.00      4599.82
  116.49        2959.75           2122        1076.00      4687.04
  116.52        2960.00           2126        1095.00      4769.90
  116.55        2960.25           2130        1101.00      4796.06
  116.58        2960.50           2133        1114.00      4852.75
  116.61        2960.75           2137        1198.00      5219.08
  116.65        2961.00           2141        1290.00      5620.30
  116.68        2961.25           2144        1751.00      7630.98
  116.71        2961.50           2148        4127.00     17999.33
  116.74        2961.75           2151        8790.00     38373.32
  116.77        2962.00           2155       20027.00     87611.44
  116.80        2962.25           2159       35713.00    156678.90
  116.83        2962.50           2162       48212.00    211996.00
  116.86        2962.75           2166       65751.00    290046.10
  116.89        2963.00           2170       81669.00    361320.20
  116.92        2963.25           2173       94446.00    418835.40
  116.95        2963.50           2177      112528.00    500701.50
  116.98        2963.75           2180      126519.00    564428.80
  117.01        2964.00           2184      143942.00    644262.60
  117.04        2964.25           2188      158516.00    711451.10
  117.07        2964.50           2191      168356.00    757028.70
  117.10        2964.75           2195      183851.00    829152.00
  117.13        2965.00           2199      199044.00    900293.70
  117.16        2965.25           2202      210944.00    956312.70
  117.19        2965.50           2206      226777.00   1031256.00
  117.23        2965.75           2209      239324.00   1090981.00
  117.26        2966.00           2213      255581.00   1168814.00
  117.29        2966.25           2217      270107.00   1238793.00
  117.32        2966.50           2220      278635.00   1280070.00
  117.35        2966.75           2224      285676.00   1314258.00
  117.38        2967.00           2228      287908.00   1325116.00
  117.41        2967.25           2231      288540.00   1328193.00
  117.44        2967.50           2235      288927.00   1330077.00
  117.47        2967.75           2238      288356.00   1327297.00
  117.50        2968.00           2242      286030.00   1315979.00
  117.53        2968.25           2246      279622.00   1284856.00
  117.56        2968.50           2249      270049.00   1238513.00
  117.59        2968.75           2253      255558.00   1168704.00
  117.62        2969.00           2257      239907.00   1093763.00
  117.65        2969.25           2260      227744.00   1035848.00
  117.68        2969.50           2264      211143.00    957251.60
  117.71        2969.75           2267      199077.00    900448.70
  117.75        2970.00           2271      182948.00    824937.00
  117.78        2970.25           2275      166623.00    748989.10
  117.81        2970.50           2278      152444.00    683412.60
  117.84        2970.75           2282      133884.00    598111.30
  117.87        2971.00           2286      116997.00    521020.70
  117.90        2971.25           2289      105115.00    467072.10
  117.93        2971.50           2293       89115.00    394804.80
  117.96        2971.75           2296       76677.00    338922.90
  117.99        2972.00           2300       59243.00    261026.30
  118.02        2972.25           2304       40342.00    177136.20
  118.05        2972.50           2307       25938.00    113592.30
  118.08        2972.75           2311       10017.00     43740.10
  118.11        2973.00           2315        3605.00     15720.68
  118.14        2973.25           2318        1881.00      8198.05
  118.17        2973.50           2322        1286.00      5602.86
  118.20        2973.75           2326        1175.00      5118.77
  118.23        2974.00           2329        1130.00      4922.53
  118.26        2974.25           2333        1092.00      4756.81
  118.29        2974.50           2336        1097.00      4778.62
  118.33        2974.75           2340        1064.00      4634.71
  118.36        2975.00           2344        1027.00      4473.36
  118.39        2975.25           2347        1016.00      4425.39
  118.42        2975.50           2351        1005.00      4377.42
  118.45        2975.75           2355         985.00      4290.21
  118.48        2976.00           2358         956.00      4163.74
  118.51        2976.25           2362         973.00      4237.88
  118.54        2976.50           2365         912.00      3971.88
  118.57        2976.75           2369         893.00      3889.02
  118.60        2977.00           2373         876.00      3814.90
  118.63        2977.25           2376         910.00      3963.15
  118.66        2977.50           2380         881.00      3836.70
  118.69        2977.75           2384         864.00      3762.57
  118.72        2978.00           2387         850.00      3701.52
  118.75        2978.25           2391         849.00      3697.16
  118.78        2978.50           2395         822.00      3579.43
  118.81        2978.75           2398         842.00      3666.64
  118.85        2979.00           2402         825.00      3592.51
  118.88        2979.25           2405         815.00      3548.90
  118.91        2979.50           2409         815.00      3548.90
  118.94        2979.75           2413         795.00      3461.69
  118.97        2980.00           2416         779.00      3391.93
  119.00        2980.25           2420         778.00      3387.57
  119.03        2980.50           2424         810.00      3527.10
  119.06        2980.75           2427         770.00      3352.68
  119.09        2981.00           2431         800.00      3483.50
  119.12        2981.25           2435         746.00      3248.04
  119.15        2981.50           2438         747.00      3252.40
  119.18        2981.75           2442         762.00      3317.80
  119.21        2982.00           2445         740.00      3221.87
  119.24        2982.25           2449         746.00      3248.04
  119.27        2982.50           2453         742.00      3230.59
  119.30        2982.75           2456         751.00      3269.84
  119.33        2983.00           2460         766.00      3335.24
  119.36        2983.25           2464         743.00      3234.95
  119.40        2983.50           2467         710.00      3091.06
  119.43        2983.75           2471         703.00      3060.54
  119.46        2984.00           2475         735.00      3200.07
HS scan finished at 01:59:41
end
