************************************************************
  HS Scan of (1) Internal mercury lamp
************************************************************
Integration time is 0.2294 seconds per sample
dh240619Arenosillo 37.1 6.73 3.09pr1000
************************************************************
Dead Time -------------------------  4.1E-08 
Number of Cycles Used -------------  4 
Starting Wavelength (Angstroms) ---  2950 
Final Wavelength (Angstoms) -------  2984 
Wavelength Increment (Angstroms) --  .25 
Filter Wheel #1 Position ---------- (1) Ground quartz diffuser (ND=2.32)
Filter Wheel #2 Position ---------- (1) Neutral Density 0.494



************************************************************
HS scan start time = 02:05:50
Dark Count =  .8 


Time (GMT)  Wavelength (Ang)  Step Number  Raw Counts  Counts/Second

  126.72        2950.00           1981         832.00      3623.90
  126.90        2950.25           1985         829.00      3610.82
  126.93        2950.50           1989         836.00      3641.35
  126.96        2950.75           1992         811.00      3532.33
  126.99        2951.00           1996         859.00      3741.64
  127.02        2951.25           1999         838.00      3650.07
  127.05        2951.50           2003         856.00      3728.56
  127.08        2951.75           2007         871.00      3793.96
  127.11        2952.00           2010         858.00      3737.28
  127.14        2952.25           2014         855.00      3724.20
  127.17        2952.50           2017         877.00      3820.13
  127.21        2952.75           2021         871.00      3793.96
  127.24        2953.00           2025         871.00      3793.96
  127.27        2953.25           2028         882.00      3841.93
  127.30        2953.50           2032         890.00      3876.82
  127.33        2953.75           2036         886.00      3859.37
  127.36        2954.00           2039         860.00      3746.00
  127.39        2954.25           2043         856.00      3728.56
  127.42        2954.50           2046         875.00      3811.41
  127.45        2954.75           2050         858.00      3737.28
  127.48        2955.00           2054         877.00      3820.13
  127.51        2955.25           2057         867.00      3776.52
  127.54        2955.50           2061         929.00      4046.88
  127.57        2955.75           2065         916.00      3990.19
  127.60        2956.00           2068         908.00      3955.31
  127.63        2956.25           2072         926.00      4033.80
  127.66        2956.50           2075         936.00      4077.40
  127.69        2956.75           2079         924.00      4025.08
  127.72        2957.00           2083         949.00      4134.09
  127.75        2957.25           2086         975.00      4247.47
  127.79        2957.50           2090         951.00      4142.81
  127.82        2957.75           2093         981.00      4273.63
  127.85        2958.00           2097         988.00      4304.16
  127.88        2958.25           2101        1007.00      4387.01
  127.91        2958.50           2104        1034.00      4504.76
  127.94        2958.75           2108        1042.00      4539.64
  127.97        2959.00           2112        1060.00      4618.14
  128.00        2959.25           2115        1057.00      4605.05
  128.03        2959.50           2119        1072.00      4670.47
  128.06        2959.75           2122        1082.00      4714.08
  128.09        2960.00           2126        1099.00      4788.21
  128.12        2960.25           2130        1109.00      4831.82
  128.15        2960.50           2133        1186.00      5167.62
  128.18        2960.75           2137        1262.00      5499.06
  128.21        2961.00           2141        1581.00      6890.35
  128.24        2961.25           2144        2255.00      9830.47
  128.27        2961.50           2148        5095.00     22226.87
  128.31        2961.75           2151       10458.00     45670.45
  128.34        2962.00           2155       22406.00     98062.18
  128.37        2962.25           2159       38744.00    170071.00
  128.40        2962.50           2162       51092.00    224778.70
  128.43        2962.75           2166       68002.00    300100.60
  128.46        2963.00           2170       85348.00    377854.00
  128.49        2963.25           2173       97896.00    434413.40
  128.52        2963.50           2177      112041.00    498490.20
  128.55        2963.75           2180      122711.00    547051.40
  128.58        2964.00           2184      139464.00    623694.30
  128.61        2964.25           2188      154855.00    694538.90
  128.64        2964.50           2191      164467.00    738995.70
  128.67        2964.75           2195      179570.00    809183.10
  128.70        2965.00           2199      194655.00    879699.50
  128.73        2965.25           2202      206489.00    935311.00
  128.76        2965.50           2206      222992.00   1013298.00
  128.79        2965.75           2209      234783.00   1069332.00
  128.82        2966.00           2213      252176.00   1152471.00
  128.85        2966.25           2217      268295.00   1230042.00
  128.89        2966.50           2220      278303.00   1278461.00
  128.92        2966.75           2224      284052.00   1306365.00
  128.95        2967.00           2228      285883.00   1315266.00
  128.98        2967.25           2231      286565.00   1318582.00
  129.01        2967.50           2235      286554.00   1318529.00
  129.04        2967.75           2238      286268.00   1317138.00
  129.07        2968.00           2242      284791.00   1309956.00
  129.10        2968.25           2246      279658.00   1285032.00
  129.13        2968.50           2249      271765.00   1246808.00
  129.16        2968.75           2253      258059.00   1180724.00
  129.19        2969.00           2257      242490.00   1106100.00
  129.22        2969.25           2260      229934.00   1046256.00
  129.25        2969.50           2264      213272.00    967303.40
  129.28        2969.75           2267      200598.00    907595.10
  129.31        2970.00           2271      183710.00    828494.70
  129.34        2970.25           2275      168172.00    756175.70
  129.37        2970.50           2278      155858.00    699170.30
  129.41        2970.75           2282      137295.00    613743.90
  129.44        2971.00           2286      119324.00    531615.30
  129.47        2971.25           2289      106278.00    472342.80
  129.50        2971.50           2293       87905.00    389358.10
  129.53        2971.75           2296       74172.00    327700.50
  129.56        2972.00           2300       56543.00    249007.90
  129.59        2972.25           2304       39750.00    174518.90
  129.62        2972.50           2307       27853.00    122022.20
  129.65        2972.75           2311       16294.00     71233.03
  129.68        2973.00           2315        8289.00     36183.55
  129.71        2973.25           2318        4083.00     17808.12
  129.74        2973.50           2322        1602.00      6981.95
  129.77        2973.75           2326        1203.00      5241.75
  129.80        2974.00           2329        1199.00      5224.31
  129.83        2974.25           2333        1101.00      4796.93
  129.86        2974.50           2336        1130.00      4923.40
  129.89        2974.75           2340        1080.00      4705.35
  129.92        2975.00           2344        1055.00      4596.33
  129.96        2975.25           2347        1038.00      4522.20
  129.99        2975.50           2351        1037.00      4517.84
  130.02        2975.75           2355        1045.00      4552.72
  130.05        2976.00           2358        1004.00      4373.93
  130.08        2976.25           2362         960.00      4182.06
  130.11        2976.50           2365         946.00      4121.01
  130.14        2976.75           2369         938.00      4086.12
  130.17        2977.00           2373         922.00      4016.35
  130.20        2977.25           2376         944.00      4112.29
  130.23        2977.50           2380         905.00      3942.22
  130.26        2977.75           2384         897.00      3907.34
  130.29        2978.00           2387         890.00      3876.82
  130.32        2978.25           2391         856.00      3728.56
  130.35        2978.50           2395         914.00      3981.47
  130.38        2978.75           2398         861.00      3750.36
  130.41        2979.00           2402         827.00      3602.10
  130.44        2979.25           2405         860.00      3746.00
  130.48        2979.50           2409         839.00      3654.43
  130.51        2979.75           2413         813.00      3541.06
  130.54        2980.00           2416         826.00      3597.74
  130.57        2980.25           2420         810.00      3527.97
  130.60        2980.50           2424         798.00      3475.65
  130.63        2980.75           2427         808.00      3519.25
  130.66        2981.00           2431         789.00      3436.40
  130.69        2981.25           2435         826.00      3597.74
  130.72        2981.50           2438         803.00      3497.45
  130.75        2981.75           2442         766.00      3336.11
  130.78        2982.00           2445         785.00      3418.96
  130.81        2982.25           2449         772.00      3362.28
  130.84        2982.50           2453         763.00      3323.03
  130.87        2982.75           2456         794.00      3458.21
  130.90        2983.00           2460         759.00      3305.59
  130.93        2983.25           2464         764.00      3327.39
  130.96        2983.50           2467         748.00      3257.63
  130.99        2983.75           2471         767.00      3340.48
  131.02        2984.00           2475         733.00      3192.22
HS scan finished at 02:11:15
end
************************************************************
  HS Scan of (1) Internal mercury lamp
************************************************************
Integration time is 0.2294 seconds per sample
dh240619Arenosillo 37.1 6.73 3.29pr1000
************************************************************
Dead Time -------------------------  4.1E-08 
Number of Cycles Used -------------  4 
Starting Wavelength (Angstroms) ---  2950 
Final Wavelength (Angstoms) -------  2984 
Wavelength Increment (Angstroms) --  .25 
Filter Wheel #1 Position ---------- (1) Ground quartz diffuser (ND=2.32)
Filter Wheel #2 Position ---------- (1) Neutral Density 0.494



************************************************************
HS scan start time = 20:53:21
Dark Count =  1.4 


Time (GMT)  Wavelength (Ang)  Step Number  Raw Counts  Counts/Second

 1254.24        2950.00           1981         863.00      3756.46
 1254.42        2950.25           1985         874.00      3804.43
 1254.45        2950.50           1989         876.00      3813.15
 1254.48        2950.75           1992         897.00      3904.72
 1254.51        2951.00           1996         878.00      3821.87
 1254.54        2951.25           1999         850.00      3699.78
 1254.57        2951.50           2003         903.00      3930.89
 1254.60        2951.75           2007         905.00      3939.61
 1254.63        2952.00           2010         898.00      3909.08
 1254.66        2952.25           2014         905.00      3939.61
 1254.70        2952.50           2017         914.00      3978.85
 1254.73        2952.75           2021         907.00      3948.33
 1254.76        2953.00           2025         885.00      3852.40
 1254.79        2953.25           2028         920.00      4005.02
 1254.82        2953.50           2032         907.00      3948.33
 1254.85        2953.75           2036         916.00      3987.57
 1254.88        2954.00           2039         913.00      3974.49
 1254.91        2954.25           2043         935.00      4070.43
 1254.94        2954.50           2046         891.00      3878.56
 1254.97        2954.75           2050         941.00      4096.59
 1255.00        2955.00           2054         935.00      4070.43
 1255.03        2955.25           2057         935.00      4070.43
 1255.06        2955.50           2061         951.00      4140.20
 1255.09        2955.75           2065         951.00      4140.20
 1255.12        2956.00           2068         966.00      4205.61
 1255.15        2956.25           2072         961.00      4183.80
 1255.18        2956.50           2075         981.00      4271.02
 1255.21        2956.75           2079         997.00      4340.79
 1255.24        2957.00           2083        1002.00      4362.59
 1255.27        2957.25           2086         984.00      4284.10
 1255.31        2957.50           2090        1013.00      4410.56
 1255.34        2957.75           2093        1020.00      4441.09
 1255.37        2958.00           2097        1040.00      4528.30
 1255.40        2958.25           2101         994.00      4327.71
 1255.43        2958.50           2104        1052.00      4580.63
 1255.46        2958.75           2108        1103.00      4803.04
 1255.49        2959.00           2112        1118.00      4868.45
 1255.52        2959.25           2115        1154.00      5025.45
 1255.55        2959.50           2119        1112.00      4842.29
 1255.58        2959.75           2122        1164.00      5069.06
 1255.61        2960.00           2126        1175.00      5117.03
 1255.64        2960.25           2130        1234.00      5374.33
 1255.67        2960.50           2133        1223.00      5326.36
 1255.70        2960.75           2137        1337.00      5823.53
 1255.73        2961.00           2141        1998.00      8706.68
 1255.76        2961.25           2144        3123.00     13615.27
 1255.79        2961.50           2148        7539.00     32902.25
 1255.83        2961.75           2151       16018.00     70020.26
 1255.86        2962.00           2155       30379.00    133146.90
 1255.89        2962.25           2159       48145.00    211697.00
 1255.92        2962.50           2162       61119.00    269382.60
 1255.95        2962.75           2166       79711.00    352528.60
 1255.98        2963.00           2170       98646.00    437799.70
 1256.01        2963.25           2173      112732.00    501626.40
 1256.04        2963.50           2177      129894.00    579850.30
 1256.07        2963.75           2180      141914.00    634941.00
 1256.10        2964.00           2184      159505.00    716022.40
 1256.13        2964.25           2188      173284.00    779917.80
 1256.16        2964.50           2191      182898.00    824701.80
 1256.19        2964.75           2195      199610.00    902950.20
 1256.22        2965.00           2199      216159.00    980943.10
 1256.25        2965.25           2202      228528.00   1039571.00
 1256.28        2965.50           2206      248621.00   1135428.00
 1256.31        2965.75           2209      262789.00   1203485.00
 1256.34        2966.00           2213      281500.00   1293967.00
 1256.37        2966.25           2217      295178.00   1360550.00
 1256.41        2966.50           2220      303545.00   1401465.00
 1256.44        2966.75           2224      308015.00   1423381.00
 1256.47        2967.00           2228      309435.00   1430352.00
 1256.50        2967.25           2231      309652.00   1431418.00
 1256.53        2967.50           2235      309507.00   1430706.00
 1256.56        2967.75           2238      309211.00   1429252.00
 1256.59        2968.00           2242      306533.00   1416111.00
 1256.62        2968.25           2246      298473.00   1376646.00
 1256.65        2968.50           2249      288655.00   1328750.00
 1256.68        2968.75           2253      273480.00   1255100.00
 1256.71        2969.00           2257      255880.00   1170249.00
 1256.74        2969.25           2260      243208.00   1109528.00
 1256.77        2969.50           2264      225165.00   1023602.00
 1256.80        2969.75           2267      211883.00    960742.20
 1256.83        2970.00           2271      192286.00    868595.10
 1256.86        2970.25           2275      173245.00    779736.50
 1256.89        2970.50           2278      158110.00    709572.50
 1256.93        2970.75           2282      137493.00    614649.00
 1256.96        2971.00           2286      116353.00    518088.70
 1256.99        2971.25           2289      101185.00    449279.60
 1257.02        2971.50           2293       82153.00    363492.10
 1257.05        2971.75           2296       69037.00    304723.30
 1257.08        2972.00           2300       52357.00    230394.60
 1257.11        2972.25           2304       34739.00    152377.10
 1257.14        2972.50           2307       21991.00     96235.99
 1257.17        2972.75           2311       10016.00     43733.97
 1257.20        2973.00           2315        3984.00     17373.31
 1257.23        2973.25           2318        2056.00      8959.70
 1257.26        2973.50           2322        1362.00      5932.57
 1257.29        2973.75           2326        1196.00      5208.61
 1257.32        2974.00           2329        1212.00      5278.39
 1257.35        2974.25           2333        1120.00      4877.17
 1257.38        2974.50           2336        1116.00      4859.73
 1257.41        2974.75           2340        1078.00      4694.02
 1257.44        2975.00           2344        1046.00      4554.47
 1257.48        2975.25           2347        1077.00      4689.66
 1257.51        2975.50           2351        1028.00      4475.97
 1257.54        2975.75           2355         984.00      4284.10
 1257.57        2976.00           2358        1017.00      4428.01
 1257.60        2976.25           2362         983.00      4279.74
 1257.63        2976.50           2365         963.00      4192.53
 1257.66        2976.75           2369         955.00      4157.64
 1257.69        2977.00           2373         908.00      3952.69
 1257.72        2977.25           2376         922.00      4013.74
 1257.75        2977.50           2380         916.00      3987.57
 1257.78        2977.75           2384         918.00      3996.30
 1257.81        2978.00           2387         871.00      3791.35
 1257.84        2978.25           2391         859.00      3739.02
 1257.87        2978.50           2395         877.00      3817.51
 1257.90        2978.75           2398         875.00      3808.79
 1257.93        2979.00           2402         841.00      3660.53
 1257.96        2979.25           2405         848.00      3691.06
 1258.00        2979.50           2409         828.00      3603.85
 1258.03        2979.75           2413         825.00      3590.76
 1258.06        2980.00           2416         793.00      3451.23
 1258.09        2980.25           2420         829.00      3608.21
 1258.12        2980.50           2424         807.00      3512.28
 1258.15        2980.75           2427         802.00      3490.47
 1258.18        2981.00           2431         776.00      3377.10
 1258.21        2981.25           2435         789.00      3433.79
 1258.24        2981.50           2438         789.00      3433.79
 1258.27        2981.75           2442         773.00      3364.02
 1258.30        2982.00           2445         763.00      3320.42
 1258.33        2982.25           2449         759.00      3302.98
 1258.36        2982.50           2453         790.00      3438.15
 1258.39        2982.75           2456         739.00      3215.77
 1258.42        2983.00           2460         743.00      3233.21
 1258.45        2983.25           2464         743.00      3233.21
 1258.48        2983.50           2467         760.00      3307.34
 1258.51        2983.75           2471         738.00      3211.41
 1258.54        2984.00           2475         757.00      3294.25
HS scan finished at 20:58:46
end
