************************************************************
  HS Scan of (1) Internal mercury lamp
************************************************************
Integration time is 0.2294 seconds per sample
dh190619Arenosillo 37.1 6.73 3.17pr1000
************************************************************
Dead Time -------------------------  4.1E-08 
Number of Cycles Used -------------  4 
Starting Wavelength (Angstroms) ---  2950 
Final Wavelength (Angstoms) -------  2984 
Wavelength Increment (Angstroms) --  .25 
Filter Wheel #1 Position ---------- (1) Ground quartz diffuser (ND=2.32)
Filter Wheel #2 Position ---------- (1) Neutral Density 0.494



************************************************************
HS scan start time = 02:06:03
Dark Count =  .9 


Time (GMT)  Wavelength (Ang)  Step Number  Raw Counts  Counts/Second

  126.93        2950.00           1981         941.00      4098.77
  127.11        2950.25           1985         924.00      4024.64
  127.15        2950.50           1989         915.00      3985.39
  127.18        2950.75           1992         912.00      3972.31
  127.21        2951.00           1996         966.00      4207.79
  127.24        2951.25           1999         923.00      4020.28
  127.27        2951.50           2003         910.00      3963.59
  127.30        2951.75           2007         865.00      3767.37
  127.33        2952.00           2010         848.00      3693.24
  127.36        2952.25           2014         904.00      3937.43
  127.39        2952.50           2017         900.00      3919.98
  127.42        2952.75           2021         859.00      3741.20
  127.45        2953.00           2025         882.00      3841.49
  127.48        2953.25           2028         882.00      3841.49
  127.51        2953.50           2032         916.00      3989.75
  127.54        2953.75           2036         899.00      3915.62
  127.57        2954.00           2039         865.00      3767.37
  127.60        2954.25           2043         915.00      3985.39
  127.63        2954.50           2046         905.00      3941.79
  127.66        2954.75           2050         889.00      3872.02
  127.69        2955.00           2054         911.00      3967.95
  127.73        2955.25           2057         919.00      4002.84
  127.76        2955.50           2061         927.00      4037.72
  127.79        2955.75           2065         924.00      4024.64
  127.82        2956.00           2068         945.00      4116.21
  127.85        2956.25           2072         967.00      4212.15
  127.88        2956.50           2075         939.00      4090.05
  127.91        2956.75           2079         970.00      4225.23
  127.94        2957.00           2083         974.00      4242.67
  127.97        2957.25           2086        1003.00      4369.14
  128.00        2957.50           2090        1040.00      4530.48
  128.03        2957.75           2093        1009.00      4395.30
  128.06        2958.00           2097         991.00      4316.81
  128.09        2958.25           2101        1042.00      4539.21
  128.12        2958.50           2104        1064.00      4635.14
  128.15        2958.75           2108        1034.00      4504.32
  128.18        2959.00           2112        1073.00      4674.39
  128.21        2959.25           2115        1098.00      4783.41
  128.25        2959.50           2119        1103.00      4805.22
  128.28        2959.75           2122        1125.00      4901.16
  128.31        2960.00           2126        1119.00      4874.99
  128.34        2960.25           2130        1187.00      5171.54
  128.37        2960.50           2133        1225.00      5337.26
  128.40        2960.75           2137        1282.00      5585.85
  128.43        2961.00           2141        1735.00      7561.63
  128.46        2961.25           2144        2863.00     12482.85
  128.49        2961.50           2148        6706.00     29263.95
  128.52        2961.75           2151       12369.00     54034.58
  128.55        2962.00           2155       26655.00    116748.00
  128.58        2962.25           2159       43608.00    191591.10
  128.61        2962.50           2162       57808.00    254637.20
  128.64        2962.75           2166       76131.00    336476.20
  128.67        2963.00           2170       93785.00    415853.70
  128.70        2963.25           2173      107816.00    479314.90
  128.73        2963.50           2177      127604.00    569385.50
  128.76        2963.75           2180      141913.00    634938.70
  128.79        2964.00           2184      158658.00    712108.10
  128.83        2964.25           2188      173044.00    778804.30
  128.86        2964.50           2191      182562.00    823136.10
  128.89        2964.75           2195      198483.00    897659.60
  128.92        2965.00           2199      214811.00    974573.60
  128.95        2965.25           2202      227180.00   1033170.00
  128.98        2965.50           2206      243683.00   1111801.00
  129.01        2965.75           2209      256410.00   1172797.00
  129.04        2966.00           2213      272864.00   1252122.00
  129.07        2966.25           2217      287129.00   1321326.00
  129.10        2966.50           2220      294451.00   1357004.00
  129.13        2966.75           2224      299276.00   1380574.00
  129.16        2967.00           2228      300136.00   1384780.00
  129.19        2967.25           2231      300576.00   1386933.00
  129.22        2967.50           2235      300631.00   1387202.00
  129.25        2967.75           2238      299528.00   1381807.00
  129.28        2968.00           2242      295461.00   1361934.00
  129.31        2968.25           2246      286101.00   1316325.00
  129.35        2968.50           2249      275177.00   1263316.00
  129.38        2968.75           2253      260110.00   1190589.00
  129.41        2969.00           2257      243991.00   1113273.00
  129.44        2969.25           2260      230750.00   1050136.00
  129.47        2969.50           2264      213346.00    967652.40
  129.50        2969.75           2267      200299.00    906189.70
  129.53        2970.00           2271      182254.00    821699.00
  129.56        2970.25           2275      163356.00    733848.20
  129.59        2970.50           2278      148560.00    665512.10
  129.62        2970.75           2282      130974.00    584792.20
  129.65        2971.00           2286      114372.00    509081.90
  129.68        2971.25           2289      101782.00    451982.70
  129.71        2971.50           2293       85827.00    380007.80
  129.74        2971.75           2296       73247.00    323558.20
  129.77        2972.00           2300       54308.00    239067.20
  129.80        2972.25           2304       34032.00    149258.90
  129.83        2972.50           2307       20042.00     87677.75
  129.86        2972.75           2311        7182.00     31344.09
  129.90        2973.00           2315        2632.00     11474.89
  129.93        2973.25           2318        1563.00      6811.41
  129.96        2973.50           2322        1254.00      5463.73
  129.99        2973.75           2326        1183.00      5154.10
  130.02        2974.00           2329        1142.00      4975.30
  130.05        2974.25           2333        1123.00      4892.44
  130.08        2974.50           2336        1148.00      5001.46
  130.11        2974.75           2340        1088.00      4739.81
  130.14        2975.00           2344        1051.00      4578.45
  130.17        2975.25           2347        1045.00      4552.29
  130.20        2975.50           2351        1021.00      4447.63
  130.23        2975.75           2355        1006.00      4382.22
  130.26        2976.00           2358        1011.00      4404.02
  130.29        2976.25           2362         970.00      4225.23
  130.32        2976.50           2365         974.00      4242.67
  130.35        2976.75           2369         934.00      4068.25
  130.38        2977.00           2373         955.00      4159.82
  130.41        2977.25           2376         889.00      3872.02
  130.45        2977.50           2380         927.00      4037.72
  130.48        2977.75           2384         883.00      3845.86
  130.51        2978.00           2387         931.00      4055.16
  130.54        2978.25           2391         874.00      3806.61
  130.57        2978.50           2395         926.00      4033.36
  130.60        2978.75           2398         872.00      3797.89
  130.63        2979.00           2402         847.00      3688.88
  130.66        2979.25           2405         859.00      3741.20
  130.69        2979.50           2409         872.00      3797.89
  130.72        2979.75           2413         834.00      3632.19
  130.75        2980.00           2416         816.00      3553.70
  130.78        2980.25           2420         808.00      3518.82
  130.81        2980.50           2424         830.00      3614.75
  130.84        2980.75           2427         787.00      3427.25
  130.87        2981.00           2431         801.00      3488.29
  130.90        2981.25           2435         792.00      3449.05
  130.93        2981.50           2438         784.00      3414.17
  130.96        2981.75           2442         791.00      3444.69
  130.99        2982.00           2445         763.00      3322.60
  131.03        2982.25           2449         769.00      3348.76
  131.06        2982.50           2453         771.00      3357.48
  131.09        2982.75           2456         770.00      3353.12
  131.12        2983.00           2460         796.00      3466.49
  131.15        2983.25           2464         770.00      3353.12
  131.18        2983.50           2467         763.00      3322.60
  131.21        2983.75           2471         770.00      3353.12
  131.24        2984.00           2475         731.00      3183.07
HS scan finished at 02:11:28
end
