************************************************************
  CZ Scan of (1) Internal mercury lamp
************************************************************
Integration time is 0.2294 seconds per sample
dh250517Madrid 40.45 3.717 3.19pr940
************************************************************
Dead Time -------------------------  3.1E-08 
Number of Cycles Used -------------  4 
Starting Wavelength (Angstroms) ---  2950 
Final Wavelength (Angstoms) -------  2984 
Wavelength Increment (Angstroms) --  .25 
Filter Wheel #1 Position ---------- (1) Ground quartz diffuser (ND=2.32)
Filter Wheel #2 Position ---------- (1) Neutral Density 0.494



************************************************************
CZ scan start time = 03:28:25
Dark Count =  8.600001 


Time (GMT)  Wavelength (Ang)  Step Number  Raw Counts  Counts/Second

  209.15        2950.00           1408          61.00       228.42
  209.29        2950.25           1412          68.00       258.94
  209.32        2950.50           1415          70.00       267.66
  209.35        2950.75           1418          68.00       258.94
  209.38        2951.00           1422          69.00       263.30
  209.41        2951.25           1425          75.00       289.45
  209.45        2951.50           1428          66.00       250.22
  209.48        2951.75           1432          77.00       298.17
  209.51        2952.00           1435          70.00       267.66
  209.54        2952.25           1439          63.00       237.14
  209.57        2952.50           1442          71.00       272.02
  209.61        2952.75           1445          77.00       298.17
  209.64        2953.00           1449          75.00       289.45
  209.67        2953.25           1452          70.00       267.66
  209.70        2953.50           1456          68.00       258.94
  209.73        2953.75           1459          72.00       276.38
  209.77        2954.00           1462          70.00       267.66
  209.80        2954.25           1466          75.00       289.45
  209.83        2954.50           1469          82.00       319.97
  209.86        2954.75           1472          70.00       267.66
  209.89        2955.00           1476          77.00       298.17
  209.93        2955.25           1479          73.00       280.73
  209.96        2955.50           1483          70.00       267.66
  209.99        2955.75           1486          77.00       298.17
  210.02        2956.00           1489          76.00       293.81
  210.06        2956.25           1493          80.00       311.25
  210.09        2956.50           1496          81.00       315.61
  210.12        2956.75           1499          73.00       280.73
  210.15        2957.00           1503          75.00       289.45
  210.19        2957.25           1506          79.00       306.89
  210.22        2957.50           1510          85.00       333.05
  210.25        2957.75           1513          81.00       315.61
  210.28        2958.00           1516          86.00       337.41
  210.32        2958.25           1520          83.00       324.33
  210.35        2958.50           1523          73.00       280.73
  210.38        2958.75           1527          88.00       346.12
  210.41        2959.00           1530          92.00       363.56
  210.44        2959.25           1533          92.00       363.56
  210.47        2959.50           1537          88.00       346.12
  210.51        2959.75           1540          85.00       333.05
  210.54        2960.00           1544          94.00       372.28
  210.57        2960.25           1547          93.00       367.92
  210.60        2960.50           1550          93.00       367.92
  210.63        2960.75           1554         128.00       520.50
  210.67        2961.00           1557         123.00       498.70
  210.70        2961.25           1560         224.00       939.00
  210.73        2961.50           1564         661.00      2844.19
  210.76        2961.75           1567        1304.00      5647.89
  210.80        2962.00           1571        2591.00     11261.12
  210.83        2962.25           1574        3537.00     15388.33
  210.86        2962.50           1577        4597.00     20014.16
  210.89        2962.75           1581        5905.00     25724.08
  210.92        2963.00           1584        6924.00     30173.81
  210.96        2963.25           1588        8201.00     35751.90
  210.99        2963.50           1591        9216.00     40186.92
  211.02        2963.75           1594       10273.00     44806.75
  211.05        2964.00           1598       11709.00     51085.20
  211.08        2964.25           1601       12823.00     55957.49
  211.12        2964.50           1605       14067.00     61400.11
  211.15        2964.75           1608       15219.00     66441.86
  211.18        2965.00           1611       16239.00     70907.22
  211.21        2965.25           1615       17972.00     78496.80
  211.24        2965.50           1618       19211.00     83925.12
  211.28        2965.75           1621       20186.00     88198.09
  211.31        2966.00           1625       21455.00     93761.24
  211.34        2966.25           1628       22463.00     98181.56
  211.37        2966.50           1632       23143.00    101164.20
  211.40        2966.75           1635       23517.00    102804.90
  211.44        2967.00           1638       23657.00    103419.10
  211.47        2967.25           1642       23400.00    102291.60
  211.50        2967.50           1645       23458.00    102546.10
  211.53        2967.75           1649       23021.00    100629.00
  211.56        2968.00           1652       22205.00     97050.06
  211.60        2968.25           1655       21382.00     93441.16
  211.63        2968.50           1659       19776.00     86401.12
  211.66        2968.75           1662       18769.00     81988.41
  211.69        2969.00           1666       17399.00     75986.98
  211.72        2969.25           1669       16395.00     71590.27
  211.76        2969.50           1672       15334.00     66945.25
  211.79        2969.75           1676       13977.00     61006.30
  211.82        2970.00           1679       13024.00     56836.76
  211.85        2970.25           1683       11765.00     51330.09
  211.89        2970.50           1686       10769.00     46975.08
  211.92        2970.75           1689        9714.00     42363.36
  211.95        2971.00           1693        8171.00     35620.83
  211.98        2971.25           1696        7214.00     31440.40
  212.02        2971.50           1700        5801.00     25270.01
  212.05        2971.75           1703        4744.00     20655.77
  212.08        2972.00           1706        3619.00     15746.13
  212.11        2972.25           1710        2250.00      9773.67
  212.14        2972.50           1713        1427.00      6184.27
  212.18        2972.75           1717         511.00      2190.21
  212.21        2973.00           1720         216.00       904.12
  212.24        2973.25           1723         135.00       551.01
  212.27        2973.50           1727         100.00       398.44
  212.31        2973.75           1730         101.00       402.79
  212.34        2974.00           1734          95.00       376.64
  212.37        2974.25           1737          92.00       363.56
  212.40        2974.50           1740          89.00       350.48
  212.43        2974.75           1744          88.00       346.12
  212.46        2975.00           1747          92.00       363.56
  212.50        2975.25           1751          95.00       376.64
  212.53        2975.50           1754          80.00       311.25
  212.56        2975.75           1757          86.00       337.41
  212.59        2976.00           1761          90.00       354.84
  212.63        2976.25           1764          78.00       302.53
  212.66        2976.50           1768          78.00       302.53
  212.69        2976.75           1771          90.00       354.84
  212.72        2977.00           1774          85.00       333.05
  212.75        2977.25           1778          75.00       289.45
  212.79        2977.50           1781          79.00       306.89
  212.82        2977.75           1785          71.00       272.02
  212.85        2978.00           1788          72.00       276.38
  212.88        2978.25           1791          74.00       285.09
  212.91        2978.50           1795          72.00       276.38
  212.95        2978.75           1798          72.00       276.38
  212.98        2979.00           1802          71.00       272.02
  213.01        2979.25           1805          72.00       276.38
  213.04        2979.50           1808          76.00       293.81
  213.07        2979.75           1812          77.00       298.17
  213.11        2980.00           1815          79.00       306.89
  213.14        2980.25           1819          75.00       289.45
  213.17        2980.50           1822          72.00       276.38
  213.20        2980.75           1825          72.00       276.38
  213.23        2981.00           1829          64.00       241.50
  213.27        2981.25           1832          63.00       237.14
  213.30        2981.50           1836          71.00       272.02
  213.33        2981.75           1839          65.00       245.86
  213.36        2982.00           1842          73.00       280.73
  213.39        2982.25           1846          62.00       232.78
  213.43        2982.50           1849          66.00       250.22
  213.46        2982.75           1853          61.00       228.42
  213.49        2983.00           1856          60.00       224.06
  213.52        2983.25           1859          66.00       250.22
  213.56        2983.50           1863          65.00       245.86
  213.59        2983.75           1866          70.00       267.66
  213.62        2984.00           1870          64.00       241.50
CZ scan finished at 03:33:51
end
