************************************************************
  CZ Scan of (1) Internal mercury lamp
************************************************************
Integration time is 0.2294 seconds per sample
dh260517Madrid 40.45 3.717 3.23pr940
************************************************************
Dead Time -------------------------  3.1E-08 
Number of Cycles Used -------------  4 
Starting Wavelength (Angstroms) ---  2950 
Final Wavelength (Angstoms) -------  2984 
Wavelength Increment (Angstroms) --  .25 
Filter Wheel #1 Position ---------- (1) Ground quartz diffuser (ND=2.32)
Filter Wheel #2 Position ---------- (1) Neutral Density 0.494



************************************************************
CZ scan start time = 03:27:02
Dark Count =  9.5 


Time (GMT)  Wavelength (Ang)  Step Number  Raw Counts  Counts/Second

  207.77        2950.00           1408          75.00       285.53
  207.91        2950.25           1412          68.00       255.02
  207.94        2950.50           1415          67.00       250.66
  207.98        2950.75           1418          72.00       272.45
  208.01        2951.00           1422          68.00       255.02
  208.04        2951.25           1425          71.00       268.09
  208.07        2951.50           1428          79.00       302.97
  208.10        2951.75           1432          75.00       285.53
  208.14        2952.00           1435          70.00       263.73
  208.17        2952.25           1439          72.00       272.45
  208.20        2952.50           1442          71.00       268.09
  208.23        2952.75           1445          72.00       272.45
  208.26        2953.00           1449          62.00       228.86
  208.30        2953.25           1452          73.00       276.81
  208.33        2953.50           1456          62.00       228.86
  208.36        2953.75           1459          72.00       272.45
  208.39        2954.00           1462          80.00       307.33
  208.43        2954.25           1466          70.00       263.73
  208.46        2954.50           1469          64.00       237.58
  208.49        2954.75           1472          76.00       289.89
  208.52        2955.00           1476          71.00       268.09
  208.55        2955.25           1479          72.00       272.45
  208.58        2955.50           1483          80.00       307.33
  208.62        2955.75           1486          79.00       302.97
  208.65        2956.00           1489          80.00       307.33
  208.68        2956.25           1493          76.00       289.89
  208.71        2956.50           1496          76.00       289.89
  208.74        2956.75           1499          83.00       320.40
  208.78        2957.00           1503          80.00       307.33
  208.81        2957.25           1506          81.00       311.69
  208.84        2957.50           1510          77.00       294.25
  208.87        2957.75           1513          75.00       285.53
  208.91        2958.00           1516          77.00       294.25
  208.94        2958.25           1520          87.00       337.84
  208.97        2958.50           1523          89.00       346.56
  209.00        2958.75           1527          87.00       337.84
  209.03        2959.00           1530          84.00       324.76
  209.06        2959.25           1533          93.00       364.00
  209.10        2959.50           1537          87.00       337.84
  209.13        2959.75           1540          90.00       350.92
  209.16        2960.00           1544          84.00       324.76
  209.19        2960.25           1547         110.00       438.11
  209.23        2960.50           1550         109.00       433.75
  209.26        2960.75           1554         103.00       407.59
  209.29        2961.00           1557         132.00       534.01
  209.32        2961.25           1560         191.00       791.21
  209.35        2961.50           1564         550.00      2356.32
  209.39        2961.75           1567        1202.00      5199.18
  209.42        2962.00           1571        2391.00     10384.77
  209.45        2962.25           1574        3394.00     14760.46
  209.48        2962.50           1577        4397.00     19137.33
  209.51        2962.75           1581        5746.00     25025.95
  209.55        2963.00           1584        6831.00     29763.72
  209.58        2963.25           1588        8457.00     36866.43
  209.61        2963.50           1591        9589.00     41813.10
  209.64        2963.75           1594       10595.00     46210.44
  209.67        2964.00           1598       12083.00     52716.86
  209.71        2964.25           1601       13163.00     57440.91
  209.74        2964.50           1605       14609.00     63768.05
  209.77        2964.75           1608       15591.00     68066.31
  209.80        2965.00           1611       16697.00     72908.72
  209.83        2965.25           1615       18230.00     79623.06
  209.87        2965.50           1618       19096.00     83417.27
  209.90        2965.75           1621       20240.00     88430.85
  209.93        2966.00           1625       21554.00     94191.38
  209.96        2966.25           1628       22543.00     98528.48
  209.99        2966.50           1632       23420.00    102375.40
  210.03        2966.75           1635       23938.00    104648.00
  210.06        2967.00           1638       23949.00    104696.30
  210.09        2967.25           1642       23865.00    104327.70
  210.12        2967.50           1645       23851.00    104266.30
  210.16        2967.75           1649       23464.00    102568.40
  210.19        2968.00           1652       22971.00    100405.80
  210.22        2968.25           1655       22066.00     96436.52
  210.26        2968.50           1659       20407.00     89162.86
  210.29        2968.75           1662       19147.00     83640.74
  210.32        2969.00           1666       17717.00     77375.88
  210.35        2969.25           1669       16578.00     72387.63
  210.38        2969.50           1672       15616.00     68175.76
  210.42        2969.75           1676       14422.00     62949.67
  210.45        2970.00           1679       13295.00     58018.38
  210.48        2970.25           1683       12043.00     52541.92
  210.51        2970.50           1686       11134.00     48566.97
  210.54        2970.75           1689       10061.00     43876.12
  210.57        2971.00           1693        8660.00     37753.40
  210.61        2971.25           1696        7555.00     32925.92
  210.64        2971.50           1700        6077.00     26471.15
  210.67        2971.75           1703        5076.00     22101.01
  210.70        2972.00           1706        3970.00     17273.85
  210.73        2972.25           1710        2471.00     10733.74
  210.77        2972.50           1713        1538.00      6664.41
  210.80        2972.75           1717         554.00      2373.76
  210.83        2973.00           1720         236.00       987.39
  210.86        2973.25           1723         137.00       555.81
  210.90        2973.50           1727         104.00       411.95
  210.93        2973.75           1730          92.00       359.64
  210.96        2974.00           1734          96.00       377.08
  210.99        2974.25           1737          94.00       368.36
  211.02        2974.50           1740          83.00       320.40
  211.06        2974.75           1744          80.00       307.33
  211.09        2975.00           1747          85.00       329.12
  211.12        2975.25           1751          82.00       316.04
  211.15        2975.50           1754          85.00       329.12
  211.18        2975.75           1757          81.00       311.69
  211.22        2976.00           1761          74.00       281.17
  211.25        2976.25           1764          78.00       298.61
  211.28        2976.50           1768          82.00       316.04
  211.31        2976.75           1771          80.00       307.33
  211.34        2977.00           1774          81.00       311.69
  211.38        2977.25           1778          83.00       320.40
  211.41        2977.50           1781          78.00       298.61
  211.44        2977.75           1785          82.00       316.04
  211.47        2978.00           1788          82.00       316.04
  211.50        2978.25           1791          69.00       259.37
  211.54        2978.50           1795          75.00       285.53
  211.57        2978.75           1798          77.00       294.25
  211.60        2979.00           1802          81.00       311.69
  211.63        2979.25           1805          75.00       285.53
  211.66        2979.50           1808          74.00       281.17
  211.70        2979.75           1812          70.00       263.73
  211.73        2980.00           1815          69.00       259.37
  211.76        2980.25           1819          65.00       241.94
  211.79        2980.50           1822          68.00       255.02
  211.82        2980.75           1825          75.00       285.53
  211.86        2981.00           1829          71.00       268.09
  211.89        2981.25           1832          75.00       285.53
  211.92        2981.50           1836          67.00       250.66
  211.96        2981.75           1839          70.00       263.73
  211.99        2982.00           1842          67.00       250.66
  212.02        2982.25           1846          65.00       241.94
  212.05        2982.50           1849          71.00       268.09
  212.09        2982.75           1853          64.00       237.58
  212.12        2983.00           1856          68.00       255.02
  212.15        2983.25           1859          62.00       228.86
  212.18        2983.50           1863          64.00       237.58
  212.21        2983.75           1866          68.00       255.02
  212.25        2984.00           1870          69.00       259.37
CZ scan finished at 03:32:28
end
************************************************************
  CZ Scan of (1) Internal mercury lamp
************************************************************
Integration time is 0.2294 seconds per sample
dh260517Madrid 40.45 3.717 3.58pr940
************************************************************
Dead Time -------------------------  3.1E-08 
Number of Cycles Used -------------  4 
Starting Wavelength (Angstroms) ---  2950 
Final Wavelength (Angstoms) -------  2984 
Wavelength Increment (Angstroms) --  .25 
Filter Wheel #1 Position ---------- (1) Ground quartz diffuser (ND=2.32)
Filter Wheel #2 Position ---------- (1) Neutral Density 0.494



************************************************************
CZ scan start time = 08:37:48
Dark Count =  17.9 


Time (GMT)  Wavelength (Ang)  Step Number  Raw Counts  Counts/Second

  518.52        2950.00           1408          66.00       209.68
  518.66        2950.25           1412          61.00       187.88
  518.69        2950.50           1415          61.00       187.88
  518.73        2950.75           1418          67.00       214.04
  518.76        2951.00           1422          61.00       187.88
  518.79        2951.25           1425          60.00       183.52
  518.82        2951.50           1428          64.00       200.96
  518.85        2951.75           1432          66.00       209.68
  518.89        2952.00           1435          56.00       166.09
  518.92        2952.25           1439          69.00       222.76
  518.95        2952.50           1442          71.00       231.48
  518.98        2952.75           1445          68.00       218.40
  519.01        2953.00           1449          69.00       222.76
  519.05        2953.25           1452          76.00       253.27
  519.08        2953.50           1456          68.00       218.40
  519.11        2953.75           1459          64.00       200.96
  519.14        2954.00           1462          71.00       231.48
  519.17        2954.25           1466          67.00       214.04
  519.21        2954.50           1469          70.00       227.12
  519.24        2954.75           1472          65.00       205.32
  519.27        2955.00           1476          67.00       214.04
  519.30        2955.25           1479          75.00       248.91
  519.33        2955.50           1483          69.00       222.76
  519.37        2955.75           1486          63.00       196.60
  519.40        2956.00           1489          72.00       235.83
  519.43        2956.25           1493          73.00       240.19
  519.46        2956.50           1496          77.00       257.63
  519.49        2956.75           1499          74.00       244.55
  519.53        2957.00           1503          75.00       248.91
  519.56        2957.25           1506          78.00       261.99
  519.59        2957.50           1510          75.00       248.91
  519.62        2957.75           1513          79.00       266.35
  519.65        2958.00           1516          82.00       279.43
  519.69        2958.25           1520          80.00       270.71
  519.72        2958.50           1523          79.00       266.35
  519.75        2958.75           1527          80.00       270.71
  519.78        2959.00           1530          77.00       257.63
  519.81        2959.25           1533          79.00       266.35
  519.85        2959.50           1537          89.00       309.94
  519.88        2959.75           1540          79.00       266.35
  519.91        2960.00           1544          79.00       266.35
  519.94        2960.25           1547          85.00       292.50
  519.97        2960.50           1550          90.00       314.30
  520.01        2960.75           1554          97.00       344.82
  520.04        2961.00           1557         169.00       658.69
  520.07        2961.25           1560         305.00      1251.57
  520.10        2961.50           1564         751.00      3196.04
  520.13        2961.75           1567        1491.00      6422.81
  520.17        2962.00           1571        2692.00     11661.15
  520.20        2962.25           1574        3517.00     15260.49
  520.23        2962.50           1577        4514.00     19611.31
  520.26        2962.75           1581        5708.00     24823.37
  520.30        2963.00           1584        6589.00     28670.20
  520.33        2963.25           1588        7850.00     34177.87
  520.36        2963.50           1591        8968.00     39062.53
  520.39        2963.75           1594        9936.00     43293.03
  520.42        2964.00           1598       11190.00     48775.09
  520.46        2964.25           1601       12198.00     53183.07
  520.49        2964.50           1605       13454.00     58677.26
  520.52        2964.75           1608       14413.00     62873.52
  520.55        2965.00           1611       15260.00     66580.61
  520.58        2965.25           1615       16596.00     72429.66
  520.62        2965.50           1618       17535.00     76541.91
  520.65        2965.75           1621       18371.00     80203.96
  520.68        2966.00           1625       19664.00     85869.52
  520.71        2966.25           1628       20317.00     88731.53
  520.74        2966.50           1632       21088.00     92111.38
  520.78        2966.75           1635       21208.00     92637.50
  520.81        2967.00           1638       21209.00     92641.88
  520.84        2967.25           1642       21226.00     92716.41
  520.87        2967.50           1645       21316.00     93111.00
  520.90        2967.75           1649       20607.00     90002.72
  520.94        2968.00           1652       19778.00     86369.12
  520.97        2968.25           1655       19095.00     83376.08
  521.00        2968.50           1659       17844.00     77895.38
  521.03        2968.75           1662       16597.00     72434.04
  521.06        2969.00           1666       15273.00     66637.52
  521.10        2969.25           1669       14289.00     62330.88
  521.13        2969.50           1672       13467.00     58734.14
  521.16        2969.75           1676       12194.00     53165.58
  521.19        2970.00           1679       11436.00     49850.74
  521.23        2970.25           1683       10283.00     44809.81
  521.26        2970.50           1686        9456.00     41195.13
  521.29        2970.75           1689        8399.00     36576.32
  521.32        2971.00           1693        7222.00     31434.72
  521.35        2971.25           1696        6182.00     26892.94
  521.39        2971.50           1700        4837.00     21021.11
  521.42        2971.75           1703        4010.00     17411.75
  521.45        2972.00           1706        2984.00     12935.00
  521.48        2972.25           1710        1772.00      7648.28
  521.51        2972.50           1713        1079.00      4626.21
  521.55        2972.75           1717         362.00      1500.07
  521.58        2973.00           1720         165.00       641.25
  521.61        2973.25           1723         111.00       405.85
  521.64        2973.50           1727          96.00       340.46
  521.67        2973.75           1730          89.00       309.94
  521.71        2974.00           1734          82.00       279.43
  521.74        2974.25           1737          72.00       235.83
  521.77        2974.50           1740          78.00       261.99
  521.80        2974.75           1744          87.00       301.22
  521.83        2975.00           1747          84.00       288.15
  521.87        2975.25           1751          79.00       266.35
  521.90        2975.50           1754          72.00       235.83
  521.93        2975.75           1757          76.00       253.27
  521.96        2976.00           1761          69.00       222.76
  521.99        2976.25           1764          72.00       235.83
  522.03        2976.50           1768          79.00       266.35
  522.06        2976.75           1771          73.00       240.19
  522.09        2977.00           1774          69.00       222.76
  522.12        2977.25           1778          69.00       222.76
  522.15        2977.50           1781          69.00       222.76
  522.19        2977.75           1785          72.00       235.83
  522.22        2978.00           1788          69.00       222.76
  522.25        2978.25           1791          69.00       222.76
  522.28        2978.50           1795          67.00       214.04
  522.31        2978.75           1798          69.00       222.76
  522.35        2979.00           1802          71.00       231.48
  522.38        2979.25           1805          74.00       244.55
  522.41        2979.50           1808          69.00       222.76
  522.44        2979.75           1812          69.00       222.76
  522.47        2980.00           1815          62.00       192.24
  522.51        2980.25           1819          66.00       209.68
  522.54        2980.50           1822          67.00       214.04
  522.57        2980.75           1825          66.00       209.68
  522.60        2981.00           1829          62.00       192.24
  522.63        2981.25           1832          65.00       205.32
  522.67        2981.50           1836          56.00       166.09
  522.70        2981.75           1839          67.00       214.04
  522.73        2982.00           1842          55.00       161.73
  522.76        2982.25           1846          63.00       196.60
  522.79        2982.50           1849          58.00       174.80
  522.83        2982.75           1853          60.00       183.52
  522.86        2983.00           1856          60.00       183.52
  522.89        2983.25           1859          65.00       205.32
  522.92        2983.50           1863          62.00       192.24
  522.95        2983.75           1866          62.00       192.24
  522.99        2984.00           1870          61.00       187.88
CZ scan finished at 08:43:13
end
