************************************************************
  CZ Scan of (1) Internal mercury lamp
************************************************************
Integration time is 0.2294 seconds per sample
dh230517Madrid 40.45 3.717 3.11pr940
************************************************************
Dead Time -------------------------  3.1E-08 
Number of Cycles Used -------------  4 
Starting Wavelength (Angstroms) ---  2950 
Final Wavelength (Angstoms) -------  2984 
Wavelength Increment (Angstroms) --  .25 
Filter Wheel #1 Position ---------- (1) Ground quartz diffuser (ND=2.32)
Filter Wheel #2 Position ---------- (1) Neutral Density 0.494



************************************************************
CZ scan start time = 03:31:19
Dark Count =  6.6 


Time (GMT)  Wavelength (Ang)  Step Number  Raw Counts  Counts/Second

  212.05        2950.00           1408          61.00       237.14
  212.19        2950.25           1412          75.00       298.17
  212.22        2950.50           1415          71.00       280.73
  212.25        2950.75           1418          70.00       276.38
  212.28        2951.00           1422          71.00       280.73
  212.32        2951.25           1425          70.00       276.38
  212.35        2951.50           1428          67.00       263.30
  212.38        2951.75           1432          78.00       311.25
  212.41        2952.00           1435          75.00       298.17
  212.44        2952.25           1439          74.00       293.81
  212.48        2952.50           1442          67.00       263.30
  212.51        2952.75           1445          76.00       302.53
  212.54        2953.00           1449          66.00       258.94
  212.57        2953.25           1452          72.00       285.09
  212.61        2953.50           1456          74.00       293.81
  212.64        2953.75           1459          68.00       267.66
  212.67        2954.00           1462          68.00       267.66
  212.70        2954.25           1466          75.00       298.17
  212.73        2954.50           1469          74.00       293.81
  212.77        2954.75           1472          69.00       272.02
  212.80        2955.00           1476          72.00       285.09
  212.83        2955.25           1479          80.00       319.97
  212.86        2955.50           1483          76.00       302.53
  212.89        2955.75           1486          78.00       311.25
  212.93        2956.00           1489          76.00       302.53
  212.96        2956.25           1493          82.00       328.69
  212.99        2956.50           1496          89.00       359.20
  213.02        2956.75           1499          87.00       350.48
  213.06        2957.00           1503          84.00       337.41
  213.09        2957.25           1506          89.00       359.20
  213.12        2957.50           1510          76.00       302.53
  213.15        2957.75           1513          84.00       337.41
  213.18        2958.00           1516          97.00       394.08
  213.22        2958.25           1520          85.00       341.76
  213.25        2958.50           1523          81.00       324.33
  213.28        2958.75           1527          94.00       381.00
  213.31        2959.00           1530          81.00       324.33
  213.34        2959.25           1533          86.00       346.12
  213.38        2959.50           1537          81.00       324.33
  213.41        2959.75           1540          85.00       341.76
  213.44        2960.00           1544          94.00       381.00
  213.47        2960.25           1547          89.00       359.20
  213.50        2960.50           1550          87.00       350.48
  213.54        2960.75           1554         145.00       603.32
  213.57        2961.00           1557         126.00       520.50
  213.60        2961.25           1560         227.00       960.80
  213.63        2961.50           1564         657.00      2835.47
  213.66        2961.75           1567        1369.00      5940.07
  213.70        2962.00           1571        2658.00     11562.12
  213.73        2962.25           1574        3689.00     16060.30
  213.76        2962.50           1577        4722.00     20568.47
  213.79        2962.75           1581        6039.00     26317.89
  213.82        2963.00           1584        7055.00     30754.68
  213.86        2963.25           1588        8379.00     36538.32
  213.89        2963.50           1591        9554.00     41672.81
  213.92        2963.75           1594       10718.00     46760.85
  213.95        2964.00           1598       12093.00     52773.28
  213.99        2964.25           1601       13167.00     57471.09
  214.02        2964.50           1605       14688.00     64126.48
  214.05        2964.75           1608       15949.00     69646.28
  214.08        2965.00           1611       17168.00     74984.05
  214.12        2965.25           1615       18560.00     81081.50
  214.15        2965.50           1618       19727.00     86195.15
  214.18        2965.75           1621       20818.00     90977.24
  214.21        2966.00           1625       22301.00     97479.84
  214.24        2966.25           1628       23101.00    100988.70
  214.28        2966.50           1632       23869.00    104358.00
  214.31        2966.75           1635       24136.00    105529.50
  214.34        2967.00           1638       24301.00    106253.50
  214.37        2967.25           1642       24246.00    106012.20
  214.40        2967.50           1645       24244.00    106003.40
  214.44        2967.75           1649       23694.00    103590.20
  214.47        2968.00           1652       22738.00     99396.48
  214.50        2968.25           1655       21980.00     96072.10
  214.53        2968.50           1659       20659.00     90280.22
  214.56        2968.75           1662       19405.00     84784.02
  214.60        2969.00           1666       18043.00     78816.58
  214.63        2969.25           1669       16982.00     74169.48
  214.66        2969.50           1672       15850.00     69212.87
  214.69        2969.75           1676       14513.00     63360.60
  214.73        2970.00           1679       13514.00     58989.21
  214.76        2970.25           1683       12253.00     53473.05
  214.79        2970.50           1686       11148.00     48640.86
  214.82        2970.75           1689        9988.00     43569.71
  214.85        2971.00           1693        8664.00     37783.55
  214.89        2971.25           1696        7526.00     32811.92
  214.92        2971.50           1700        6043.00     26335.35
  214.95        2971.75           1703        5015.00     21847.40
  214.98        2972.00           1706        3793.00     16514.12
  215.01        2972.25           1710        2345.00     10196.77
  215.05        2972.50           1713        1507.00      6541.87
  215.08        2972.75           1717         566.00      2438.72
  215.11        2973.00           1720         235.00       995.67
  215.14        2973.25           1723         139.00       577.17
  215.17        2973.50           1727         119.00       489.98
  215.21        2973.75           1730          96.00       389.72
  215.24        2974.00           1734          96.00       389.72
  215.27        2974.25           1737          93.00       376.64
  215.30        2974.50           1740          96.00       389.72
  215.33        2974.75           1744          85.00       341.76
  215.37        2975.00           1747          90.00       363.56
  215.40        2975.25           1751          89.00       359.20
  215.43        2975.50           1754          80.00       319.97
  215.46        2975.75           1757          87.00       350.48
  215.49        2976.00           1761          82.00       328.69
  215.53        2976.25           1764          80.00       319.97
  215.56        2976.50           1768          76.00       302.53
  215.59        2976.75           1771          80.00       319.97
  215.62        2977.00           1774          79.00       315.61
  215.65        2977.25           1778          80.00       319.97
  215.69        2977.50           1781          78.00       311.25
  215.72        2977.75           1785          76.00       302.53
  215.75        2978.00           1788          71.00       280.73
  215.78        2978.25           1791          71.00       280.73
  215.82        2978.50           1795          69.00       272.02
  215.85        2978.75           1798          73.00       289.45
  215.88        2979.00           1802          73.00       289.45
  215.91        2979.25           1805          71.00       280.73
  215.95        2979.50           1808          76.00       302.53
  215.98        2979.75           1812          73.00       289.45
  216.01        2980.00           1815          76.00       302.53
  216.04        2980.25           1819          69.00       272.02
  216.08        2980.50           1822          74.00       293.81
  216.11        2980.75           1825          74.00       293.81
  216.14        2981.00           1829          69.00       272.02
  216.17        2981.25           1832          63.00       245.86
  216.20        2981.50           1836          65.00       254.58
  216.23        2981.75           1839          67.00       263.30
  216.27        2982.00           1842          65.00       254.58
  216.30        2982.25           1846          67.00       263.30
  216.33        2982.50           1849          65.00       254.58
  216.36        2982.75           1853          68.00       267.66
  216.39        2983.00           1856          67.00       263.30
  216.43        2983.25           1859          65.00       254.58
  216.46        2983.50           1863          62.00       241.50
  216.49        2983.75           1866          63.00       245.86
  216.52        2984.00           1870          71.00       280.73
CZ scan finished at 03:36:45
end
