************************************************************
  CZ Scan of (1) Internal mercury lamp
************************************************************
Integration time is 0.2294 seconds per sample
dh240517Madrid 40.45 3.717 3.13pr940
************************************************************
Dead Time -------------------------  3.1E-08 
Number of Cycles Used -------------  4 
Starting Wavelength (Angstroms) ---  2950 
Final Wavelength (Angstoms) -------  2984 
Wavelength Increment (Angstroms) --  .25 
Filter Wheel #1 Position ---------- (1) Ground quartz diffuser (ND=2.32)
Filter Wheel #2 Position ---------- (1) Neutral Density 0.494



************************************************************
CZ scan start time = 03:29:52
Dark Count =  7.5 


Time (GMT)  Wavelength (Ang)  Step Number  Raw Counts  Counts/Second

  210.59        2950.00           1408          64.00       246.30
  210.73        2950.25           1412          66.00       255.02
  210.77        2950.50           1415          67.00       259.37
  210.80        2950.75           1418          67.00       259.37
  210.83        2951.00           1422          68.00       263.73
  210.86        2951.25           1425          72.00       281.17
  210.89        2951.50           1428          74.00       289.89
  210.93        2951.75           1432          78.00       307.33
  210.96        2952.00           1435          75.00       294.25
  210.99        2952.25           1439          69.00       268.09
  211.03        2952.50           1442          70.00       272.45
  211.06        2952.75           1445          67.00       259.37
  211.09        2953.00           1449          95.00       381.43
  211.12        2953.25           1452          68.00       263.73
  211.15        2953.50           1456          72.00       281.17
  211.19        2953.75           1459          67.00       259.37
  211.22        2954.00           1462          62.00       237.58
  211.25        2954.25           1466          68.00       263.73
  211.28        2954.50           1469          77.00       302.97
  211.31        2954.75           1472          71.00       276.81
  211.35        2955.00           1476          78.00       307.33
  211.38        2955.25           1479          75.00       294.25
  211.41        2955.50           1483          81.00       320.40
  211.44        2955.75           1486          81.00       320.40
  211.47        2956.00           1489          78.00       307.33
  211.50        2956.25           1493          78.00       307.33
  211.54        2956.50           1496          79.00       311.69
  211.57        2956.75           1499          82.00       324.76
  211.60        2957.00           1503          79.00       311.69
  211.63        2957.25           1506          73.00       285.53
  211.67        2957.50           1510          75.00       294.25
  211.70        2957.75           1513          97.00       390.15
  211.73        2958.00           1516          88.00       350.92
  211.76        2958.25           1520          80.00       316.04
  211.80        2958.50           1523          76.00       298.61
  211.83        2958.75           1527          93.00       372.72
  211.86        2959.00           1530          78.00       307.33
  211.89        2959.25           1533          94.00       377.08
  211.92        2959.50           1537          93.00       372.72
  211.96        2959.75           1540          97.00       390.15
  211.99        2960.00           1544          89.00       355.28
  212.02        2960.25           1547          86.00       342.20
  212.05        2960.50           1550         115.00       468.62
  212.08        2960.75           1554          99.00       398.87
  212.11        2961.00           1557         160.00       664.79
  212.15        2961.25           1560         193.00       808.65
  212.18        2961.50           1564         526.00      2260.40
  212.21        2961.75           1567        1040.00      4501.50
  212.24        2962.00           1571        2179.00      9468.78
  212.28        2962.25           1574        3225.00     14031.82
  212.31        2962.50           1577        4195.00     18264.48
  212.34        2962.75           1581        5508.00     23995.61
  212.37        2963.00           1584        6467.00     28182.85
  212.40        2963.25           1588        7712.00     33620.46
  212.43        2963.50           1591        8835.00     38526.81
  212.47        2963.75           1594        9743.00     42494.92
  212.50        2964.00           1598       11147.00     48632.55
  212.53        2964.25           1601       12126.00     52913.67
  212.56        2964.50           1605       13600.00     59361.54
  212.60        2964.75           1608       14615.00     63803.06
  212.63        2965.00           1611       15923.00     69528.51
  212.66        2965.25           1615       17355.00     75799.09
  212.69        2965.50           1618       18142.00     79246.31
  212.72        2965.75           1621       19380.00     84670.51
  212.76        2966.00           1625       20708.00     90491.07
  212.79        2966.25           1628       21678.00     94743.86
  212.82        2966.50           1632       22859.00     99923.26
  212.85        2966.75           1635       23470.00    102603.50
  212.88        2967.00           1638       23811.00    104099.60
  212.92        2967.25           1642       23954.00    104727.00
  212.95        2967.50           1645       23668.00    103472.20
  212.98        2967.75           1649       23807.00    104082.00
  213.01        2968.00           1652       23309.00    101897.20
  213.04        2968.25           1655       22817.00     99739.03
  213.08        2968.50           1659       21247.00     92854.08
  213.11        2968.75           1662       20196.00     88246.76
  213.14        2969.00           1666       18589.00     81204.60
  213.17        2969.25           1669       17241.00     75299.81
  213.20        2969.50           1672       16305.00     71201.02
  213.24        2969.75           1676       14985.00     65422.44
  213.27        2970.00           1679       13998.00     61102.99
  213.30        2970.25           1683       12620.00     55074.34
  213.33        2970.50           1686       11757.00     51299.92
  213.36        2970.75           1689       10669.00     46542.70
  213.40        2971.00           1693        9264.00     40401.49
  213.43        2971.25           1696        8241.00     35931.46
  213.46        2971.50           1700        6755.00     29440.55
  213.49        2971.75           1703        5729.00     24960.46
  213.53        2972.00           1706        4588.00     19979.68
  213.56        2972.25           1710        3136.00     13643.52
  213.59        2972.50           1713        2201.00      9564.74
  213.62        2972.75           1717        1092.00      4728.24
  213.65        2973.00           1720         532.00      2286.56
  213.69        2973.25           1723         227.00       956.87
  213.72        2973.50           1727         115.00       468.62
  213.75        2973.75           1730          95.00       381.43
  213.78        2974.00           1734         108.00       438.11
  213.81        2974.25           1737          87.00       346.56
  213.85        2974.50           1740          91.00       364.00
  213.88        2974.75           1744          88.00       350.92
  213.91        2975.00           1747          84.00       333.48
  213.94        2975.25           1751          78.00       307.33
  213.97        2975.50           1754          79.00       311.69
  214.01        2975.75           1757          76.00       298.61
  214.04        2976.00           1761          87.00       346.56
  214.07        2976.25           1764          85.00       337.84
  214.10        2976.50           1768          81.00       320.40
  214.13        2976.75           1771          76.00       298.61
  214.17        2977.00           1774          84.00       333.48
  214.20        2977.25           1778          75.00       294.25
  214.23        2977.50           1781          78.00       307.33
  214.26        2977.75           1785          79.00       311.69
  214.29        2978.00           1788          74.00       289.89
  214.33        2978.25           1791          75.00       294.25
  214.36        2978.50           1795          72.00       281.17
  214.39        2978.75           1798          74.00       289.89
  214.42        2979.00           1802          72.00       281.17
  214.45        2979.25           1805          72.00       281.17
  214.49        2979.50           1808          68.00       263.73
  214.52        2979.75           1812          71.00       276.81
  214.55        2980.00           1815          64.00       246.30
  214.58        2980.25           1819          68.00       263.73
  214.61        2980.50           1822          77.00       302.97
  214.65        2980.75           1825          68.00       263.73
  214.68        2981.00           1829          67.00       259.37
  214.71        2981.25           1832          71.00       276.81
  214.74        2981.50           1836          75.00       294.25
  214.78        2981.75           1839          73.00       285.53
  214.81        2982.00           1842          66.00       255.02
  214.84        2982.25           1846          73.00       285.53
  214.87        2982.50           1849          68.00       263.73
  214.90        2982.75           1853          68.00       263.73
  214.93        2983.00           1856          68.00       263.73
  214.97        2983.25           1859          67.00       259.37
  215.00        2983.50           1863          64.00       246.30
  215.03        2983.75           1866          56.00       211.42
  215.06        2984.00           1870          64.00       246.30
CZ scan finished at 03:35:17
end
************************************************************
  CZ Scan of (1) Internal mercury lamp
************************************************************
Integration time is 0.2294 seconds per sample
dh240517Madrid 40.45 3.717 3.74pr940
************************************************************
Dead Time -------------------------  3.1E-08 
Number of Cycles Used -------------  4 
Starting Wavelength (Angstroms) ---  2950 
Final Wavelength (Angstoms) -------  2984 
Wavelength Increment (Angstroms) --  .25 
Filter Wheel #1 Position ---------- (1) Ground quartz diffuser (ND=2.32)
Filter Wheel #2 Position ---------- (1) Neutral Density 0.494



************************************************************
CZ scan start time = 09:19:55
Dark Count =  28 


Time (GMT)  Wavelength (Ang)  Step Number  Raw Counts  Counts/Second

  560.65        2950.00           1408          66.00       165.65
  560.79        2950.25           1412          71.00       187.45
  560.82        2950.50           1415          70.00       183.09
  560.86        2950.75           1418          69.00       178.73
  560.89        2951.00           1422          70.00       183.09
  560.92        2951.25           1425          66.00       165.65
  560.95        2951.50           1428          77.00       213.60
  560.98        2951.75           1432          72.00       191.81
  561.02        2952.00           1435          67.00       170.01
  561.05        2952.25           1439          70.00       183.09
  561.08        2952.50           1442          76.00       209.24
  561.11        2952.75           1445          65.00       161.29
  561.14        2953.00           1449          71.00       187.45
  561.18        2953.25           1452          73.00       196.17
  561.21        2953.50           1456          73.00       196.17
  561.24        2953.75           1459          72.00       191.81
  561.27        2954.00           1462          68.00       174.37
  561.31        2954.25           1466          84.00       244.12
  561.34        2954.50           1469          76.00       209.24
  561.37        2954.75           1472          75.00       204.88
  561.40        2955.00           1476          77.00       213.60
  561.43        2955.25           1479          77.00       213.60
  561.47        2955.50           1483          76.00       209.24
  561.50        2955.75           1486          84.00       244.12
  561.53        2956.00           1489          81.00       231.04
  561.56        2956.25           1493          76.00       209.24
  561.59        2956.50           1496          79.00       222.32
  561.63        2956.75           1499          77.00       213.60
  561.66        2957.00           1503          76.00       209.24
  561.69        2957.25           1506          75.00       204.88
  561.72        2957.50           1510          77.00       213.60
  561.75        2957.75           1513          90.00       270.27
  561.79        2958.00           1516          79.00       222.32
  561.82        2958.25           1520          85.00       248.48
  561.85        2958.50           1523          80.00       226.68
  561.88        2958.75           1527          89.00       265.91
  561.91        2959.00           1530          89.00       265.91
  561.95        2959.25           1533          86.00       252.84
  561.98        2959.50           1537          89.00       265.91
  562.01        2959.75           1540          86.00       252.84
  562.04        2960.00           1544          89.00       265.91
  562.07        2960.25           1547          95.00       292.07
  562.11        2960.50           1550          95.00       292.07
  562.14        2960.75           1554         104.00       331.30
  562.17        2961.00           1557         166.00       601.58
  562.20        2961.25           1560         362.00      1456.04
  562.23        2961.50           1564         958.00      4054.56
  562.27        2961.75           1567        1825.00      7835.38
  562.30        2962.00           1571        3075.00     13287.95
  562.33        2962.25           1574        3897.00     16874.56
  562.36        2962.50           1577        4774.00     20702.04
  562.39        2962.75           1581        5872.00     25495.30
  562.43        2963.00           1584        6723.00     29211.27
  562.46        2963.25           1588        7830.00     34046.38
  562.49        2963.50           1591        8878.00     38625.12
  562.52        2963.75           1594        9731.00     42352.87
  562.56        2964.00           1598       10880.00     47375.55
  562.59        2964.25           1601       11809.00     51437.67
  562.62        2964.50           1605       13073.00     56966.25
  562.65        2964.75           1608       13982.00     60943.28
  562.68        2965.00           1611       14825.00     64632.42
  562.71        2965.25           1615       16281.00     71006.18
  562.75        2965.50           1618       17045.00     74351.65
  562.78        2965.75           1621       17951.00     78319.84
  562.81        2966.00           1625       18953.00     82709.62
  562.84        2966.25           1628       19735.00     86136.41
  562.88        2966.50           1632       20203.00     88187.58
  562.91        2966.75           1635       20279.00     88520.69
  562.94        2967.00           1638       20279.00     88520.69
  562.97        2967.25           1642       20271.00     88485.63
  563.00        2967.50           1645       20068.00     87595.87
  563.04        2967.75           1649       19479.00     85014.52
  563.07        2968.00           1652       18596.00     81145.46
  563.10        2968.25           1655       17806.00     77684.68
  563.13        2968.50           1659       16765.00     73125.49
  563.16        2968.75           1662       15789.00     68852.13
  563.20        2969.00           1666       14531.00     63345.72
  563.23        2969.25           1669       13765.00     59993.78
  563.26        2969.50           1672       12715.00     55400.21
  563.29        2969.75           1676       11648.00     50733.61
  563.32        2970.00           1679       10830.00     47156.95
  563.36        2970.25           1683        9529.00     41470.02
  563.39        2970.50           1686        8751.00     38070.19
  563.42        2970.75           1689        7866.00     34203.64
  563.45        2971.00           1693        6809.00     29586.85
  563.48        2971.25           1696        5945.00     25814.03
  563.51        2971.50           1700        4697.00     20365.95
  563.55        2971.75           1703        3905.00     16909.47
  563.58        2972.00           1706        2783.00     12014.07
  563.61        2972.25           1710        1630.00      6984.95
  563.64        2972.50           1713         958.00      4054.56
  563.68        2972.75           1717         372.00      1499.63
  563.71        2973.00           1720         161.00       579.78
  563.74        2973.25           1723         127.00       431.57
  563.77        2973.50           1727         102.00       322.58
  563.80        2973.75           1730         101.00       318.22
  563.84        2974.00           1734          95.00       292.07
  563.87        2974.25           1737          86.00       252.84
  563.90        2974.50           1740         100.00       313.87
  563.93        2974.75           1744         114.00       374.90
  563.96        2975.00           1747          81.00       231.04
  564.00        2975.25           1751          88.00       261.55
  564.03        2975.50           1754          85.00       248.48
  564.06        2975.75           1757          86.00       252.84
  564.09        2976.00           1761          85.00       248.48
  564.12        2976.25           1764          91.00       274.63
  564.16        2976.50           1768          83.00       239.76
  564.19        2976.75           1771          81.00       231.04
  564.22        2977.00           1774          76.00       209.24
  564.25        2977.25           1778          88.00       261.55
  564.29        2977.50           1781          71.00       187.45
  564.32        2977.75           1785          75.00       204.88
  564.35        2978.00           1788          76.00       209.24
  564.38        2978.25           1791          81.00       231.04
  564.41        2978.50           1795          75.00       204.88
  564.44        2978.75           1798          81.00       231.04
  564.48        2979.00           1802          75.00       204.88
  564.51        2979.25           1805          73.00       196.17
  564.54        2979.50           1808          69.00       178.73
  564.57        2979.75           1812          74.00       200.52
  564.61        2980.00           1815          74.00       200.52
  564.64        2980.25           1819          85.00       248.48
  564.67        2980.50           1822          75.00       204.88
  564.70        2980.75           1825          71.00       187.45
  564.73        2981.00           1829          76.00       209.24
  564.77        2981.25           1832          76.00       209.24
  564.80        2981.50           1836          77.00       213.60
  564.83        2981.75           1839          75.00       204.88
  564.86        2982.00           1842          79.00       222.32
  564.89        2982.25           1846          80.00       226.68
  564.93        2982.50           1849          71.00       187.45
  564.96        2982.75           1853          68.00       174.37
  564.99        2983.00           1856          69.00       178.73
  565.02        2983.25           1859          71.00       187.45
  565.05        2983.50           1863          69.00       178.73
  565.09        2983.75           1866          68.00       174.37
  565.12        2984.00           1870          69.00       178.73
CZ scan finished at 09:25:21
end
