************************************************************
  CZ Scan of (1) Internal mercury lamp
************************************************************
Integration time is 0.2294 seconds per sample
dh130619Zaragoza Canal 41.634 .881 3.31pr987
************************************************************
Dead Time -------------------------  3.4E-08 
Number of Cycles Used -------------  4 
Starting Wavelength (Angstroms) ---  2950 
Final Wavelength (Angstoms) -------  2984 
Wavelength Increment (Angstroms) --  .25 
Filter Wheel #1 Position ---------- (1) Ground quartz diffuser (ND=2.32)
Filter Wheel #2 Position ---------- (1) Neutral Density 0.494



************************************************************
CZ scan start time = 08:53:09
Dark Count =  12 


Time (GMT)  Wavelength (Ang)  Step Number  Raw Counts  Counts/Second

  533.87        2950.00           1408         149.00       597.22
  534.01        2950.25           1412         169.00       684.41
  534.04        2950.50           1415         158.00       636.46
  534.07        2950.75           1418         166.00       671.33
  534.10        2951.00           1422         160.00       645.18
  534.13        2951.25           1425         158.00       636.46
  534.16        2951.50           1428         161.00       649.53
  534.19        2951.75           1432         180.00       732.36
  534.22        2952.00           1435         166.00       671.33
  534.25        2952.25           1439         171.00       693.13
  534.28        2952.50           1442         161.00       649.53
  534.32        2952.75           1445         160.00       645.18
  534.35        2953.00           1449         166.00       671.33
  534.38        2953.25           1452         175.00       710.57
  534.41        2953.50           1456         169.00       684.41
  534.44        2953.75           1459         170.00       688.77
  534.47        2954.00           1462         174.00       706.21
  534.50        2954.25           1466         179.00       728.00
  534.53        2954.50           1469         169.00       684.41
  534.56        2954.75           1472         173.00       701.85
  534.59        2955.00           1476         176.00       714.93
  534.62        2955.25           1479         192.00       784.68
  534.65        2955.50           1483         196.00       802.11
  534.68        2955.75           1486         199.00       815.19
  534.71        2956.00           1489         183.00       745.44
  534.74        2956.25           1493         198.00       810.83
  534.77        2956.50           1496         200.00       819.55
  534.80        2956.75           1499         198.00       810.83
  534.84        2957.00           1503         203.00       832.63
  534.87        2957.25           1506         217.00       893.66
  534.90        2957.50           1510         202.00       828.27
  534.93        2957.75           1513         216.00       889.30
  534.96        2958.00           1516         221.00       911.10
  534.99        2958.25           1520         217.00       893.66
  535.02        2958.50           1523         251.00      1041.89
  535.05        2958.75           1527         227.00       937.26
  535.08        2959.00           1530         258.00      1072.40
  535.11        2959.25           1533         236.00       976.49
  535.14        2959.50           1537         237.00       980.85
  535.17        2959.75           1540         261.00      1085.48
  535.20        2960.00           1544         271.00      1129.08
  535.23        2960.25           1547         292.00      1220.63
  535.26        2960.50           1550         262.00      1089.84
  535.29        2960.75           1554         314.00      1316.54
  535.32        2961.00           1557         453.00      1922.53
  535.36        2961.25           1560         865.00      3718.87
  535.39        2961.50           1564        2550.00     11067.81
  535.42        2961.75           1567        5157.00     22445.20
  535.45        2962.00           1571       10436.00     45510.65
  535.48        2962.25           1574       14764.00     64447.96
  535.51        2962.50           1577       19279.00     84229.55
  535.54        2962.75           1581       24994.00    109307.00
  535.57        2963.00           1584       29699.00    129984.70
  535.60        2963.25           1588       35734.00    156550.30
  535.63        2963.50           1591       40121.00    175891.80
  535.66        2963.75           1594       44861.00    196818.40
  535.69        2964.00           1598       51378.00    225639.00
  535.72        2964.25           1601       55656.00    244588.80
  535.75        2964.50           1605       61487.00    270457.30
  535.78        2964.75           1608       65846.00    289825.40
  535.81        2965.00           1611       70156.00    309001.00
  535.84        2965.25           1615       75634.00    333409.50
  535.88        2965.50           1618       79299.00    349762.50
  535.91        2965.75           1621       83921.00    370411.60
  535.94        2966.00           1625       89231.00    394170.60
  535.97        2966.25           1628       93026.00    411174.70
  536.00        2966.50           1632       97364.00    430635.90
  536.03        2966.75           1635       99950.00    442249.70
  536.06        2967.00           1638      101120.00    447507.20
  536.09        2967.25           1642      101304.00    448334.20
  536.12        2967.50           1645      100810.00    446114.00
  536.15        2967.75           1649      100353.00    444060.40
  536.18        2968.00           1652       97928.00    433168.10
  536.21        2968.25           1655       94411.00    417385.30
  536.24        2968.50           1659       89252.00    394264.70
  536.27        2968.75           1662       85087.00    375625.50
  536.30        2969.00           1666       79293.00    349735.70
  536.33        2969.25           1669       74648.00    329013.10
  536.36        2969.50           1672       70402.00    310096.20
  536.40        2969.75           1676       64192.00    282473.30
  536.43        2970.00           1679       59657.00    262333.80
  536.46        2970.25           1683       53681.00    235837.30
  536.49        2970.50           1686       49185.00    215934.40
  536.52        2970.75           1689       44179.00    193805.60
  536.55        2971.00           1693       38175.00    167309.10
  536.58        2971.25           1696       33710.00    147635.50
  536.61        2971.50           1700       27139.00    118730.30
  536.64        2971.75           1703       22885.00    100047.70
  536.67        2972.00           1706       19010.00     83050.22
  536.70        2972.25           1710       12947.00     56494.64
  536.73        2972.50           1713        8532.00     37187.36
  536.76        2972.75           1717        3744.00     16277.53
  536.79        2973.00           1720        1442.00      6234.97
  536.82        2973.25           1723         547.00      2332.36
  536.85        2973.50           1727         321.00      1347.05
  536.88        2973.75           1730         302.00      1264.22
  536.91        2974.00           1734         285.00      1190.11
  536.95        2974.25           1737         275.00      1146.51
  536.98        2974.50           1740         279.00      1163.95
  537.01        2974.75           1744         271.00      1129.08
  537.04        2975.00           1747         239.00       989.57
  537.07        2975.25           1751         242.00      1002.65
  537.10        2975.50           1754         221.00       911.10
  537.13        2975.75           1757         225.00       928.54
  537.16        2976.00           1761         212.00       871.87
  537.19        2976.25           1764         213.00       876.22
  537.22        2976.50           1768         246.00      1020.09
  537.25        2976.75           1771         194.00       793.40
  537.28        2977.00           1774         197.00       806.47
  537.31        2977.25           1778         202.00       828.27
  537.34        2977.50           1781         204.00       836.99
  537.37        2977.75           1785         195.00       797.75
  537.40        2978.00           1788         187.00       762.88
  537.43        2978.25           1791         180.00       732.36
  537.47        2978.50           1795         196.00       802.11
  537.50        2978.75           1798         185.00       754.16
  537.53        2979.00           1802         192.00       784.68
  537.56        2979.25           1805         181.00       736.72
  537.59        2979.50           1808         173.00       701.85
  537.62        2979.75           1812         181.00       736.72
  537.65        2980.00           1815         179.00       728.00
  537.68        2980.25           1819         182.00       741.08
  537.71        2980.50           1822         167.00       675.69
  537.74        2980.75           1825         165.00       666.97
  537.77        2981.00           1829         165.00       666.97
  537.80        2981.25           1832         154.00       619.02
  537.83        2981.50           1836         168.00       680.05
  537.86        2981.75           1839         175.00       710.57
  537.89        2982.00           1842         165.00       666.97
  537.92        2982.25           1846         161.00       649.53
  537.95        2982.50           1849         147.00       588.50
  537.99        2982.75           1853         164.00       662.61
  538.02        2983.00           1856         149.00       597.22
  538.05        2983.25           1859         151.00       605.94
  538.08        2983.50           1863         158.00       636.46
  538.11        2983.75           1866         178.00       723.64
  538.14        2984.00           1870         156.00       627.74
CZ scan finished at 08:58:22
end
