************************************************************
  HL Scan of (1) Internal mercury lamp
************************************************************
Integration time is 0.2294 seconds per sample
dh290517Arenosillo 37.1 6.73 3.23pr1000
************************************************************
Dead Time -------------------------  3.1E-08 
Number of Cycles Used -------------  4 
Starting Wavelength (Angstroms) ---  3331 
Final Wavelength (Angstoms) -------  3351 
Wavelength Increment (Angstroms) --  .25 
Filter Wheel #1 Position ---------- (1) Ground quartz diffuser (ND=2.32)
Filter Wheel #2 Position ---------- (0) Clear Aperture



************************************************************
HL scan start time = 20:46:47
Dark Count =  10 


Time (GMT)  Wavelength (Ang)  Step Number  Raw Counts  Counts/Second

 1247.81        3331.00           4903         844.00      3635.98
 1248.22        3331.25           4907         848.00      3653.42
 1248.25        3331.50           4911         875.00      3771.15
 1248.28        3331.75           4914         857.00      3692.66
 1248.32        3332.00           4918         849.00      3657.78
 1248.35        3332.25           4922         870.00      3749.35
 1248.38        3332.50           4926         888.00      3827.83
 1248.42        3332.75           4930         882.00      3801.67
 1248.45        3333.00           4933         867.00      3736.27
 1248.48        3333.25           4937         905.00      3901.95
 1248.51        3333.50           4941         933.00      4024.04
 1248.55        3333.75           4945         959.00      4137.41
 1248.58        3334.00           4948         955.00      4119.97
 1248.61        3334.25           4952         971.00      4189.73
 1248.65        3334.50           4956         951.00      4102.53
 1248.68        3334.75           4960         980.00      4228.98
 1248.71        3335.00           4964         985.00      4250.78
 1248.74        3335.25           4967        1049.00      4529.84
 1248.78        3335.50           4971        1205.00      5210.08
 1248.81        3335.75           4975        1694.00      7342.56
 1248.84        3336.00           4979        3302.00     14356.87
 1248.87        3336.25           4983        7213.00     31429.91
 1248.91        3336.50           4986       13028.00     56848.14
 1248.94        3336.75           4990       24608.00    107585.80
 1248.97        3337.00           4994       36497.00    159844.20
 1249.01        3337.25           4998       46994.00    206125.50
 1249.04        3337.50           5001       54655.00    239987.20
 1249.07        3337.75           5005       65021.00    285918.90
 1249.10        3338.00           5009       75467.00    332338.30
 1249.14        3338.25           5013       85295.00    376134.50
 1249.17        3338.50           5017       95623.00    422288.20
 1249.20        3338.75           5020      103205.00    456255.30
 1249.24        3339.00           5024      114334.00    506243.70
 1249.27        3339.25           5028      125374.00    555987.20
 1249.30        3339.50           5032      136505.00    606297.90
 1249.33        3339.75           5036      147396.00    655677.60
 1249.37        3340.00           5039      155309.00    691651.10
 1249.40        3340.25           5043      164888.00    735307.30
 1249.43        3340.50           5047      173544.00    774859.90
 1249.46        3340.75           5051      182135.00    814213.00
 1249.50        3341.00           5055      188185.00    841984.80
 1249.53        3341.25           5058      190027.00    850450.00
 1249.56        3341.50           5062      189562.00    848312.60
 1249.60        3341.75           5066      184691.00    825940.10
 1249.63        3342.00           5070      177807.00    794375.40
 1249.66        3342.25           5074      170357.00    760285.90
 1249.69        3342.50           5077      164573.00    733869.80
 1249.73        3342.75           5081      154856.00    689589.50
 1249.76        3343.00           5085      144175.00    641057.60
 1249.79        3343.25           5089      133339.00    591971.80
 1249.83        3343.50           5092      124761.00    553221.10
 1249.86        3343.75           5096      112868.00    499649.90
 1249.89        3344.00           5100      102246.00    451955.00
 1249.92        3344.25           5104       92081.00    406444.70
 1249.96        3344.50           5108       81921.00    361085.60
 1249.99        3344.75           5111       73843.00    325112.90
 1250.02        3345.00           5115       63353.00    278519.10
 1250.05        3345.25           5119       52958.00    232480.30
 1250.09        3345.50           5123       41923.00    183750.80
 1250.12        3345.75           5127       30686.00    134280.60
 1250.15        3346.00           5130       23072.00    100846.60
 1250.19        3346.25           5134       13695.00     59766.25
 1250.22        3346.50           5138        6475.00     28206.87
 1250.25        3346.75           5142        2283.00      9911.50
 1250.28        3347.00           5146        1144.00      4944.09
 1250.32        3347.25           5149        1060.00      4577.81
 1250.35        3347.50           5153        1048.00      4525.48
 1250.38        3347.75           5157        1028.00      4438.27
 1250.42        3348.00           5161        1047.00      4521.12
 1250.45        3348.25           5165        1007.00      4346.71
 1250.48        3348.50           5168        1014.00      4377.23
 1250.51        3348.75           5172        1023.00      4416.47
 1250.55        3349.00           5176         999.00      4311.82
 1250.58        3349.25           5180         993.00      4285.66
 1250.61        3349.50           5184         965.00      4163.57
 1250.64        3349.75           5187        1003.00      4329.26
 1250.68        3350.00           5191         950.00      4098.17
 1250.71        3350.25           5195         985.00      4250.78
 1250.74        3350.50           5199         965.00      4163.57
 1250.78        3350.75           5203         986.00      4255.14
 1250.81        3351.00           5206         954.00      4115.61
HL scan finished at 20:51:35
end
