************************************************************
  HL Scan of (1) Internal mercury lamp
************************************************************
Integration time is 0.2294 seconds per sample
dh030617Arenosillo 37.1 6.73 3.21pr1000
************************************************************
Dead Time -------------------------  3.1E-08 
Number of Cycles Used -------------  4 
Starting Wavelength (Angstroms) ---  3331 
Final Wavelength (Angstoms) -------  3351 
Wavelength Increment (Angstroms) --  .25 
Filter Wheel #1 Position ---------- (1) Ground quartz diffuser (ND=2.32)
Filter Wheel #2 Position ---------- (0) Clear Aperture



************************************************************
HL scan start time = 02:17:13
Dark Count =  38.8 


Time (GMT)  Wavelength (Ang)  Step Number  Raw Counts  Counts/Second

  138.25        3331.00           4903        1018.00      4269.09
  138.65        3331.25           4907        1050.00      4408.62
  138.68        3331.50           4911        1059.00      4447.87
  138.72        3331.75           4914        1047.00      4395.54
  138.75        3332.00           4918        1041.00      4369.38
  138.78        3332.25           4922        1102.00      4635.36
  138.82        3332.50           4926        1078.00      4530.72
  138.85        3332.75           4930        1066.00      4478.39
  138.88        3333.00           4933        1105.00      4648.45
  138.91        3333.25           4937        1106.00      4652.81
  138.95        3333.50           4941        1106.00      4652.81
  138.98        3333.75           4945        1103.00      4639.73
  139.01        3334.00           4948        1143.00      4814.14
  139.04        3334.25           4952        1161.00      4892.63
  139.08        3334.50           4956        1147.00      4831.59
  139.11        3334.75           4960        1186.00      5001.65
  139.14        3335.00           4964        1174.00      4949.32
  139.18        3335.25           4967        1238.00      5228.40
  139.21        3335.50           4971        1342.00      5681.91
  139.24        3335.75           4975        1855.00      7919.12
  139.27        3336.00           4979        3823.00     16504.52
  139.31        3336.25           4983        8774.00     38123.50
  139.34        3336.50           4986       16000.00     69728.60
  139.37        3336.75           4990       27576.00    120489.30
  139.40        3337.00           4994       39552.00    173173.00
  139.44        3337.25           4998       51755.00    227033.40
  139.47        3337.50           5001       60781.00    266987.90
  139.50        3337.75           5005       73966.00    325531.90
  139.54        3338.00           5009       87221.00    384602.80
  139.57        3338.25           5013       99835.00    441019.80
  139.60        3338.50           5017      112263.00    496800.10
  139.63        3338.75           5020      120998.00    536121.80
  139.67        3339.00           5024      133192.00    591176.70
  139.70        3339.25           5028      144725.00    643422.50
  139.73        3339.50           5032      157004.00    699236.10
  139.77        3339.75           5036      169045.00    754158.40
  139.80        3340.00           5039      177717.00    793831.30
  139.83        3340.25           5043      188271.00    842247.60
  139.86        3340.50           5047      199443.00    893660.10
  139.90        3340.75           5051      211194.00    947916.90
  139.93        3341.00           5055      220751.00    992180.70
  139.96        3341.25           5058      225162.00   1012652.00
  139.99        3341.50           5062      225118.00   1012448.00
  140.03        3341.75           5066      220559.00    991290.40
  140.06        3342.00           5070      211269.00    948263.90
  140.09        3342.25           5074      201154.00    901548.70
  140.13        3342.50           5077      193433.00    865982.00
  140.16        3342.75           5081      182797.00    817117.40
  140.19        3343.00           5085      170970.00    762956.40
  140.22        3343.25           5089      158442.00    705785.40
  140.26        3343.50           5092      149194.00    663713.50
  140.29        3343.75           5096      136700.00    607050.30
  140.32        3344.00           5100      124570.00    552229.50
  140.36        3344.25           5104      111486.00    493307.00
  140.39        3344.50           5108       99384.00    438999.30
  140.42        3344.75           5111       88292.00    389385.20
  140.45        3345.00           5115       76217.00    335548.20
  140.49        3345.25           5119       64507.00    283510.50
  140.52        3345.50           5123       52193.00    228970.00
  140.55        3345.75           5127       40323.00    176570.70
  140.59        3346.00           5130       29987.00    131081.70
  140.62        3346.25           5134       16918.00     73748.19
  140.65        3346.50           5138        6984.00     30303.96
  140.68        3346.75           5142        2375.00     10187.18
  140.72        3347.00           5146        1398.00      5926.11
  140.75        3347.25           5149        1340.00      5673.19
  140.78        3347.50           5153        1303.00      5511.84
  140.81        3347.75           5157        1276.00      5394.10
  140.85        3348.00           5161        1274.00      5385.38
  140.88        3348.25           5165        1227.00      5180.43
  140.91        3348.50           5168        1245.00      5258.92
  140.95        3348.75           5172        1234.00      5210.96
  140.98        3349.00           5176        1205.00      5084.50
  141.01        3349.25           5180        1209.00      5101.94
  141.04        3349.50           5184        1224.00      5167.35
  141.08        3349.75           5187        1212.00      5115.02
  141.11        3350.00           5191        1236.00      5219.68
  141.14        3350.25           5195        1194.00      5036.53
  141.17        3350.50           5199        1159.00      4883.91
  141.21        3350.75           5203        1215.00      5128.10
  141.24        3351.00           5206        1157.00      4875.19
HL scan finished at 02:22:01
end
