************************************************************
  HL Scan of (1) Internal mercury lamp
************************************************************
Integration time is 0.2294 seconds per sample
dh300517Arenosillo 37.1 6.73 3.07pr1000
************************************************************
Dead Time -------------------------  3.1E-08 
Number of Cycles Used -------------  4 
Starting Wavelength (Angstroms) ---  3331 
Final Wavelength (Angstoms) -------  3351 
Wavelength Increment (Angstroms) --  .25 
Filter Wheel #1 Position ---------- (1) Ground quartz diffuser (ND=2.32)
Filter Wheel #2 Position ---------- (0) Clear Aperture



************************************************************
HL scan start time = 02:13:45
Dark Count =  6.7 


Time (GMT)  Wavelength (Ang)  Step Number  Raw Counts  Counts/Second

  134.79        3331.00           4903         778.00      3362.60
  135.20        3331.25           4907         778.00      3362.60
  135.23        3331.50           4911         769.00      3323.36
  135.27        3331.75           4914         829.00      3584.97
  135.30        3332.00           4918         821.00      3550.09
  135.33        3332.25           4922         847.00      3663.45
  135.36        3332.50           4926         860.00      3720.13
  135.40        3332.75           4930         827.00      3576.25
  135.43        3333.00           4933         841.00      3637.29
  135.46        3333.25           4937         860.00      3720.13
  135.49        3333.50           4941         847.00      3663.45
  135.53        3333.75           4945         887.00      3837.86
  135.56        3334.00           4948         876.00      3789.90
  135.59        3334.25           4952         878.00      3798.62
  135.63        3334.50           4956         921.00      3986.11
  135.66        3334.75           4960         897.00      3881.46
  135.69        3335.00           4964         931.00      4029.71
  135.72        3335.25           4967         981.00      4247.73
  135.76        3335.50           4971        1100.00      4766.62
  135.79        3335.75           4975        1626.00      7060.39
  135.82        3336.00           4979        2945.00     12813.72
  135.86        3336.25           4983        6646.00     28968.02
  135.89        3336.50           4986       12494.00     54526.70
  135.92        3336.75           4990       22473.00     98233.74
  135.95        3337.00           4994       32476.00    142165.30
  135.99        3337.25           4998       42175.00    184876.50
  136.02        3337.50           5001       48791.00    214076.40
  136.05        3337.75           5005       58534.00    257174.30
  136.08        3338.00           5009       68507.00    301409.50
  136.12        3338.25           5013       77635.00    342004.00
  136.15        3338.50           5017       86962.00    383589.70
  136.18        3338.75           5020       93862.00    414424.00
  136.22        3339.00           5024      102693.00    453974.00
  136.25        3339.25           5028      111781.00    494777.30
  136.28        3339.50           5032      120095.00    532196.90
  136.31        3339.75           5036      129141.00    573010.70
  136.35        3340.00           5039      136040.00    604207.80
  136.38        3340.25           5043      145472.00    646958.00
  136.41        3340.50           5047      154513.00    688043.60
  136.45        3340.75           5051      162968.00    726562.30
  136.48        3341.00           5055      168738.00    752902.40
  136.51        3341.25           5058      170636.00    761576.30
  136.54        3341.50           5062      170193.00    759551.30
  136.58        3341.75           5066      165777.00    739380.00
  136.61        3342.00           5070      157622.00    702196.60
  136.64        3342.25           5074      149195.00    663863.80
  136.67        3342.50           5077      143457.00    637815.50
  136.71        3342.75           5081      134732.00    598288.50
  136.74        3343.00           5085      125841.00    558109.60
  136.77        3343.25           5089      117077.00    518603.40
  136.81        3343.50           5092      109933.00    486471.80
  136.84        3343.75           5096      100317.00    443323.40
  136.87        3344.00           5100       90951.00    401408.20
  136.90        3344.25           5104       81315.00    358398.90
  136.94        3344.50           5108       71910.00    316531.50
  136.97        3344.75           5111       63883.00    280884.60
  137.00        3345.00           5115       54609.00    239798.20
  137.03        3345.25           5119       45319.00    198746.00
  137.07        3345.50           5123       35765.00    156636.30
  137.10        3345.75           5127       26690.00    116739.50
  137.13        3346.00           5130       19503.00     85213.04
  137.17        3346.25           5134       11320.00     49392.49
  137.20        3346.50           5138        5047.00     21986.65
  137.23        3346.75           5142        1632.00      7086.56
  137.26        3347.00           5146        1045.00      4526.79
  137.30        3347.25           5149         986.00      4269.53
  137.33        3347.50           5153        1017.00      4404.70
  137.36        3347.75           5157         984.00      4260.81
  137.40        3348.00           5161         943.00      4082.03
  137.43        3348.25           5165         951.00      4116.92
  137.46        3348.50           5168         922.00      3990.47
  137.49        3348.75           5172         940.00      4068.95
  137.53        3349.00           5176         951.00      4116.92
  137.56        3349.25           5180         922.00      3990.47
  137.59        3349.50           5184         910.00      3938.14
  137.62        3349.75           5187         898.00      3885.82
  137.66        3350.00           5191         923.00      3994.83
  137.69        3350.25           5195         891.00      3855.30
  137.72        3350.50           5199         896.00      3877.10
  137.76        3350.75           5203         869.00      3759.37
  137.79        3351.00           5206         870.00      3763.73
HL scan finished at 02:18:34
end
************************************************************
  HL Scan of (1) Internal mercury lamp
************************************************************
Integration time is 0.2294 seconds per sample
dh300517Arenosillo 37.1 6.73 3.33pr1000
************************************************************
Dead Time -------------------------  3.1E-08 
Number of Cycles Used -------------  4 
Starting Wavelength (Angstroms) ---  3331 
Final Wavelength (Angstoms) -------  3351 
Wavelength Increment (Angstroms) --  .25 
Filter Wheel #1 Position ---------- (1) Ground quartz diffuser (ND=2.32)
Filter Wheel #2 Position ---------- (0) Clear Aperture



************************************************************
HL scan start time = 20:46:43
Dark Count =  12.8 


Time (GMT)  Wavelength (Ang)  Step Number  Raw Counts  Counts/Second

 1247.75        3331.00           4903         793.00      3401.41
 1248.15        3331.25           4907         802.00      3440.65
 1248.19        3331.50           4911         802.00      3440.65
 1248.22        3331.75           4914         806.00      3458.09
 1248.25        3332.00           4918         804.00      3449.37
 1248.28        3332.25           4922         838.00      3597.61
 1248.32        3332.50           4926         883.00      3793.82
 1248.35        3332.75           4930         839.00      3601.97
 1248.38        3333.00           4933         839.00      3601.97
 1248.41        3333.25           4937         830.00      3562.73
 1248.45        3333.50           4941         856.00      3676.09
 1248.48        3333.75           4945         869.00      3732.78
 1248.51        3334.00           4948         840.00      3606.33
 1248.55        3334.25           4952         857.00      3680.45
 1248.58        3334.50           4956         909.00      3907.19
 1248.61        3334.75           4960         905.00      3889.75
 1248.64        3335.00           4964         947.00      4072.88
 1248.68        3335.25           4967         945.00      4064.16
 1248.71        3335.50           4971        1059.00      4561.24
 1248.74        3335.75           4975        1576.00      6815.74
 1248.77        3336.00           4979        2982.00     12948.53
 1248.81        3336.25           4983        6800.00     29613.93
 1248.84        3336.50           4986       12742.00     55584.80
 1248.87        3336.75           4990       23317.00    101909.10
 1248.91        3337.00           4994       33147.00    145089.60
 1248.94        3337.25           4998       42011.00    184126.40
 1248.97        3337.50           5001       49587.00    217566.20
 1249.00        3337.75           5005       60235.00    264683.40
 1249.04        3338.00           5009       70959.00    312277.00
 1249.07        3338.25           5013       80507.00    354770.50
 1249.10        3338.50           5017       91071.00    401917.40
 1249.14        3338.75           5020       97965.00    432760.00
 1249.17        3339.00           5024      108261.00    478933.50
 1249.20        3339.25           5028      118592.00    525398.30
 1249.23        3339.50           5032      128327.00    569306.30
 1249.27        3339.75           5036      137895.00    612578.90
 1249.30        3340.00           5039      145037.00    644956.30
 1249.33        3340.25           5043      154731.00    689008.00
 1249.36        3340.50           5047      163863.00    730617.40
 1249.40        3340.75           5051      172271.00    769024.10
 1249.43        3341.00           5055      178832.00    799058.60
 1249.46        3341.25           5058      182325.00    815071.60
 1249.50        3341.50           5062      182322.00    815057.90
 1249.53        3341.75           5066      178342.00    796813.50
 1249.56        3342.00           5070      170729.00    761973.60
 1249.59        3342.25           5074      161154.00    718262.60
 1249.63        3342.50           5077      154600.00    688411.80
 1249.66        3342.75           5081      146229.00    650366.30
 1249.69        3343.00           5085      136930.00    608209.20
 1249.72        3343.25           5089      127219.00    564302.70
 1249.76        3343.50           5092      120114.00    532255.00
 1249.79        3343.75           5096      109385.00    483982.30
 1249.82        3344.00           5100       99439.00    439362.20
 1249.86        3344.25           5104       89802.00    396246.50
 1249.89        3344.50           5108       79198.00    348938.10
 1249.92        3344.75           5111       70573.00    310561.50
 1249.95        3345.00           5115       60359.00    265232.90
 1249.99        3345.25           5119       50592.00    222007.40
 1250.02        3345.50           5123       40890.00    179184.40
 1250.05        3345.75           5127       30721.00    134422.10
 1250.09        3346.00           5130       23573.00    103032.10
 1250.12        3346.25           5134       14549.00     63491.02
 1250.15        3346.50           5138        7118.00     31002.76
 1250.18        3346.75           5142        2370.00     10278.78
 1250.22        3347.00           5146        1104.00      4757.46
 1250.25        3347.25           5149        1024.00      4408.62
 1250.28        3347.50           5153        1002.00      4312.70
 1250.31        3347.75           5157         999.00      4299.61
 1250.35        3348.00           5161         957.00      4116.48
 1250.38        3348.25           5165         944.00      4059.80
 1250.41        3348.50           5168         968.00      4164.44
 1250.45        3348.75           5172         944.00      4059.80
 1250.48        3349.00           5176         952.00      4094.68
 1250.51        3349.25           5180         914.00      3928.99
 1250.54        3349.50           5184         951.00      4090.32
 1250.58        3349.75           5187         940.00      4042.35
 1250.61        3350.00           5191         928.00      3990.03
 1250.64        3350.25           5195         957.00      4116.48
 1250.68        3350.50           5199         915.00      3933.35
 1250.71        3350.75           5203         906.00      3894.11
 1250.74        3351.00           5206         906.00      3894.11
HL scan finished at 20:51:31
end
