************************************************************
  HL Scan of (1) Internal mercury lamp
************************************************************
Integration time is 0.2294 seconds per sample
dh010617Arenosillo 37.1 6.73 3.23pr1000
************************************************************
Dead Time -------------------------  3.1E-08 
Number of Cycles Used -------------  4 
Starting Wavelength (Angstroms) ---  3331 
Final Wavelength (Angstoms) -------  3351 
Wavelength Increment (Angstroms) --  .25 
Filter Wheel #1 Position ---------- (1) Ground quartz diffuser (ND=2.32)
Filter Wheel #2 Position ---------- (0) Clear Aperture



************************************************************
HL scan start time = 02:24:04
Dark Count =  7.9 


Time (GMT)  Wavelength (Ang)  Step Number  Raw Counts  Counts/Second

  145.10        3331.00           4903         773.00      3335.57
  145.50        3331.25           4907         818.00      3531.77
  145.53        3331.50           4911         827.00      3571.01
  145.57        3331.75           4914         811.00      3501.25
  145.60        3332.00           4918         800.00      3453.29
  145.63        3332.25           4922         836.00      3610.26
  145.67        3332.50           4926         826.00      3566.65
  145.70        3332.75           4930         868.00      3749.78
  145.73        3333.00           4933         842.00      3636.42
  145.76        3333.25           4937         836.00      3610.26
  145.80        3333.50           4941         887.00      3832.63
  145.83        3333.75           4945         879.00      3797.74
  145.86        3334.00           4948         874.00      3775.94
  145.89        3334.25           4952         891.00      3850.07
  145.93        3334.50           4956         934.00      4037.56
  145.96        3334.75           4960         928.00      4011.40
  145.99        3335.00           4964         954.00      4124.76
  146.03        3335.25           4967         958.00      4142.21
  146.06        3335.50           4971        1092.00      4726.50
  146.09        3335.75           4975        1649.00      7155.47
  146.12        3336.00           4979        3180.00     13833.74
  146.16        3336.25           4983        7028.00     30631.08
  146.19        3336.50           4986       12830.00     55991.17
  146.22        3336.75           4990       23694.00    103584.50
  146.26        3337.00           4994       34780.00    152295.80
  146.29        3337.25           4998       45205.00    198237.60
  146.32        3337.50           5001       52280.00    229491.30
  146.35        3337.75           5005       63014.00    277024.90
  146.39        3338.00           5009       73569.00    323903.50
  146.42        3338.25           5013       83835.00    369630.20
  146.45        3338.50           5017       93722.00    413792.40
  146.48        3338.75           5020      100929.00    446060.70
  146.52        3339.00           5024      110652.00    489697.40
  146.55        3339.25           5028      120827.00    535490.30
  146.58        3339.50           5032      129830.00    576118.30
  146.61        3339.75           5036      141164.00    627412.50
  146.65        3340.00           5039      147249.00    655019.50
  146.68        3340.25           5043      157623.00    702195.70
  146.71        3340.50           5047      166683.00    743510.80
  146.75        3340.75           5051      175911.00    785702.50
  146.78        3341.00           5055      181994.00    813575.90
  146.81        3341.25           5058      185471.00    829530.10
  146.84        3341.50           5062      185013.00    827427.60
  146.88        3341.75           5066      181253.00    810177.90
  146.91        3342.00           5070      173508.00    774704.80
  146.94        3342.25           5074      163837.00    730521.00
  146.97        3342.50           5077      157159.00    700082.60
  147.01        3342.75           5081      147937.00    658143.90
  147.04        3343.00           5085      137661.00    611541.40
  147.07        3343.25           5089      128388.00    569604.00
  147.11        3343.50           5092      120290.00    533070.20
  147.14        3343.75           5096      110046.00    486974.20
  147.17        3344.00           5100      100230.00    442928.20
  147.20        3344.25           5104       89432.00    394615.40
  147.24        3344.50           5108       78958.00    347890.80
  147.27        3344.75           5111       70449.00    310032.20
  147.30        3345.00           5115       60504.00    265897.20
  147.34        3345.25           5119       50271.00    220610.40
  147.37        3345.50           5123       40114.00    175785.80
  147.40        3345.75           5127       29742.00    130140.80
  147.43        3346.00           5130       21828.00     95399.85
  147.47        3346.25           5134       13280.00     57959.76
  147.50        3346.50           5138        6533.00     28469.32
  147.53        3346.75           5142        2338.00     10160.57
  147.56        3347.00           5146        1095.00      4739.58
  147.60        3347.25           5149        1034.00      4473.59
  147.63        3347.50           5153        1030.00      4456.15
  147.66        3347.75           5157         978.00      4229.41
  147.70        3348.00           5161         939.00      4059.36
  147.73        3348.25           5165         984.00      4255.57
  147.76        3348.50           5168         971.00      4198.89
  147.79        3348.75           5172         951.00      4111.68
  147.83        3349.00           5176         958.00      4142.21
  147.86        3349.25           5180         942.00      4072.44
  147.89        3349.50           5184         963.00      4164.01
  147.92        3349.75           5187         975.00      4216.33
  147.96        3350.00           5191         948.00      4098.60
  147.99        3350.25           5195         935.00      4041.92
  148.02        3350.50           5199         938.00      4055.00
  148.06        3350.75           5203         919.00      3972.15
  148.09        3351.00           5206         918.00      3967.79
HL scan finished at 02:28:52
end
************************************************************
  HL Scan of (1) Internal mercury lamp
************************************************************
Integration time is 0.2294 seconds per sample
dh010617Arenosillo 37.1 6.73 3.35pr1000
************************************************************
Dead Time -------------------------  3.1E-08 
Number of Cycles Used -------------  4 
Starting Wavelength (Angstroms) ---  3331 
Final Wavelength (Angstoms) -------  3351 
Wavelength Increment (Angstroms) --  .25 
Filter Wheel #1 Position ---------- (1) Ground quartz diffuser (ND=2.32)
Filter Wheel #2 Position ---------- (0) Clear Aperture



************************************************************
HL scan start time = 22:07:02
Dark Count =  11.6 


Time (GMT)  Wavelength (Ang)  Step Number  Raw Counts  Counts/Second

 1328.07        3331.00           4903         775.00      3328.16
 1328.47        3331.25           4907         789.00      3389.20
 1328.51        3331.50           4911         802.00      3445.88
 1328.54        3331.75           4914         784.00      3367.40
 1328.57        3332.00           4918         781.00      3354.32
 1328.61        3332.25           4922         819.00      3520.00
 1328.64        3332.50           4926         833.00      3581.04
 1328.67        3332.75           4930         803.00      3450.24
 1328.70        3333.00           4933         804.00      3454.60
 1328.74        3333.25           4937         825.00      3546.16
 1328.77        3333.50           4941         850.00      3655.17
 1328.80        3333.75           4945         848.00      3646.45
 1328.83        3334.00           4948         860.00      3698.77
 1328.87        3334.25           4952         858.00      3690.05
 1328.90        3334.50           4956         885.00      3807.77
 1328.93        3334.75           4960         905.00      3894.98
 1328.97        3335.00           4964         873.00      3755.45
 1329.00        3335.25           4967         947.00      4078.11
 1329.03        3335.50           4971        1036.00      4466.18
 1329.06        3335.75           4975        1496.00      6472.09
 1329.10        3336.00           4979        3028.00     13154.45
 1329.13        3336.25           4983        6754.00     29418.27
 1329.16        3336.50           4986       12131.00     52917.60
 1329.20        3336.75           4990       22183.00     96940.41
 1329.23        3337.00           4994       31780.00    139083.10
 1329.26        3337.25           4998       41386.00    181376.20
 1329.29        3337.50           5001       49596.00    217611.30
 1329.33        3337.75           5005       60178.00    264436.10
 1329.36        3338.00           5009       70859.00    311837.90
 1329.39        3338.25           5013       81368.00    358613.30
 1329.42        3338.50           5017       91798.00    405172.40
 1329.46        3338.75           5020       99553.00    439878.20
 1329.49        3339.00           5024      108732.00    481054.30
 1329.52        3339.25           5028      119028.00    527367.60
 1329.55        3339.50           5032      128087.00    568227.80
 1329.59        3339.75           5036      138050.00    613286.40
 1329.62        3340.00           5039      144953.00    644580.50
 1329.65        3340.25           5043      154181.00    686510.80
 1329.69        3340.50           5047      164583.00    733908.10
 1329.72        3340.75           5051      174131.00    777538.50
 1329.75        3341.00           5055      181502.00    811302.80
 1329.78        3341.25           5058      184645.00    825721.60
 1329.82        3341.50           5062      184836.00    826598.30
 1329.85        3341.75           5066      181286.00    810312.30
 1329.88        3342.00           5070      173809.00    776065.10
 1329.92        3342.25           5074      164972.00    735683.30
 1329.95        3342.50           5077      158056.00    704151.00
 1329.98        3342.75           5081      148909.00    662542.30
 1330.01        3343.00           5085      139006.00    617616.60
 1330.05        3343.25           5089      128972.00    572225.10
 1330.08        3343.50           5092      122102.00    541221.00
 1330.11        3343.75           5096      111587.00    493883.20
 1330.14        3344.00           5100      101337.00    447872.80
 1330.18        3344.25           5104       91668.00    404591.20
 1330.21        3344.50           5108       80766.00    355930.10
 1330.24        3344.75           5111       72650.00    319800.00
 1330.28        3345.00           5115       63009.00    276986.30
 1330.31        3345.25           5119       53507.00    234901.40
 1330.34        3345.50           5123       43161.00    189203.30
 1330.37        3345.75           5127       32421.00    141901.90
 1330.41        3346.00           5130       24020.00    104998.60
 1330.44        3346.25           5134       13718.00     59859.89
 1330.47        3346.50           5138        6323.00     27536.14
 1330.51        3346.75           5142        2236.00      9699.52
 1330.54        3347.00           5146        1127.00      4862.98
 1330.57        3347.25           5149        1003.00      4322.29
 1330.60        3347.50           5153        1019.00      4392.05
 1330.64        3347.75           5157         964.00      4152.23
 1330.67        3348.00           5161         977.00      4208.92
 1330.70        3348.25           5165         941.00      4051.95
 1330.73        3348.50           5168         927.00      3990.90
 1330.77        3348.75           5172         938.00      4038.87
 1330.80        3349.00           5176         948.00      4082.47
 1330.83        3349.25           5180         911.00      3921.14
 1330.86        3349.50           5184         906.00      3899.34
 1330.90        3349.75           5187         907.00      3903.70
 1330.93        3350.00           5191         911.00      3921.14
 1330.96        3350.25           5195         891.00      3833.93
 1331.00        3350.50           5199         898.00      3864.46
 1331.03        3350.75           5203         899.00      3868.82
 1331.06        3351.00           5206         887.00      3816.49
HL scan finished at 22:11:50
end
