************************************************************
  HL Scan of (1) Internal mercury lamp
************************************************************
Integration time is 0.2294 seconds per sample
dh310517Arenosillo 37.1 6.73 3.17pr1000
************************************************************
Dead Time -------------------------  3.1E-08 
Number of Cycles Used -------------  4 
Starting Wavelength (Angstroms) ---  3331 
Final Wavelength (Angstoms) -------  3351 
Wavelength Increment (Angstroms) --  .25 
Filter Wheel #1 Position ---------- (1) Ground quartz diffuser (ND=2.32)
Filter Wheel #2 Position ---------- (0) Clear Aperture



************************************************************
HL scan start time = 02:13:48
Dark Count =  7.4 


Time (GMT)  Wavelength (Ang)  Step Number  Raw Counts  Counts/Second

  134.83        3331.00           4903         800.00      3455.47
  135.24        3331.25           4907         809.00      3494.71
  135.27        3331.50           4911         837.00      3616.80
  135.30        3331.75           4914         798.00      3446.75
  135.34        3332.00           4918         833.00      3599.36
  135.37        3332.25           4922         833.00      3599.36
  135.40        3332.50           4926         846.00      3656.04
  135.43        3332.75           4930         851.00      3677.84
  135.47        3333.00           4933         857.00      3704.00
  135.50        3333.25           4937         873.00      3773.76
  135.53        3333.50           4941         866.00      3743.24
  135.57        3333.75           4945         874.00      3778.12
  135.60        3334.00           4948         923.00      3991.78
  135.63        3334.25           4952         902.00      3900.21
  135.66        3334.50           4956         888.00      3839.17
  135.70        3334.75           4960         933.00      4035.38
  135.73        3335.00           4964         970.00      4196.71
  135.76        3335.25           4967        1007.00      4358.04
  135.80        3335.50           4971        1147.00      4968.51
  135.83        3335.75           4975        1705.00      7401.87
  135.86        3336.00           4979        3947.00     17182.65
  135.89        3336.25           4983        9441.00     41175.45
  135.93        3336.50           4986       16370.00     71486.06
  135.96        3336.75           4990       25919.00    113351.40
  135.99        3337.00           4994       36045.00    157865.70
  136.03        3337.25           4998       46489.00    203907.40
  136.06        3337.50           5001       53798.00    236207.20
  136.09        3337.75           5005       64089.00    281795.40
  136.12        3338.00           5009       75491.00    332456.70
  136.16        3338.25           5013       85717.00    378029.40
  136.19        3338.50           5017       95930.00    423673.80
  136.22        3338.75           5020      103680.00    458397.30
  136.25        3339.00           5024      113505.00    502526.40
  136.29        3339.25           5028      123060.00    545559.80
  136.32        3339.50           5032      132968.00    590305.60
  136.35        3339.75           5036      143113.00    636252.00
  136.38        3340.00           5039      150152.00    668209.30
  136.42        3340.25           5043      159472.00    710621.00
  136.45        3340.50           5047      169036.00    754260.70
  136.48        3340.75           5051      178240.00    796370.90
  136.52        3341.00           5055      185071.00    827696.30
  136.55        3341.25           5058      187627.00    839433.20
  136.58        3341.50           5062      186654.00    834964.30
  136.61        3341.75           5066      181787.00    812628.90
  136.65        3342.00           5070      173133.00    772991.60
  136.68        3342.25           5074      164645.00    734210.10
  136.71        3342.50           5077      157998.00    703905.90
  136.75        3342.75           5081      148711.00    661661.90
  136.78        3343.00           5085      138255.00    614233.80
  136.81        3343.25           5089      128490.00    570066.90
  136.84        3343.50           5092      120797.00    535357.40
  136.88        3343.75           5096      110259.00    487933.50
  136.91        3344.00           5100       99746.00    440761.80
  136.94        3344.25           5104       89173.00    393460.50
  136.98        3344.50           5108       78706.00    346770.60
  137.01        3344.75           5111       69475.00    305706.50
  137.04        3345.00           5115       59659.00    262155.00
  137.07        3345.25           5119       49379.00    216671.10
  137.11        3345.50           5123       39514.00    173144.00
  137.14        3345.75           5127       29868.00    130696.70
  137.17        3346.00           5130       21719.00     94924.08
  137.20        3346.25           5134       11386.00     49678.02
  137.24        3346.50           5138        4115.00     17915.79
  137.27        3346.75           5142        1443.00      6259.28
  137.30        3347.00           5146        1095.00      4741.76
  137.34        3347.25           5149        1034.00      4475.77
  137.37        3347.50           5153        1047.00      4532.46
  137.40        3347.75           5157         969.00      4192.35
  137.43        3348.00           5161         994.00      4301.36
  137.47        3348.25           5165         980.00      4240.31
  137.50        3348.50           5168         958.00      4144.39
  137.53        3348.75           5172         973.00      4209.79
  137.57        3349.00           5176         924.00      3996.14
  137.60        3349.25           5180         924.00      3996.14
  137.63        3349.50           5184         912.00      3943.81
  137.66        3349.75           5187         936.00      4048.46
  137.70        3350.00           5191         888.00      3839.17
  137.73        3350.25           5195         893.00      3860.97
  137.76        3350.50           5199         920.00      3978.69
  137.79        3350.75           5203         887.00      3834.81
  137.83        3351.00           5206         897.00      3878.41
HL scan finished at 02:18:36
end
************************************************************
  HL Scan of (1) Internal mercury lamp
************************************************************
Integration time is 0.2294 seconds per sample
dh310517Arenosillo 37.1 6.73 3.29pr1000
************************************************************
Dead Time -------------------------  3.1E-08 
Number of Cycles Used -------------  4 
Starting Wavelength (Angstroms) ---  3331 
Final Wavelength (Angstoms) -------  3351 
Wavelength Increment (Angstroms) --  .25 
Filter Wheel #1 Position ---------- (1) Ground quartz diffuser (ND=2.32)
Filter Wheel #2 Position ---------- (0) Clear Aperture



************************************************************
HL scan start time = 22:07:04
Dark Count =  10 


Time (GMT)  Wavelength (Ang)  Step Number  Raw Counts  Counts/Second

 1328.10        3331.00           4903         801.00      3448.49
 1328.51        3331.25           4907         790.00      3400.53
 1328.54        3331.50           4911         820.00      3531.34
 1328.58        3331.75           4914         837.00      3605.46
 1328.61        3332.00           4918         809.00      3483.38
 1328.64        3332.25           4922         813.00      3500.82
 1328.67        3332.50           4926         817.00      3518.26
 1328.71        3332.75           4930         823.00      3544.42
 1328.74        3333.00           4933         819.00      3526.98
 1328.77        3333.25           4937         854.00      3679.58
 1328.81        3333.50           4941         857.00      3692.66
 1328.84        3333.75           4945         853.00      3675.22
 1328.87        3334.00           4948         879.00      3788.59
 1328.90        3334.25           4952         899.00      3875.79
 1328.94        3334.50           4956         932.00      4019.68
 1328.97        3334.75           4960         922.00      3976.08
 1329.00        3335.00           4964         943.00      4067.64
 1329.03        3335.25           4967         962.00      4150.49
 1329.07        3335.50           4971        1051.00      4538.56
 1329.10        3335.75           4975        1465.00      6343.88
 1329.13        3336.00           4979        2709.00     11769.77
 1329.17        3336.25           4983        5926.00     25809.66
 1329.20        3336.50           4986       10713.00     46724.13
 1329.23        3336.75           4990       20478.00     89471.88
 1329.26        3337.00           4994       31342.00    137164.40
 1329.30        3337.25           4998       42550.00    186515.60
 1329.33        3337.50           5001       51169.00    224570.20
 1329.36        3337.75           5005       61134.00    268680.20
 1329.40        3338.00           5009       71921.00    316565.70
 1329.43        3338.25           5013       82084.00    361812.30
 1329.46        3338.50           5017       92223.00    407079.60
 1329.49        3338.75           5020       99501.00    439652.50
 1329.53        3339.00           5024      109335.00    483770.20
 1329.56        3339.25           5028      119404.00    529068.60
 1329.59        3339.50           5032      128872.00    571780.60
 1329.62        3339.75           5036      139204.00    618520.80
 1329.66        3340.00           5039      147200.00    654787.50
 1329.69        3340.25           5043      157381.00    701084.10
 1329.72        3340.50           5047      166731.00    743720.50
 1329.75        3340.75           5051      175435.00    783513.80
 1329.79        3341.00           5055      182756.00    817061.40
 1329.82        3341.25           5058      185776.00    830920.80
 1329.85        3341.50           5062      187049.00    836766.50
 1329.89        3341.75           5066      184213.00    823746.40
 1329.92        3342.00           5070      175987.00    786040.80
 1329.95        3342.25           5074      166861.00    744314.10
 1329.98        3342.50           5077      160380.00    714747.10
 1330.02        3342.75           5081      150822.00    671242.60
 1330.05        3343.00           5085      140954.00    626451.10
 1330.08        3343.25           5089      130679.00    579945.40
 1330.11        3343.50           5092      123552.00    547767.00
 1330.15        3343.75           5096      112789.00    499294.70
 1330.18        3344.00           5100      103150.00    456008.70
 1330.21        3344.25           5104       92407.00    407902.30
 1330.25        3344.50           5108       81994.00    361411.10
 1330.28        3344.75           5111       74172.00    326576.40
 1330.31        3345.00           5115       63468.00    279029.20
 1330.34        3345.25           5119       53162.00    233382.50
 1330.38        3345.50           5123       42961.00    188328.20
 1330.41        3345.75           5127       32566.00    142546.60
 1330.44        3346.00           5130       24830.00    108560.00
 1330.48        3346.25           5134       15399.00     67223.65
 1330.51        3346.50           5138        7767.00     33849.80
 1330.54        3346.75           5142        3002.00     13048.00
 1330.57        3347.00           5146        1192.00      5153.40
 1330.61        3347.25           5149        1024.00      4420.83
 1330.64        3347.50           5153         979.00      4224.62
 1330.67        3347.75           5157         989.00      4268.22
 1330.70        3348.00           5161         971.00      4189.73
 1330.74        3348.25           5165         949.00      4093.81
 1330.77        3348.50           5168         975.00      4207.18
 1330.80        3348.75           5172         942.00      4063.28
 1330.83        3349.00           5176         935.00      4032.76
 1330.87        3349.25           5180         928.00      4002.24
 1330.90        3349.50           5184         896.00      3862.71
 1330.93        3349.75           5187         903.00      3893.23
 1330.97        3350.00           5191         917.00      3954.28
 1331.00        3350.25           5195         891.00      3840.91
 1331.03        3350.50           5199         908.00      3915.04
 1331.06        3350.75           5203         900.00      3880.15
 1331.10        3351.00           5206         878.00      3784.23
HL scan finished at 22:11:52
end
