************************************************************
  HL Scan of (1) Internal mercury lamp
************************************************************
Integration time is 0.2294 seconds per sample
dh020617Arenosillo 37.1 6.73 3.29pr1000
************************************************************
Dead Time -------------------------  3.1E-08 
Number of Cycles Used -------------  4 
Starting Wavelength (Angstroms) ---  3331 
Final Wavelength (Angstoms) -------  3351 
Wavelength Increment (Angstroms) --  .25 
Filter Wheel #1 Position ---------- (1) Ground quartz diffuser (ND=2.32)
Filter Wheel #2 Position ---------- (0) Clear Aperture



************************************************************
HL scan start time = 02:21:43
Dark Count =  9.5 


Time (GMT)  Wavelength (Ang)  Step Number  Raw Counts  Counts/Second

  142.75        3331.00           4903         817.00      3520.44
  143.16        3331.25           4907         833.00      3590.20
  143.19        3331.50           4911         818.00      3524.80
  143.22        3331.75           4914         804.00      3463.76
  143.25        3332.00           4918         820.00      3533.52
  143.29        3332.25           4922         838.00      3612.00
  143.32        3332.50           4926         839.00      3616.36
  143.35        3332.75           4930         848.00      3655.60
  143.38        3333.00           4933         866.00      3734.09
  143.42        3333.25           4937         885.00      3816.93
  143.45        3333.50           4941         899.00      3877.97
  143.48        3333.75           4945         872.00      3760.25
  143.52        3334.00           4948         913.00      3939.02
  143.55        3334.25           4952         936.00      4039.30
  143.58        3334.50           4956         941.00      4061.10
  143.61        3334.75           4960         958.00      4135.23
  143.65        3335.00           4964         960.00      4143.95
  143.68        3335.25           4967         993.00      4287.84
  143.71        3335.50           4971        1110.00      4798.01
  143.75        3335.75           4975        1548.00      6708.02
  143.78        3336.00           4979        3045.00     13237.78
  143.81        3336.25           4983        6851.00     29851.06
  143.84        3336.50           4986       12639.00     55148.70
  143.88        3336.75           4990       23616.00    103235.30
  143.91        3337.00           4994       35162.00    153969.90
  143.94        3337.25           4998       46348.00    203275.60
  143.97        3337.50           5001       54505.00    239325.70
  144.01        3337.75           5005       65921.00    289915.20
  144.04        3338.00           5009       77773.00    342606.00
  144.07        3338.25           5013       89277.00    393915.80
  144.11        3338.50           5017      100127.00    442459.50
  144.14        3338.75           5020      107863.00    477161.00
  144.17        3339.00           5024      117704.00    521414.00
  144.20        3339.25           5028      128285.00    569131.50
  144.24        3339.50           5032      138150.00    613748.70
  144.27        3339.75           5036      148778.00    661956.80
  144.30        3340.00           5039      156927.00    699018.90
  144.33        3340.25           5043      167479.00    747138.50
  144.37        3340.50           5047      178841.00    799114.90
  144.40        3340.75           5051      188173.00    841932.00
  144.43        3341.00           5055      195383.00    875092.10
  144.47        3341.25           5058      196570.00    880557.80
  144.50        3341.50           5062      196662.00    880981.60
  144.53        3341.75           5066      194283.00    870028.50
  144.56        3342.00           5070      186021.00    832048.00
  144.60        3342.25           5074      174977.00    781419.70
  144.63        3342.50           5077      166869.00    744352.90
  144.66        3342.75           5081      157662.00    702366.00
  144.69        3343.00           5085      147932.00    658114.00
  144.73        3343.25           5089      138267.00    614278.60
  144.76        3343.50           5092      130185.00    577715.10
  144.79        3343.75           5096      118202.00    523656.60
  144.83        3344.00           5100      107526.00    475647.70
  144.86        3344.25           5104       98448.00    434937.90
  144.89        3344.50           5108       87848.00    387533.20
  144.92        3344.75           5111       78886.00    347563.00
  144.96        3345.00           5115       67043.00    294895.90
  144.99        3345.25           5119       55067.00    241812.50
  145.02        3345.50           5123       43627.00    191268.00
  145.05        3345.75           5127       32850.00    143797.90
  145.09        3346.00           5130       25169.00    110050.10
  145.12        3346.25           5134       15159.00     66175.28
  145.15        3346.50           5138        7425.00     32358.08
  145.19        3346.75           5142        2758.00     11985.71
  145.22        3347.00           5146        1231.00      5325.64
  145.25        3347.25           5149        1072.00      4632.31
  145.28        3347.50           5153        1053.00      4549.47
  145.32        3347.75           5157        1017.00      4392.49
  145.35        3348.00           5161        1002.00      4327.08
  145.38        3348.25           5165         967.00      4174.47
  145.41        3348.50           5168        1004.00      4335.81
  145.45        3348.75           5172         984.00      4248.60
  145.48        3349.00           5176         953.00      4113.43
  145.51        3349.25           5180         983.00      4244.24
  145.55        3349.50           5184         939.00      4052.38
  145.58        3349.75           5187         905.00      3904.13
  145.61        3350.00           5191         931.00      4017.50
  145.64        3350.25           5195         928.00      4004.42
  145.68        3350.50           5199         959.00      4139.59
  145.71        3350.75           5203         898.00      3873.61
  145.74        3351.00           5206         915.00      3947.74
HL scan finished at 02:26:31
end
************************************************************
  HL Scan of (1) Internal mercury lamp
************************************************************
Integration time is 0.2294 seconds per sample
dh020617Arenosillo 37.1 6.73 3.35pr1000
************************************************************
Dead Time -------------------------  3.1E-08 
Number of Cycles Used -------------  4 
Starting Wavelength (Angstroms) ---  3331 
Final Wavelength (Angstoms) -------  3351 
Wavelength Increment (Angstroms) --  .25 
Filter Wheel #1 Position ---------- (1) Ground quartz diffuser (ND=2.32)
Filter Wheel #2 Position ---------- (0) Clear Aperture



************************************************************
HL scan start time = 22:06:13
Dark Count =  39.9 


Time (GMT)  Wavelength (Ang)  Step Number  Raw Counts  Counts/Second

 1327.26        3331.00           4903          80.00       174.80
 1327.67        3331.25           4907          79.00       170.45
 1327.70        3331.50           4911         103.00       275.07
 1327.73        3331.75           4914          77.00       161.73
 1327.76        3332.00           4918          80.00       174.80
 1327.80        3332.25           4922          78.00       166.09
 1327.83        3332.50           4926          71.00       135.57
 1327.86        3332.75           4930          84.00       192.24
 1327.90        3333.00           4933          78.00       166.09
 1327.93        3333.25           4937          77.00       161.73
 1327.96        3333.50           4941          89.00       214.04
 1327.99        3333.75           4945          84.00       192.24
 1328.03        3334.00           4948          88.00       209.68
 1328.06        3334.25           4952          79.00       170.45
 1328.09        3334.50           4956          82.00       183.52
 1328.13        3334.75           4960          85.00       196.60
 1328.16        3335.00           4964          87.00       205.32
 1328.19        3335.25           4967          82.00       183.52
 1328.22        3335.50           4971          85.00       196.60
 1328.26        3335.75           4975         111.00       309.94
 1328.29        3336.00           4979         147.00       466.88
 1328.32        3336.25           4983         256.00       942.05
 1328.35        3336.50           4986         495.00      1983.99
 1328.39        3336.75           4990         886.00      3688.74
 1328.42        3337.00           4994        1323.00      5594.26
 1328.45        3337.25           4998        1684.00      7168.55
 1328.49        3337.50           5001        1984.00      8476.94
 1328.52        3337.75           5005        2405.00     10313.24
 1328.55        3338.00           5009        2864.00     12315.51
 1328.58        3338.25           5013        3292.00     14182.78
 1328.62        3338.50           5017        3656.00     15771.01
 1328.65        3338.75           5020        3945.00     17032.10
 1328.68        3339.00           5024        4450.00     19235.97
 1328.72        3339.25           5028        4742.00     20510.42
 1328.75        3339.50           5032        5182.00     22431.02
 1328.78        3339.75           5036        5525.00     23928.38
 1328.81        3340.00           5039        5840.00     25303.63
 1328.85        3340.25           5043        6211.00     26923.51
 1328.88        3340.50           5047        6651.00     28844.87
 1328.91        3340.75           5051        6978.00     30272.95
 1328.94        3341.00           5055        7265.00     31526.44
 1328.98        3341.25           5058        7469.00     32417.48
 1329.01        3341.50           5062        7535.00     32705.77
 1329.04        3341.75           5066        7397.00     32102.99
 1329.08        3342.00           5070        7096.00     30788.31
 1329.11        3342.25           5074        6707.00     29089.43
 1329.14        3342.50           5077        6467.00     28041.37
 1329.17        3342.75           5081        6097.00     26425.74
 1329.21        3343.00           5085        5643.00     24443.54
 1329.24        3343.25           5089        5197.00     22496.51
 1329.27        3343.50           5092        4969.00     21501.25
 1329.30        3343.75           5096        4562.00     19724.79
 1329.34        3344.00           5100        4110.00     17752.14
 1329.37        3344.25           5104        3719.00     16045.91
 1329.40        3344.50           5108        3297.00     14204.60
 1329.44        3344.75           5111        2939.00     12642.70
 1329.47        3345.00           5115        2545.00     10923.93
 1329.50        3345.25           5119        2184.00      9349.27
 1329.53        3345.50           5123        1760.00      7500.00
 1329.57        3345.75           5127        1367.00      5786.13
 1329.60        3346.00           5130        1070.00      4491.03
 1329.63        3346.25           5134         679.00      2786.20
 1329.67        3346.50           5138         330.00      1264.65
 1329.70        3346.75           5142         149.00       475.60
 1329.73        3347.00           5146         105.00       283.79
 1329.76        3347.25           5149          80.00       174.80
 1329.80        3347.50           5153          84.00       192.24
 1329.83        3347.75           5157          87.00       205.32
 1329.86        3348.00           5161          84.00       192.24
 1329.89        3348.25           5165         105.00       283.79
 1329.93        3348.50           5168          86.00       200.96
 1329.96        3348.75           5172          86.00       200.96
 1329.99        3349.00           5176          76.00       157.37
 1330.03        3349.25           5180          82.00       183.52
 1330.06        3349.50           5184         111.00       309.94
 1330.09        3349.75           5187          93.00       231.48
 1330.12        3350.00           5191          83.00       187.88
 1330.16        3350.25           5195          76.00       157.37
 1330.19        3350.50           5199          84.00       192.24
 1330.22        3350.75           5203          89.00       214.04
 1330.26        3351.00           5206          84.00       192.24
HL scan finished at 22:11:02
end
