************************************************************
  HL Scan of (1) Internal mercury lamp
************************************************************
Integration time is 0.2294 seconds per sample
dh170619Arenosillo 37.1 6.73 2.98pr1000
************************************************************
Dead Time -------------------------  3.4E-08 
Number of Cycles Used -------------  4 
Starting Wavelength (Angstroms) ---  3331 
Final Wavelength (Angstoms) -------  3351 
Wavelength Increment (Angstroms) --  .25 
Filter Wheel #1 Position ---------- (1) Ground quartz diffuser (ND=2.32)
Filter Wheel #2 Position ---------- 



************************************************************
HL scan start time = 22:16:19
Dark Count =  5.2 


Time (GMT)  Wavelength (Ang)  Step Number  Raw Counts  Counts/Second

 1337.45        3331.00           6809         105.00       435.05
 1338.00        3331.25           6812         101.00       417.62
 1338.03        3331.50           6816         105.00       435.05
 1338.07        3331.75           6820         107.00       443.77
 1338.10        3332.00           6823         108.00       448.13
 1338.13        3332.25           6827         100.00       413.26
 1338.16        3332.50           6831         122.00       509.16
 1338.20        3332.75           6835         126.00       526.60
 1338.23        3333.00           6838         122.00       509.16
 1338.26        3333.25           6842         103.00       426.34
 1338.29        3333.50           6846         104.00       430.70
 1338.33        3333.75           6850         100.00       413.26
 1338.36        3334.00           6853         135.00       565.83
 1338.39        3334.25           6857          94.00       387.10
 1338.43        3334.50           6861         121.00       504.80
 1338.46        3334.75           6864         105.00       435.05
 1338.49        3335.00           6868         124.00       517.88
 1338.52        3335.25           6872         109.00       452.49
 1338.56        3335.50           6876         123.00       513.52
 1338.59        3335.75           6879         134.00       561.48
 1338.62        3336.00           6883         141.00       591.99
 1338.66        3336.25           6887         163.00       687.90
 1338.69        3336.50           6891         202.00       857.92
 1338.72        3336.75           6894         260.00      1110.77
 1338.75        3337.00           6898         313.00      1341.82
 1338.79        3337.25           6902         373.00      1603.40
 1338.82        3337.50           6905         417.00      1795.23
 1338.85        3337.75           6909         461.00      1987.06
 1338.88        3338.00           6913         557.00      2405.60
 1338.92        3338.25           6917         600.00      2593.08
 1338.95        3338.50           6920         647.00      2798.00
 1338.98        3338.75           6924         719.00      3111.92
 1339.01        3339.00           6928         783.00      3390.98
 1339.05        3339.25           6932         827.00      3582.83
 1339.08        3339.50           6935         860.00      3726.71
 1339.11        3339.75           6939         931.00      4036.30
 1339.15        3340.00           6943         981.00      4254.32
 1339.18        3340.25           6947        1055.00      4577.00
 1339.21        3340.50           6950        1063.00      4611.88
 1339.24        3340.75           6954        1131.00      4908.40
 1339.28        3341.00           6958        1153.00      5004.34
 1339.31        3341.25           6961        1163.00      5047.95
 1339.34        3341.50           6965        1169.00      5074.11
 1339.38        3341.75           6969        1165.00      5056.67
 1339.41        3342.00           6973        1088.00      4720.90
 1339.44        3342.25           6976        1067.00      4629.33
 1339.47        3342.50           6980         975.00      4228.16
 1339.51        3342.75           6984         946.00      4101.71
 1339.54        3343.00           6988         899.00      3896.77
 1339.57        3343.25           6991         826.00      3578.47
 1339.60        3343.50           6995         769.00      3329.93
 1339.64        3343.75           6999         710.00      3072.68
 1339.67        3344.00           7003         648.00      2802.36
 1339.70        3344.25           7006         588.00      2540.76
 1339.74        3344.50           7010         540.00      2331.48
 1339.77        3344.75           7014         480.00      2069.89
 1339.80        3345.00           7017         442.00      1904.22
 1339.83        3345.25           7021         379.00      1629.56
 1339.87        3345.50           7025         311.00      1333.10
 1339.90        3345.75           7029         251.00      1071.53
 1339.93        3346.00           7032         211.00       897.15
 1339.96        3346.25           7036         161.00       679.18
 1340.00        3346.50           7040         156.00       657.38
 1340.03        3346.75           7044         126.00       526.60
 1340.06        3347.00           7047         143.00       600.71
 1340.10        3347.25           7051         107.00       443.77
 1340.13        3347.50           7055         111.00       461.21
 1340.16        3347.75           7059         100.00       413.26
 1340.19        3348.00           7062         114.00       474.29
 1340.23        3348.25           7066         114.00       474.29
 1340.26        3348.50           7070         160.00       674.82
 1340.29        3348.75           7074         138.00       578.91
 1340.33        3349.00           7077         126.00       526.60
 1340.36        3349.25           7081         104.00       430.70
 1340.39        3349.50           7085         129.00       539.68
 1340.42        3349.75           7089         105.00       435.05
 1340.46        3350.00           7092         127.00       530.96
 1340.49        3350.25           7096         130.00       544.04
 1340.52        3350.50           7100         138.00       578.91
 1340.55        3350.75           7104         126.00       526.60
 1340.59        3351.00           7107         109.00       452.49
HL scan finished at 22:21:23
end
