************************************************************
  HL Scan of (1) Internal mercury lamp
************************************************************
Integration time is 0.2294 seconds per sample
dh180619Arenosillo 37.1 6.73 2.98pr1000
************************************************************
Dead Time -------------------------  3.4E-08 
Number of Cycles Used -------------  4 
Starting Wavelength (Angstroms) ---  3331 
Final Wavelength (Angstoms) -------  3351 
Wavelength Increment (Angstroms) --  .25 
Filter Wheel #1 Position ---------- (1) Ground quartz diffuser (ND=2.32)
Filter Wheel #2 Position ---------- 



************************************************************
HL scan start time = 02:24:15
Dark Count =  5.2 


Time (GMT)  Wavelength (Ang)  Step Number  Raw Counts  Counts/Second

  145.40        3331.00           6809         114.00       474.29
  145.95        3331.25           6812         134.00       561.48
  145.98        3331.50           6816         151.00       635.58
  146.01        3331.75           6820         131.00       548.40
  146.05        3332.00           6823         123.00       513.52
  146.08        3332.25           6827         168.00       709.69
  146.11        3332.50           6831         114.00       474.29
  146.14        3332.75           6835         110.00       456.85
  146.18        3333.00           6838         129.00       539.68
  146.21        3333.25           6842         138.00       578.91
  146.24        3333.50           6846         121.00       504.80
  146.27        3333.75           6850         122.00       509.16
  146.31        3334.00           6853         113.00       469.93
  146.34        3334.25           6857         120.00       500.44
  146.37        3334.50           6861         146.00       613.79
  146.41        3334.75           6864         112.00       465.57
  146.44        3335.00           6868         111.00       461.21
  146.47        3335.25           6872         126.00       526.60
  146.50        3335.50           6876         129.00       539.68
  146.54        3335.75           6879         132.00       552.76
  146.57        3336.00           6883         156.00       657.38
  146.60        3336.25           6887         177.00       748.93
  146.64        3336.50           6891         260.00      1110.77
  146.67        3336.75           6894         295.00      1263.35
  146.70        3337.00           6898         351.00      1507.49
  146.73        3337.25           6902         425.00      1830.11
  146.77        3337.50           6905         481.00      2074.25
  146.80        3337.75           6909         548.00      2366.36
  146.83        3338.00           6913         600.00      2593.08
  146.86        3338.25           6917         640.00      2767.48
  146.90        3338.50           6920         720.00      3116.28
  146.93        3338.75           6924         774.00      3351.73
  146.96        3339.00           6928         833.00      3608.99
  146.99        3339.25           6932         915.00      3966.53
  147.03        3339.50           6935         989.00      4289.20
  147.06        3339.75           6939        1003.00      4350.25
  147.09        3340.00           6943        1113.00      4829.91
  147.13        3340.25           6947        1192.00      5174.41
  147.16        3340.50           6950        1160.00      5034.86
  147.19        3340.75           6954        1288.00      5593.04
  147.22        3341.00           6958        1286.00      5584.32
  147.26        3341.25           6961        1266.00      5497.10
  147.29        3341.50           6965        1285.00      5579.96
  147.32        3341.75           6969        1209.00      5248.54
  147.36        3342.00           6973        1175.00      5100.27
  147.39        3342.25           6976        1139.00      4943.29
  147.42        3342.50           6980        1079.00      4681.65
  147.45        3342.75           6984        1035.00      4489.79
  147.49        3343.00           6988         945.00      4097.35
  147.52        3343.25           6991         902.00      3909.85
  147.55        3343.50           6995         862.00      3735.43
  147.58        3343.75           6999         801.00      3469.46
  147.62        3344.00           7003         724.00      3133.73
  147.65        3344.25           7006         683.00      2954.96
  147.68        3344.50           7010         593.00      2562.56
  147.72        3344.75           7014         500.00      2157.09
  147.75        3345.00           7017         441.00      1899.86
  147.78        3345.25           7021         403.00      1734.19
  147.81        3345.50           7025         338.00      1450.81
  147.85        3345.75           7029         261.00      1115.13
  147.88        3346.00           7032         238.00      1014.86
  147.91        3346.25           7036         187.00       792.52
  147.94        3346.50           7040         153.00       644.30
  147.98        3346.75           7044         151.00       635.58
  148.01        3347.00           7047         130.00       544.04
  148.04        3347.25           7051         143.00       600.71
  148.08        3347.50           7055         122.00       509.16
  148.11        3347.75           7059         154.00       648.66
  148.14        3348.00           7062         128.00       535.32
  148.17        3348.25           7066         124.00       517.88
  148.21        3348.50           7070         129.00       539.68
  148.24        3348.75           7074         148.00       622.51
  148.27        3349.00           7077         140.00       587.63
  148.30        3349.25           7081         147.00       618.15
  148.34        3349.50           7085         119.00       496.09
  148.37        3349.75           7089         136.00       570.19
  148.40        3350.00           7092         142.00       596.35
  148.44        3350.25           7096         137.00       574.55
  148.47        3350.50           7100         131.00       548.40
  148.50        3350.75           7104         118.00       491.73
  148.53        3351.00           7107         128.00       535.32
HL scan finished at 02:29:20
end
