************************************************************
  HL Scan of (1) Internal mercury lamp
************************************************************
Integration time is 0.2294 seconds per sample
dh180619Arenosillo 37.1 6.73 2.98pr1000
************************************************************
Dead Time -------------------------  3.4E-08 
Number of Cycles Used -------------  4 
Starting Wavelength (Angstroms) ---  3331 
Final Wavelength (Angstoms) -------  3351 
Wavelength Increment (Angstroms) --  .25 
Filter Wheel #1 Position ---------- (1) Ground quartz diffuser (ND=2.32)
Filter Wheel #2 Position ---------- 



************************************************************
HL scan start time = 02:24:15
Dark Count =  5.2 


Time (GMT)  Wavelength (Ang)  Step Number  Raw Counts  Counts/Second

  145.40        3331.00           6809         114.00       474.29
  145.95        3331.25           6812         134.00       561.48
  145.98        3331.50           6816         151.00       635.58
  146.01        3331.75           6820         131.00       548.40
  146.05        3332.00           6823         123.00       513.52
  146.08        3332.25           6827         168.00       709.69
  146.11        3332.50           6831         114.00       474.29
  146.14        3332.75           6835         110.00       456.85
  146.18        3333.00           6838         129.00       539.68
  146.21        3333.25           6842         138.00       578.91
  146.24        3333.50           6846         121.00       504.80
  146.27        3333.75           6850         122.00       509.16
  146.31        3334.00           6853         113.00       469.93
  146.34        3334.25           6857         120.00       500.44
  146.37        3334.50           6861         146.00       613.79
  146.41        3334.75           6864         112.00       465.57
  146.44        3335.00           6868         111.00       461.21
  146.47        3335.25           6872         126.00       526.60
  146.50        3335.50           6876         129.00       539.68
  146.54        3335.75           6879         132.00       552.76
  146.57        3336.00           6883         156.00       657.38
  146.60        3336.25           6887         177.00       748.93
  146.64        3336.50           6891         260.00      1110.77
  146.67        3336.75           6894         295.00      1263.35
  146.70        3337.00           6898         351.00      1507.49
  146.73        3337.25           6902         425.00      1830.11
  146.77        3337.50           6905         481.00      2074.25
  146.80        3337.75           6909         548.00      2366.36
  146.83        3338.00           6913         600.00      2593.08
  146.86        3338.25           6917         640.00      2767.48
  146.90        3338.50           6920         720.00      3116.28
  146.93        3338.75           6924         774.00      3351.73
  146.96        3339.00           6928         833.00      3608.99
  146.99        3339.25           6932         915.00      3966.53
  147.03        3339.50           6935         989.00      4289.20
  147.06        3339.75           6939        1003.00      4350.25
  147.09        3340.00           6943        1113.00      4829.91
  147.13        3340.25           6947        1192.00      5174.41
  147.16        3340.50           6950        1160.00      5034.86
  147.19        3340.75           6954        1288.00      5593.04
  147.22        3341.00           6958        1286.00      5584.32
  147.26        3341.25           6961        1266.00      5497.10
  147.29        3341.50           6965        1285.00      5579.96
  147.32        3341.75           6969        1209.00      5248.54
  147.36        3342.00           6973        1175.00      5100.27
  147.39        3342.25           6976        1139.00      4943.29
  147.42        3342.50           6980        1079.00      4681.65
  147.45        3342.75           6984        1035.00      4489.79
  147.49        3343.00           6988         945.00      4097.35
  147.52        3343.25           6991         902.00      3909.85
  147.55        3343.50           6995         862.00      3735.43
  147.58        3343.75           6999         801.00      3469.46
  147.62        3344.00           7003         724.00      3133.73
  147.65        3344.25           7006         683.00      2954.96
  147.68        3344.50           7010         593.00      2562.56
  147.72        3344.75           7014         500.00      2157.09
  147.75        3345.00           7017         441.00      1899.86
  147.78        3345.25           7021         403.00      1734.19
  147.81        3345.50           7025         338.00      1450.81
  147.85        3345.75           7029         261.00      1115.13
  147.88        3346.00           7032         238.00      1014.86
  147.91        3346.25           7036         187.00       792.52
  147.94        3346.50           7040         153.00       644.30
  147.98        3346.75           7044         151.00       635.58
  148.01        3347.00           7047         130.00       544.04
  148.04        3347.25           7051         143.00       600.71
  148.08        3347.50           7055         122.00       509.16
  148.11        3347.75           7059         154.00       648.66
  148.14        3348.00           7062         128.00       535.32
  148.17        3348.25           7066         124.00       517.88
  148.21        3348.50           7070         129.00       539.68
  148.24        3348.75           7074         148.00       622.51
  148.27        3349.00           7077         140.00       587.63
  148.30        3349.25           7081         147.00       618.15
  148.34        3349.50           7085         119.00       496.09
  148.37        3349.75           7089         136.00       570.19
  148.40        3350.00           7092         142.00       596.35
  148.44        3350.25           7096         137.00       574.55
  148.47        3350.50           7100         131.00       548.40
  148.50        3350.75           7104         118.00       491.73
  148.53        3351.00           7107         128.00       535.32
HL scan finished at 02:29:20
end
************************************************************
  HL Scan of (1) Internal mercury lamp
************************************************************
Integration time is 0.2294 seconds per sample
dh180619Arenosillo 37.1 6.73 3.25pr1000
************************************************************
Dead Time -------------------------  3.4E-08 
Number of Cycles Used -------------  4 
Starting Wavelength (Angstroms) ---  3331 
Final Wavelength (Angstoms) -------  3351 
Wavelength Increment (Angstroms) --  .25 
Filter Wheel #1 Position ---------- (1) Ground quartz diffuser (ND=2.32)
Filter Wheel #2 Position ---------- 



************************************************************
HL scan start time = 20:57:15
Dark Count =  12.7 


Time (GMT)  Wavelength (Ang)  Step Number  Raw Counts  Counts/Second

 1258.39        3331.00           6809         132.00       520.06
 1258.94        3331.25           6812         152.00       607.25
 1258.97        3331.50           6816         146.00       581.09
 1259.01        3331.75           6820         163.00       655.20
 1259.04        3332.00           6823         150.00       598.53
 1259.07        3332.25           6827         155.00       620.33
 1259.11        3332.50           6831         154.00       615.97
 1259.14        3332.75           6835         136.00       537.50
 1259.17        3333.00           6838         127.00       498.26
 1259.20        3333.25           6842         138.00       546.22
 1259.24        3333.50           6846         141.00       559.30
 1259.27        3333.75           6850         139.00       550.58
 1259.30        3334.00           6853         134.00       528.78
 1259.33        3334.25           6857         132.00       520.06
 1259.37        3334.50           6861         155.00       620.33
 1259.40        3334.75           6864         135.00       533.14
 1259.43        3335.00           6868         138.00       546.22
 1259.47        3335.25           6872         141.00       559.30
 1259.50        3335.50           6876         143.00       568.01
 1259.53        3335.75           6879         155.00       620.33
 1259.56        3336.00           6883         170.00       685.72
 1259.60        3336.25           6887         203.00       829.58
 1259.63        3336.50           6891         261.00      1082.43
 1259.66        3336.75           6894         339.00      1422.48
 1259.69        3337.00           6898         438.00      1854.08
 1259.73        3337.25           6902         496.00      2106.95
 1259.76        3337.50           6905         554.00      2359.82
 1259.79        3337.75           6909         619.00      2643.22
 1259.83        3338.00           6913         694.00      2970.22
 1259.86        3338.25           6917         796.00      3414.96
 1259.89        3338.50           6920         856.00      3676.57
 1259.92        3338.75           6924         962.00      4138.77
 1259.96        3339.00           6928        1053.00      4535.57
 1259.99        3339.25           6932        1076.00      4635.87
 1260.02        3339.50           6935        1182.00      5098.09
 1260.06        3339.75           6939        1235.00      5329.21
 1260.09        3340.00           6943        1306.00      5638.83
 1260.12        3340.25           6947        1387.00      5992.07
 1260.15        3340.50           6950        1457.00      6297.34
 1260.19        3340.75           6954        1508.00      6519.75
 1260.22        3341.00           6958        1547.00      6689.84
 1260.25        3341.25           6961        1578.00      6825.04
 1260.28        3341.50           6965        1549.00      6698.56
 1260.32        3341.75           6969        1516.00      6554.64
 1260.35        3342.00           6973        1462.00      6319.14
 1260.38        3342.25           6976        1388.00      5996.43
 1260.41        3342.50           6980        1296.00      5595.22
 1260.45        3342.75           6984        1263.00      5451.32
 1260.48        3343.00           6988        1183.00      5102.45
 1260.51        3343.25           6991        1110.00      4784.13
 1260.55        3343.50           6995        1002.00      4313.19
 1260.58        3343.75           6999         938.00      4034.12
 1260.61        3344.00           7003         853.00      3663.49
 1260.64        3344.25           7006         802.00      3441.12
 1260.68        3344.50           7010         727.00      3114.10
 1260.71        3344.75           7014         631.00      2695.54
 1260.74        3345.00           7017         561.00      2390.34
 1260.77        3345.25           7021         487.00      2067.71
 1260.81        3345.50           7025         425.00      1797.41
 1260.84        3345.75           7029         339.00      1422.48
 1260.87        3346.00           7032         301.00      1256.81
 1260.91        3346.25           7036         244.00      1008.32
 1260.94        3346.50           7040         173.00       698.80
 1260.97        3346.75           7044         157.00       629.05
 1261.00        3347.00           7047         162.00       650.84
 1261.04        3347.25           7051         142.00       563.66
 1261.07        3347.50           7055         152.00       607.25
 1261.10        3347.75           7059         172.00       694.44
 1261.14        3348.00           7062         167.00       672.64
 1261.17        3348.25           7066         150.00       598.53
 1261.20        3348.50           7070         145.00       576.73
 1261.23        3348.75           7074         152.00       607.25
 1261.27        3349.00           7077         153.00       611.61
 1261.30        3349.25           7081         144.00       572.37
 1261.33        3349.50           7085         138.00       546.22
 1261.37        3349.75           7089         139.00       550.58
 1261.40        3350.00           7092         148.00       589.81
 1261.43        3350.25           7096         163.00       655.20
 1261.46        3350.50           7100         168.00       677.00
 1261.50        3350.75           7104         138.00       546.22
 1261.53        3351.00           7107         153.00       611.61
HL scan finished at 21:02:19
end
