************************************************************
  HL Scan of (1) Internal mercury lamp
************************************************************
Integration time is 0.2294 seconds per sample
dh220619Arenosillo 37.1 6.73 3.25pr1000
************************************************************
Dead Time -------------------------  3.4E-08 
Number of Cycles Used -------------  4 
Starting Wavelength (Angstroms) ---  3331 
Final Wavelength (Angstoms) -------  3351 
Wavelength Increment (Angstroms) --  .25 
Filter Wheel #1 Position ---------- (1) Ground quartz diffuser (ND=2.32)
Filter Wheel #2 Position ---------- 



************************************************************
HL scan start time = 02:26:15
Dark Count =  11.2 


Time (GMT)  Wavelength (Ang)  Step Number  Raw Counts  Counts/Second

  147.39        3331.00           6809         100.00       387.10
  147.94        3331.25           6812         103.00       400.18
  147.98        3331.50           6816         112.00       439.41
  148.01        3331.75           6820         106.00       413.26
  148.04        3332.00           6823         103.00       400.18
  148.07        3332.25           6827         108.00       421.98
  148.11        3332.50           6831         101.00       391.46
  148.14        3332.75           6835          96.00       369.66
  148.17        3333.00           6838         103.00       400.18
  148.20        3333.25           6842         119.00       469.93
  148.24        3333.50           6846         129.00       513.52
  148.27        3333.75           6850          99.00       382.74
  148.30        3334.00           6853         106.00       413.26
  148.34        3334.25           6857         103.00       400.18
  148.37        3334.50           6861         110.00       430.70
  148.40        3334.75           6864         142.00       570.19
  148.43        3335.00           6868         108.00       421.98
  148.47        3335.25           6872         126.00       500.44
  148.50        3335.50           6876         126.00       500.44
  148.53        3335.75           6879         115.00       452.49
  148.56        3336.00           6883         143.00       574.55
  148.60        3336.25           6887         175.00       714.05
  148.63        3336.50           6891         236.00       979.98
  148.66        3336.75           6894         278.00      1163.08
  148.70        3337.00           6898         350.00      1476.97
  148.73        3337.25           6902         414.00      1755.99
  148.76        3337.50           6905         449.00      1908.58
  148.79        3337.75           6909         526.00      2244.29
  148.83        3338.00           6913         575.00      2457.92
  148.86        3338.25           6917         624.00      2671.56
  148.89        3338.50           6920         702.00      3011.64
  148.92        3338.75           6924         765.00      3286.33
  148.96        3339.00           6928         819.00      3521.78
  148.99        3339.25           6932         891.00      3835.72
  149.02        3339.50           6935         931.00      4010.14
  149.06        3339.75           6939         996.00      4293.57
  149.09        3340.00           6943        1091.00      4707.82
  149.12        3340.25           6947        1116.00      4816.83
  149.15        3340.50           6950        1173.00      5065.39
  149.19        3340.75           6954        1220.00      5270.34
  149.22        3341.00           6958        1228.00      5305.23
  149.25        3341.25           6961        1273.00      5501.47
  149.29        3341.50           6965        1259.00      5440.41
  149.32        3341.75           6969        1231.00      5318.31
  149.35        3342.00           6973        1183.00      5109.00
  149.38        3342.25           6976        1117.00      4821.19
  149.42        3342.50           6980        1053.00      4542.11
  149.45        3342.75           6984        1010.00      4354.61
  149.48        3343.00           6988         951.00      4097.35
  149.51        3343.25           6991         890.00      3831.36
  149.55        3343.50           6995         827.00      3556.66
  149.58        3343.75           6999         740.00      3177.33
  149.61        3344.00           7003         702.00      3011.64
  149.65        3344.25           7006         641.00      2745.68
  149.68        3344.50           7010         569.00      2431.76
  149.71        3344.75           7014         490.00      2087.33
  149.74        3345.00           7017         430.00      1825.75
  149.78        3345.25           7021         354.00      1494.41
  149.81        3345.50           7025         296.00      1241.55
  149.84        3345.75           7029         279.00      1167.44
  149.87        3346.00           7032         209.00       862.27
  149.91        3346.25           7036         170.00       692.26
  149.94        3346.50           7040         140.00       561.48
  149.97        3346.75           7044         148.00       596.35
  150.00        3347.00           7047         164.00       666.10
  150.04        3347.25           7051         133.00       530.96
  150.07        3347.50           7055         130.00       517.88
  150.10        3347.75           7059         107.00       417.62
  150.14        3348.00           7062         135.00       539.68
  150.17        3348.25           7066         138.00       552.76
  150.20        3348.50           7070         149.00       600.71
  150.23        3348.75           7074         112.00       439.41
  150.27        3349.00           7077         147.00       591.99
  150.30        3349.25           7081         137.00       548.40
  150.33        3349.50           7085         131.00       522.24
  150.37        3349.75           7089         112.00       439.41
  150.40        3350.00           7092         118.00       465.57
  150.43        3350.25           7096         131.00       522.24
  150.46        3350.50           7100         114.00       448.13
  150.50        3350.75           7104         119.00       469.93
  150.53        3351.00           7107         132.00       526.60
HL scan finished at 02:31:19
end
************************************************************
  HL Scan of (1) Internal mercury lamp
************************************************************
Integration time is 0.2294 seconds per sample
dh220619Arenosillo 37.1 6.73 3.15pr1000
************************************************************
Dead Time -------------------------  3.4E-08 
Number of Cycles Used -------------  4 
Starting Wavelength (Angstroms) ---  3331 
Final Wavelength (Angstoms) -------  3351 
Wavelength Increment (Angstroms) --  .25 
Filter Wheel #1 Position ---------- (1) Ground quartz diffuser (ND=2.32)
Filter Wheel #2 Position ---------- 



************************************************************
HL scan start time = 22:02:08
Dark Count =  11.4 


Time (GMT)  Wavelength (Ang)  Step Number  Raw Counts  Counts/Second

 1323.27        3331.00           6809         109.00       425.46
 1323.82        3331.25           6812         111.00       434.18
 1323.86        3331.50           6816         114.00       447.26
 1323.89        3331.75           6820         142.00       569.32
 1323.92        3332.00           6823         122.00       482.14
 1323.95        3332.25           6827         124.00       490.85
 1323.99        3332.50           6831         130.00       517.01
 1324.02        3332.75           6835         146.00       586.76
 1324.05        3333.00           6838         112.00       438.54
 1324.09        3333.25           6842         116.00       455.98
 1324.12        3333.50           6846         138.00       551.88
 1324.15        3333.75           6850         111.00       434.18
 1324.18        3334.00           6853         107.00       416.75
 1324.22        3334.25           6857         111.00       434.18
 1324.25        3334.50           6861         112.00       438.54
 1324.28        3334.75           6864         111.00       434.18
 1324.31        3335.00           6868         128.00       508.29
 1324.35        3335.25           6872         113.00       442.90
 1324.38        3335.50           6876         112.00       438.54
 1324.41        3335.75           6879         122.00       482.14
 1324.45        3336.00           6883         147.00       591.12
 1324.48        3336.25           6887         198.00       813.45
 1324.51        3336.50           6891         264.00      1101.17
 1324.54        3336.75           6894         299.00      1253.76
 1324.58        3337.00           6898         381.00      1611.25
 1324.61        3337.25           6902         434.00      1842.31
 1324.64        3337.50           6905         477.00      2029.78
 1324.67        3337.75           6909         550.00      2348.05
 1324.71        3338.00           6913         600.00      2566.05
 1324.74        3338.25           6917         658.00      2818.93
 1324.77        3338.50           6920         726.00      3115.41
 1324.81        3338.75           6924         768.00      3298.54
 1324.84        3339.00           6928         822.00      3533.99
 1324.87        3339.25           6932         981.00      4227.29
 1324.90        3339.50           6935         991.00      4270.89
 1324.94        3339.75           6939        1047.00      4515.08
 1324.97        3340.00           6943        1142.00      4929.34
 1325.00        3340.25           6947        1242.00      5365.41
 1325.03        3340.50           6950        1238.00      5347.96
 1325.07        3340.75           6954        1263.00      5456.99
 1325.10        3341.00           6958        1274.00      5504.95
 1325.13        3341.25           6961        1325.00      5727.36
 1325.17        3341.50           6965        1308.00      5653.22
 1325.20        3341.75           6969        1291.00      5579.09
 1325.23        3342.00           6973        1209.00      5221.50
 1325.26        3342.25           6976        1166.00      5033.99
 1325.30        3342.50           6980        1091.00      4706.94
 1325.33        3342.75           6984        1016.00      4379.90
 1325.36        3343.00           6988         979.00      4218.57
 1325.39        3343.25           6991         891.00      3834.85
 1325.43        3343.50           6995         828.00      3560.15
 1325.46        3343.75           6999         801.00      3442.43
 1325.49        3344.00           7003         704.00      3019.49
 1325.53        3344.25           7006         694.00      2975.89
 1325.56        3344.50           7010         621.00      2657.61
 1325.59        3344.75           7014         544.00      2321.89
 1325.62        3345.00           7017         513.00      2186.74
 1325.66        3345.25           7021         412.00      1746.40
 1325.69        3345.50           7025         335.00      1410.70
 1325.72        3345.75           7029         280.00      1170.93
 1325.75        3346.00           7032         258.00      1075.02
 1325.79        3346.25           7036         180.00       734.98
 1325.82        3346.50           7040         171.00       695.74
 1325.85        3346.75           7044         130.00       517.01
 1325.89        3347.00           7047         150.00       604.20
 1325.92        3347.25           7051         125.00       495.21
 1325.95        3347.50           7055         126.00       499.57
 1325.98        3347.75           7059         114.00       447.26
 1326.02        3348.00           7062         112.00       438.54
 1326.05        3348.25           7066         123.00       486.49
 1326.08        3348.50           7070         117.00       460.34
 1326.12        3348.75           7074         128.00       508.29
 1326.15        3349.00           7077         125.00       495.21
 1326.18        3349.25           7081         126.00       499.57
 1326.21        3349.50           7085         126.00       499.57
 1326.25        3349.75           7089         124.00       490.85
 1326.28        3350.00           7092         118.00       464.70
 1326.31        3350.25           7096         144.00       578.04
 1326.34        3350.50           7100         112.00       438.54
 1326.38        3350.75           7104         138.00       551.88
 1326.41        3351.00           7107         112.00       438.54
HL scan finished at 22:07:12
end
