************************************************************
  HL Scan of (1) Internal mercury lamp
************************************************************
Integration time is 0.2294 seconds per sample
dh230619Arenosillo 37.1 6.73 3.09pr1000
************************************************************
Dead Time -------------------------  3.4E-08 
Number of Cycles Used -------------  4 
Starting Wavelength (Angstroms) ---  3331 
Final Wavelength (Angstoms) -------  3351 
Wavelength Increment (Angstroms) --  .25 
Filter Wheel #1 Position ---------- (1) Ground quartz diffuser (ND=2.32)
Filter Wheel #2 Position ---------- 



************************************************************
HL scan start time = 02:26:54
Dark Count =  7.2 


Time (GMT)  Wavelength (Ang)  Step Number  Raw Counts  Counts/Second

  148.04        3331.00           6809         106.00       430.70
  148.59        3331.25           6812         108.00       439.41
  148.62        3331.50           6816         115.00       469.93
  148.65        3331.75           6820         120.00       491.73
  148.68        3332.00           6823         140.00       578.91
  148.72        3332.25           6827         199.00       836.12
  148.75        3332.50           6831         118.00       483.01
  148.78        3332.75           6835         108.00       439.41
  148.81        3333.00           6838         134.00       552.76
  148.85        3333.25           6842         118.00       483.01
  148.88        3333.50           6846         111.00       452.49
  148.91        3333.75           6850         135.00       557.12
  148.95        3334.00           6853         158.00       657.38
  148.98        3334.25           6857         113.00       461.21
  149.01        3334.50           6861         133.00       548.40
  149.04        3334.75           6864         114.00       465.57
  149.08        3335.00           6868         103.00       417.62
  149.11        3335.25           6872         112.00       456.85
  149.14        3335.50           6876         111.00       452.49
  149.18        3335.75           6879         168.00       700.98
  149.21        3336.00           6883         152.00       631.23
  149.24        3336.25           6887         189.00       792.52
  149.27        3336.50           6891         266.00      1128.20
  149.31        3336.75           6894         305.00      1298.23
  149.34        3337.00           6898         361.00      1542.37
  149.37        3337.25           6902         434.00      1860.62
  149.40        3337.50           6905         476.00      2043.73
  149.44        3337.75           6909         566.00      2436.12
  149.47        3338.00           6913         624.00      2689.00
  149.50        3338.25           6917         684.00      2950.60
  149.54        3338.50           6920         731.00      3155.53
  149.57        3338.75           6924         813.00      3513.06
  149.60        3339.00           6928         882.00      3813.92
  149.63        3339.25           6932         990.00      4284.84
  149.67        3339.50           6935         981.00      4245.60
  149.70        3339.75           6939        1031.00      4463.62
  149.73        3340.00           6943        1111.00      4812.47
  149.76        3340.25           6947        1197.00      5187.49
  149.80        3340.50           6950        1246.00      5401.17
  149.83        3340.75           6954        1312.00      5688.98
  149.86        3341.00           6958        1362.00      5907.03
  149.90        3341.25           6961        1363.00      5911.39
  149.93        3341.50           6965        1374.00      5959.36
  149.96        3341.75           6969        1351.00      5859.06
  149.99        3342.00           6973        1269.00      5501.47
  150.03        3342.25           6976        1228.00      5322.67
  150.06        3342.50           6980        1132.00      4904.04
  150.09        3342.75           6984        1080.00      4677.29
  150.12        3343.00           6988         984.00      4258.68
  150.16        3343.25           6991         939.00      4062.46
  150.19        3343.50           6995         897.00      3879.33
  150.22        3343.75           6999         799.00      3452.02
  150.26        3344.00           7003         753.00      3251.45
  150.29        3344.25           7006         698.00      3011.64
  150.32        3344.50           7010         622.00      2680.28
  150.35        3344.75           7014         561.00      2414.32
  150.39        3345.00           7017         481.00      2065.53
  150.42        3345.25           7021         411.00      1760.35
  150.45        3345.50           7025         361.00      1542.37
  150.48        3345.75           7029         298.00      1267.71
  150.52        3346.00           7032         228.00       962.54
  150.55        3346.25           7036         180.00       753.29
  150.58        3346.50           7040         160.00       666.10
  150.62        3346.75           7044         142.00       587.63
  150.65        3347.00           7047         160.00       666.10
  150.68        3347.25           7051         129.00       530.96
  150.71        3347.50           7055         142.00       587.63
  150.75        3347.75           7059         128.00       526.60
  150.78        3348.00           7062         153.00       635.58
  150.81        3348.25           7066         145.00       600.71
  150.85        3348.50           7070         129.00       530.96
  150.88        3348.75           7074         131.00       539.68
  150.91        3349.00           7077         139.00       574.55
  150.94        3349.25           7081         159.00       661.74
  150.98        3349.50           7085         148.00       613.79
  151.01        3349.75           7089         131.00       539.68
  151.04        3350.00           7092         153.00       635.58
  151.07        3350.25           7096         134.00       552.76
  151.11        3350.50           7100         150.00       622.51
  151.14        3350.75           7104         128.00       526.60
  151.17        3351.00           7107         139.00       574.55
HL scan finished at 02:31:58
end
************************************************************
  HL Scan of (1) Internal mercury lamp
************************************************************
Integration time is 0.2294 seconds per sample
dh230619Arenosillo 37.1 6.73 3.15pr1000
************************************************************
Dead Time -------------------------  3.4E-08 
Number of Cycles Used -------------  4 
Starting Wavelength (Angstroms) ---  3331 
Final Wavelength (Angstoms) -------  3351 
Wavelength Increment (Angstroms) --  .25 
Filter Wheel #1 Position ---------- (1) Ground quartz diffuser (ND=2.32)
Filter Wheel #2 Position ---------- 



************************************************************
HL scan start time = 22:02:15
Dark Count =  9.2 


Time (GMT)  Wavelength (Ang)  Step Number  Raw Counts  Counts/Second

 1323.39        3331.00           6809         101.00       400.18
 1323.94        3331.25           6812          99.00       391.46
 1323.98        3331.50           6816         105.00       417.62
 1324.01        3331.75           6820         129.00       522.24
 1324.04        3332.00           6823          96.00       378.38
 1324.07        3332.25           6827         118.00       474.29
 1324.11        3332.50           6831         118.00       474.29
 1324.14        3332.75           6835         107.00       426.34
 1324.17        3333.00           6838         101.00       400.18
 1324.20        3333.25           6842         101.00       400.18
 1324.24        3333.50           6846         130.00       526.60
 1324.27        3333.75           6850         107.00       426.34
 1324.30        3334.00           6853         102.00       404.54
 1324.34        3334.25           6857         103.00       408.90
 1324.37        3334.50           6861         102.00       404.54
 1324.40        3334.75           6864         120.00       483.01
 1324.43        3335.00           6868         139.00       565.83
 1324.47        3335.25           6872         123.00       496.09
 1324.50        3335.50           6876         110.00       439.41
 1324.53        3335.75           6879         134.00       544.04
 1324.57        3336.00           6883         140.00       570.19
 1324.60        3336.25           6887         178.00       735.85
 1324.63        3336.50           6891         241.00      1010.50
 1324.66        3336.75           6894         289.00      1219.75
 1324.70        3337.00           6898         321.00      1359.26
 1324.73        3337.25           6902         423.00      1803.95
 1324.76        3337.50           6905         461.00      1969.62
 1324.79        3337.75           6909         510.00      2183.25
 1324.83        3338.00           6913         601.00      2580.00
 1324.86        3338.25           6917         647.00      2780.56
 1324.89        3338.50           6920         708.00      3046.52
 1324.92        3338.75           6924         791.00      3408.42
 1324.96        3339.00           6928         844.00      3639.51
 1324.99        3339.25           6932         912.00      3936.01
 1325.02        3339.50           6935         980.00      4232.52
 1325.06        3339.75           6939        1057.00      4568.28
 1325.09        3340.00           6943        1071.00      4629.33
 1325.12        3340.25           6947        1176.00      5087.19
 1325.15        3340.50           6950        1200.00      5191.85
 1325.19        3340.75           6954        1228.00      5313.95
 1325.22        3341.00           6958        1282.00      5549.43
 1325.25        3341.25           6961        1245.00      5388.08
 1325.28        3341.50           6965        1278.00      5531.99
 1325.32        3341.75           6969        1254.00      5427.33
 1325.35        3342.00           6973        1188.00      5139.52
 1325.38        3342.25           6976        1154.00      4991.26
 1325.42        3342.50           6980        1059.00      4577.00
 1325.45        3342.75           6984        1060.00      4581.36
 1325.48        3343.00           6988         946.00      4084.26
 1325.51        3343.25           6991         904.00      3901.13
 1325.55        3343.50           6995         861.00      3713.63
 1325.58        3343.75           6999         760.00      3273.25
 1325.61        3344.00           7003         721.00      3103.20
 1325.65        3344.25           7006         654.00      2811.08
 1325.68        3344.50           7010         604.00      2593.08
 1325.71        3344.75           7014         535.00      2292.24
 1325.74        3345.00           7017         482.00      2061.17
 1325.78        3345.25           7021         427.00      1821.39
 1325.81        3345.50           7025         376.00      1599.04
 1325.84        3345.75           7029         281.00      1184.88
 1325.87        3346.00           7032         244.00      1023.58
 1325.91        3346.25           7036         189.00       783.80
 1325.94        3346.50           7040         150.00       613.79
 1325.97        3346.75           7044         115.00       461.21
 1326.01        3347.00           7047         125.00       504.80
 1326.04        3347.25           7051         116.00       465.57
 1326.07        3347.50           7055         136.00       552.76
 1326.10        3347.75           7059         116.00       465.57
 1326.14        3348.00           7062         163.00       670.46
 1326.17        3348.25           7066         111.00       443.77
 1326.20        3348.50           7070         112.00       448.13
 1326.24        3348.75           7074         120.00       483.01
 1326.27        3349.00           7077         121.00       487.37
 1326.30        3349.25           7081         149.00       609.43
 1326.33        3349.50           7085         120.00       483.01
 1326.37        3349.75           7089         113.00       452.49
 1326.40        3350.00           7092         141.00       574.55
 1326.43        3350.25           7096         150.00       613.79
 1326.46        3350.50           7100         138.00       561.48
 1326.50        3350.75           7104         129.00       522.24
 1326.53        3351.00           7107         134.00       544.04
HL scan finished at 22:07:19
end
