************************************************************
  HL Scan of (1) Internal mercury lamp
************************************************************
Integration time is 0.2294 seconds per sample
dh210619Arenosillo 37.1 6.73 3.07pr1000
************************************************************
Dead Time -------------------------  3.4E-08 
Number of Cycles Used -------------  4 
Starting Wavelength (Angstroms) ---  3331 
Final Wavelength (Angstoms) -------  3351 
Wavelength Increment (Angstroms) --  .25 
Filter Wheel #1 Position ---------- (1) Ground quartz diffuser (ND=2.32)
Filter Wheel #2 Position ---------- 



************************************************************
HL scan start time = 02:26:02
Dark Count =  6.9 


Time (GMT)  Wavelength (Ang)  Step Number  Raw Counts  Counts/Second

  147.18        3331.00           6809         108.00       440.72
  147.73        3331.25           6812         125.00       514.83
  147.76        3331.50           6816         108.00       440.72
  147.80        3331.75           6820         106.00       432.00
  147.83        3332.00           6823         111.00       453.80
  147.86        3332.25           6827         106.00       432.00
  147.89        3332.50           6831         112.00       458.16
  147.93        3332.75           6835         102.00       414.57
  147.96        3333.00           6838         109.00       445.08
  147.99        3333.25           6842         107.00       436.36
  148.02        3333.50           6846         110.00       449.44
  148.06        3333.75           6850          94.00       379.69
  148.09        3334.00           6853         123.00       506.11
  148.12        3334.25           6857         113.00       462.52
  148.16        3334.50           6861         118.00       484.31
  148.19        3334.75           6864          98.00       397.13
  148.22        3335.00           6868         146.00       606.38
  148.25        3335.25           6872         125.00       514.83
  148.29        3335.50           6876         114.00       466.88
  148.32        3335.75           6879         151.00       628.17
  148.35        3336.00           6883         160.00       667.41
  148.39        3336.25           6887         196.00       824.35
  148.42        3336.50           6891         246.00      1042.32
  148.45        3336.75           6894         270.00      1146.95
  148.48        3337.00           6898         341.00      1456.48
  148.52        3337.25           6902         415.00      1779.10
  148.55        3337.50           6905         461.00      1979.65
  148.58        3337.75           6909         528.00      2271.75
  148.61        3338.00           6913         596.00      2568.23
  148.65        3338.25           6917         662.00      2855.99
  148.68        3338.50           6920         731.00      3156.83
  148.71        3338.75           6924         756.00      3265.84
  148.75        3339.00           6928         838.00      3623.38
  148.78        3339.25           6932         933.00      4037.61
  148.81        3339.50           6935         954.00      4129.18
  148.84        3339.75           6939        1012.00      4382.08
  148.88        3340.00           6943        1076.00      4661.16
  148.91        3340.25           6947        1124.00      4870.47
  148.94        3340.50           6950        1171.00      5075.42
  148.97        3340.75           6954        1204.00      5219.32
  149.01        3341.00           6958        1277.00      5537.66
  149.04        3341.25           6961        1275.00      5528.94
  149.07        3341.50           6965        1206.00      5228.04
  149.11        3341.75           6969        1230.00      5332.70
  149.14        3342.00           6973        1174.00      5088.50
  149.17        3342.25           6976        1139.00      4935.88
  149.20        3342.50           6980        1035.00      4482.37
  149.24        3342.75           6984        1015.00      4395.16
  149.27        3343.00           6988         955.00      4133.54
  149.30        3343.25           6991         896.00      3876.27
  149.33        3343.50           6995         849.00      3671.34
  149.37        3343.75           6999         743.00      3209.16
  149.40        3344.00           7003         697.00      3008.59
  149.43        3344.25           7006         638.00      2751.35
  149.47        3344.50           7010         586.00      2524.63
  149.50        3344.75           7014         537.00      2310.99
  149.53        3345.00           7017         466.00      2001.44
  149.56        3345.25           7021         401.00      1718.06
  149.60        3345.50           7025         318.00      1356.21
  149.63        3345.75           7029         292.00      1242.86
  149.66        3346.00           7032         238.00      1007.45
  149.69        3346.25           7036         171.00       715.36
  149.73        3346.50           7040         149.00       619.46
  149.76        3346.75           7044         131.00       540.99
  149.79        3347.00           7047         120.00       493.03
  149.83        3347.25           7051         145.00       602.02
  149.86        3347.50           7055         129.00       532.27
  149.89        3347.75           7059         142.00       588.94
  149.92        3348.00           7062         129.00       532.27
  149.96        3348.25           7066         133.00       549.71
  149.99        3348.50           7070         150.00       623.81
  150.02        3348.75           7074         132.00       545.35
  150.05        3349.00           7077         138.00       571.50
  150.09        3349.25           7081         125.00       514.83
  150.12        3349.50           7085         155.00       645.61
  150.15        3349.75           7089         112.00       458.16
  150.19        3350.00           7092         134.00       554.06
  150.22        3350.25           7096         138.00       571.50
  150.25        3350.50           7100         129.00       532.27
  150.28        3350.75           7104         115.00       471.24
  150.32        3351.00           7107         124.00       510.47
HL scan finished at 02:31:06
end
************************************************************
  HL Scan of (1) Internal mercury lamp
************************************************************
Integration time is 0.2294 seconds per sample
dh210619Arenosillo 37.1 6.73 3.27pr1000
************************************************************
Dead Time -------------------------  3.4E-08 
Number of Cycles Used -------------  4 
Starting Wavelength (Angstroms) ---  3331 
Final Wavelength (Angstoms) -------  3351 
Wavelength Increment (Angstroms) --  .25 
Filter Wheel #1 Position ---------- (1) Ground quartz diffuser (ND=2.32)
Filter Wheel #2 Position ---------- 



************************************************************
HL scan start time = 22:05:43
Dark Count =  11.4 


Time (GMT)  Wavelength (Ang)  Step Number  Raw Counts  Counts/Second

 1326.86        3331.00           6809         125.00       495.21
 1327.41        3331.25           6812         138.00       551.88
 1327.45        3331.50           6816         115.00       451.62
 1327.48        3331.75           6820         117.00       460.34
 1327.51        3332.00           6823         158.00       639.07
 1327.54        3332.25           6827         117.00       460.34
 1327.58        3332.50           6831         146.00       586.76
 1327.61        3332.75           6835         116.00       455.98
 1327.64        3333.00           6838         149.00       599.84
 1327.68        3333.25           6842         129.00       512.65
 1327.71        3333.50           6846         141.00       564.96
 1327.74        3333.75           6850         122.00       482.14
 1327.77        3334.00           6853         115.00       451.62
 1327.81        3334.25           6857         116.00       455.98
 1327.84        3334.50           6861         116.00       455.98
 1327.87        3334.75           6864         143.00       573.68
 1327.90        3335.00           6868         121.00       477.78
 1327.94        3335.25           6872         114.00       447.26
 1327.97        3335.50           6876         135.00       538.81
 1328.00        3335.75           6879         156.00       630.35
 1328.04        3336.00           6883         158.00       639.07
 1328.07        3336.25           6887         185.00       756.78
 1328.10        3336.50           6891         270.00      1127.33
 1328.13        3336.75           6894         294.00      1231.96
 1328.17        3337.00           6898         372.00      1572.01
 1328.20        3337.25           6902         421.00      1785.64
 1328.23        3337.50           6905         474.00      2016.70
 1328.26        3337.75           6909         553.00      2361.13
 1328.30        3338.00           6913         621.00      2657.61
 1328.33        3338.25           6917         713.00      3058.73
 1328.36        3338.50           6920         741.00      3180.81
 1328.39        3338.75           6924         828.00      3560.15
 1328.43        3339.00           6928         899.00      3869.73
 1328.46        3339.25           6932         996.00      4292.69
 1328.49        3339.50           6935        1009.00      4349.38
 1328.53        3339.75           6939        1058.00      4563.04
 1328.56        3340.00           6943        1155.00      4986.02
 1328.59        3340.25           6947        1207.00      5212.78
 1328.62        3340.50           6950        1249.00      5395.93
 1328.66        3340.75           6954        1328.00      5740.44
 1328.69        3341.00           6958        1348.00      5827.66
 1328.72        3341.25           6961        1317.00      5692.47
 1328.76        3341.50           6965        1367.00      5910.52
 1328.79        3341.75           6969        1303.00      5631.42
 1328.82        3342.00           6973        1257.00      5430.82
 1328.85        3342.25           6976        1248.00      5391.57
 1328.89        3342.50           6980        1122.00      4842.12
 1328.92        3342.75           6984        1048.00      4519.44
 1328.95        3343.00           6988         995.00      4288.33
 1328.98        3343.25           6991         934.00      4022.35
 1329.02        3343.50           6995         865.00      3721.48
 1329.05        3343.75           6999         815.00      3503.47
 1329.08        3344.00           7003         730.00      3132.85
 1329.12        3344.25           7006         688.00      2949.73
 1329.15        3344.50           7010         609.00      2605.29
 1329.18        3344.75           7014         527.00      2247.77
 1329.21        3345.00           7017         483.00      2055.94
 1329.25        3345.25           7021         430.00      1824.87
 1329.28        3345.50           7025         343.00      1445.58
 1329.31        3345.75           7029         270.00      1127.33
 1329.34        3346.00           7032         238.00       987.83
 1329.38        3346.25           7036         188.00       769.85
 1329.41        3346.50           7040         171.00       695.74
 1329.44        3346.75           7044         147.00       591.12
 1329.48        3347.00           7047         134.00       534.45
 1329.51        3347.25           7051         120.00       473.42
 1329.54        3347.50           7055         143.00       573.68
 1329.57        3347.75           7059         143.00       573.68
 1329.61        3348.00           7062         162.00       656.51
 1329.64        3348.25           7066         157.00       634.71
 1329.67        3348.50           7070         132.00       525.73
 1329.71        3348.75           7074         124.00       490.85
 1329.74        3349.00           7077         128.00       508.29
 1329.77        3349.25           7081         140.00       560.60
 1329.80        3349.50           7085         117.00       460.34
 1329.84        3349.75           7089         128.00       508.29
 1329.87        3350.00           7092         156.00       630.35
 1329.90        3350.25           7096         147.00       591.12
 1329.93        3350.50           7100         133.00       530.09
 1329.97        3350.75           7104         126.00       499.57
 1330.00        3351.00           7107         143.00       573.68
HL scan finished at 22:10:47
end
