************************************************************
  HL Scan of (1) Internal mercury lamp
************************************************************
Integration time is 0.2294 seconds per sample
dh190619Arenosillo 37.1 6.73 3.21pr1000
************************************************************
Dead Time -------------------------  3.4E-08 
Number of Cycles Used -------------  4 
Starting Wavelength (Angstroms) ---  3331 
Final Wavelength (Angstoms) -------  3351 
Wavelength Increment (Angstroms) --  .25 
Filter Wheel #1 Position ---------- (1) Ground quartz diffuser (ND=2.32)
Filter Wheel #2 Position ---------- 



************************************************************
HL scan start time = 02:25:28
Dark Count =  9.7 


Time (GMT)  Wavelength (Ang)  Step Number  Raw Counts  Counts/Second

  146.60        3331.00           6809         104.00       411.08
  147.15        3331.25           6812         121.00       485.19
  147.18        3331.50           6816         122.00       489.55
  147.21        3331.75           6820         115.00       459.03
  147.25        3332.00           6823          99.00       389.28
  147.28        3332.25           6827         101.00       398.00
  147.31        3332.50           6831         102.00       402.36
  147.34        3332.75           6835         108.00       428.52
  147.38        3333.00           6838         108.00       428.52
  147.41        3333.25           6842         127.00       511.34
  147.44        3333.50           6846         117.00       467.75
  147.48        3333.75           6850          95.00       371.84
  147.51        3334.00           6853         105.00       415.44
  147.54        3334.25           6857         106.00       419.80
  147.57        3334.50           6861         126.00       506.98
  147.61        3334.75           6864         120.00       480.83
  147.64        3335.00           6868         127.00       511.34
  147.67        3335.25           6872         103.00       406.72
  147.70        3335.50           6876         108.00       428.52
  147.74        3335.75           6879         118.00       472.11
  147.77        3336.00           6883         133.00       537.50
  147.80        3336.25           6887         182.00       751.11
  147.84        3336.50           6891         229.00       956.00
  147.87        3336.75           6894         282.00      1187.06
  147.90        3337.00           6898         344.00      1457.35
  147.93        3337.25           6902         411.00      1749.45
  147.97        3337.50           6905         484.00      2067.71
  148.00        3337.75           6909         523.00      2237.75
  148.03        3338.00           6913         620.00      2660.66
  148.06        3338.25           6917         682.00      2930.98
  148.10        3338.50           6920         718.00      3087.94
  148.13        3338.75           6924         869.00      3746.34
  148.16        3339.00           6928         861.00      3711.45
  148.19        3339.25           6932         948.00      4090.80
  148.23        3339.50           6935        1021.00      4409.12
  148.26        3339.75           6939        1037.00      4478.89
  148.29        3340.00           6943        1153.00      4984.72
  148.33        3340.25           6947        1185.00      5124.26
  148.36        3340.50           6950        1224.00      5294.33
  148.39        3340.75           6954        1292.00      5590.86
  148.42        3341.00           6958        1316.00      5695.52
  148.46        3341.25           6961        1314.00      5686.80
  148.49        3341.50           6965        1269.00      5490.56
  148.52        3341.75           6969        1269.00      5490.56
  148.56        3342.00           6973        1202.00      5198.39
  148.59        3342.25           6976        1161.00      5019.60
  148.62        3342.50           6980        1137.00      4914.95
  148.65        3342.75           6984        1017.00      4391.68
  148.69        3343.00           6988         960.00      4143.13
  148.72        3343.25           6991         928.00      4003.60
  148.75        3343.50           6995         874.00      3768.14
  148.78        3343.75           6999         802.00      3454.20
  148.82        3344.00           7003         707.00      3039.98
  148.85        3344.25           7006         682.00      2930.98
  148.88        3344.50           7010         603.00      2586.54
  148.92        3344.75           7014         539.00      2307.50
  148.95        3345.00           7017         467.00      1993.60
  148.98        3345.25           7021         425.00      1810.49
  149.01        3345.50           7025         322.00      1361.44
  149.05        3345.75           7029         271.00      1139.10
  149.08        3346.00           7032         236.00       986.52
  149.11        3346.25           7036         189.00       781.63
  149.15        3346.50           7040         149.00       607.25
  149.18        3346.75           7044         139.00       563.66
  149.21        3347.00           7047         123.00       493.91
  149.24        3347.25           7051         138.00       559.30
  149.28        3347.50           7055         112.00       445.95
  149.31        3347.75           7059         143.00       581.09
  149.34        3348.00           7062         122.00       489.55
  149.37        3348.25           7066         136.00       550.58
  149.41        3348.50           7070         119.00       476.47
  149.44        3348.75           7074         126.00       506.98
  149.47        3349.00           7077         162.00       663.92
  149.51        3349.25           7081         134.00       541.86
  149.54        3349.50           7085         131.00       528.78
  149.57        3349.75           7089         104.00       411.08
  149.60        3350.00           7092         133.00       537.50
  149.64        3350.25           7096         107.00       424.16
  149.67        3350.50           7100         139.00       563.66
  149.70        3350.75           7104         129.00       520.06
  149.73        3351.00           7107         143.00       581.09
HL scan finished at 02:30:32
end
************************************************************
  HL Scan of (1) Internal mercury lamp
************************************************************
Integration time is 0.2294 seconds per sample
dh190619Arenosillo 37.1 6.73 3.13pr1000
************************************************************
Dead Time -------------------------  3.4E-08 
Number of Cycles Used -------------  4 
Starting Wavelength (Angstroms) ---  3331 
Final Wavelength (Angstoms) -------  3351 
Wavelength Increment (Angstroms) --  .25 
Filter Wheel #1 Position ---------- (1) Ground quartz diffuser (ND=2.32)
Filter Wheel #2 Position ---------- 



************************************************************
HL scan start time = 22:20:18
Dark Count =  8.100001 


Time (GMT)  Wavelength (Ang)  Step Number  Raw Counts  Counts/Second

 1341.45        3331.00           6809         135.00       553.19
 1342.00        3331.25           6812         117.00       474.72
 1342.03        3331.50           6816         117.00       474.72
 1342.06        3331.75           6820         107.00       431.13
 1342.09        3332.00           6823         124.00       505.24
 1342.13        3332.25           6827         157.00       649.10
 1342.16        3332.50           6831         101.00       404.98
 1342.19        3332.75           6835         105.00       422.41
 1342.22        3333.00           6838          98.00       391.90
 1342.26        3333.25           6842         101.00       404.98
 1342.29        3333.50           6846         104.00       418.05
 1342.32        3333.75           6850         135.00       553.19
 1342.36        3334.00           6853         127.00       518.32
 1342.39        3334.25           6857         108.00       435.49
 1342.42        3334.50           6861         104.00       418.05
 1342.45        3334.75           6864         111.00       448.57
 1342.49        3335.00           6868         114.00       461.65
 1342.52        3335.25           6872         107.00       431.13
 1342.55        3335.50           6876         110.00       444.21
 1342.59        3335.75           6879         153.00       631.66
 1342.62        3336.00           6883         131.00       535.76
 1342.65        3336.25           6887         165.00       683.97
 1342.68        3336.50           6891         217.00       910.66
 1342.72        3336.75           6894         272.00      1150.44
 1342.75        3337.00           6898         325.00      1381.49
 1342.78        3337.25           6902         379.00      1616.92
 1342.81        3337.50           6905         431.00      1843.62
 1342.85        3337.75           6909         496.00      2127.01
 1342.88        3338.00           6913         586.00      2519.40
 1342.91        3338.25           6917         674.00      2903.08
 1342.94        3338.50           6920         683.00      2942.32
 1342.98        3338.75           6924         759.00      3273.69
 1343.01        3339.00           6928         807.00      3482.98
 1343.04        3339.25           6932         919.00      3971.33
 1343.08        3339.50           6935         903.00      3901.56
 1343.11        3339.75           6939         983.00      4250.40
 1343.14        3340.00           6943        1049.00      4538.19
 1343.17        3340.25           6947        1132.00      4900.12
 1343.21        3340.50           6950        1129.00      4887.04
 1343.24        3340.75           6954        1210.00      5240.25
 1343.27        3341.00           6958        1249.00      5410.32
 1343.31        3341.25           6961        1227.00      5314.39
 1343.34        3341.50           6965        1211.00      5244.61
 1343.37        3341.75           6969        1215.00      5262.06
 1343.40        3342.00           6973        1170.00      5065.82
 1343.44        3342.25           6976        1124.00      4865.23
 1343.47        3342.50           6980        1077.00      4660.29
 1343.50        3342.75           6984         987.00      4267.84
 1343.53        3343.00           6988         913.00      3945.17
 1343.57        3343.25           6991         891.00      3849.24
 1343.60        3343.50           6995         817.00      3526.58
 1343.63        3343.75           6999         764.00      3295.49
 1343.67        3344.00           7003         669.00      2881.28
 1343.70        3344.25           7006         641.00      2759.20
 1343.73        3344.50           7010         580.00      2493.24
 1343.76        3344.75           7014         511.00      2192.40
 1343.80        3345.00           7017         459.00      1965.69
 1343.83        3345.25           7021         394.00      1682.31
 1343.86        3345.50           7025         340.00      1446.89
 1343.89        3345.75           7029         269.00      1137.36
 1343.93        3346.00           7032         214.00       897.59
 1343.96        3346.25           7036         177.00       736.29
 1343.99        3346.50           7040         133.00       544.47
 1344.03        3346.75           7044         128.00       522.68
 1344.06        3347.00           7047         153.00       631.66
 1344.09        3347.25           7051         101.00       404.98
 1344.12        3347.50           7055         130.00       531.40
 1344.16        3347.75           7059         133.00       544.47
 1344.19        3348.00           7062         137.00       561.91
 1344.22        3348.25           7066         137.00       561.91
 1344.25        3348.50           7070         107.00       431.13
 1344.29        3348.75           7074         112.00       452.93
 1344.32        3349.00           7077         136.00       557.55
 1344.35        3349.25           7081         125.00       509.60
 1344.39        3349.50           7085         107.00       431.13
 1344.42        3349.75           7089         146.00       601.15
 1344.45        3350.00           7092         158.00       653.46
 1344.48        3350.25           7096         118.00       479.08
 1344.52        3350.50           7100         174.00       723.21
 1344.55        3350.75           7104         132.00       540.11
 1344.58        3351.00           7107         129.00       527.04
HL scan finished at 22:25:22
end
