************************************************************
  HL Scan of (1) Internal mercury lamp
************************************************************
Integration time is 0.2294 seconds per sample
dh230619Arenosillo 37.1 6.73 3.09pr1000
************************************************************
Dead Time -------------------------  3.4E-08 
Number of Cycles Used -------------  4 
Starting Wavelength (Angstroms) ---  3331 
Final Wavelength (Angstoms) -------  3351 
Wavelength Increment (Angstroms) --  .25 
Filter Wheel #1 Position ---------- (1) Ground quartz diffuser (ND=2.32)
Filter Wheel #2 Position ---------- 



************************************************************
HL scan start time = 02:26:54
Dark Count =  7.2 


Time (GMT)  Wavelength (Ang)  Step Number  Raw Counts  Counts/Second

  148.04        3331.00           6809         106.00       430.70
  148.59        3331.25           6812         108.00       439.41
  148.62        3331.50           6816         115.00       469.93
  148.65        3331.75           6820         120.00       491.73
  148.68        3332.00           6823         140.00       578.91
  148.72        3332.25           6827         199.00       836.12
  148.75        3332.50           6831         118.00       483.01
  148.78        3332.75           6835         108.00       439.41
  148.81        3333.00           6838         134.00       552.76
  148.85        3333.25           6842         118.00       483.01
  148.88        3333.50           6846         111.00       452.49
  148.91        3333.75           6850         135.00       557.12
  148.95        3334.00           6853         158.00       657.38
  148.98        3334.25           6857         113.00       461.21
  149.01        3334.50           6861         133.00       548.40
  149.04        3334.75           6864         114.00       465.57
  149.08        3335.00           6868         103.00       417.62
  149.11        3335.25           6872         112.00       456.85
  149.14        3335.50           6876         111.00       452.49
  149.18        3335.75           6879         168.00       700.98
  149.21        3336.00           6883         152.00       631.23
  149.24        3336.25           6887         189.00       792.52
  149.27        3336.50           6891         266.00      1128.20
  149.31        3336.75           6894         305.00      1298.23
  149.34        3337.00           6898         361.00      1542.37
  149.37        3337.25           6902         434.00      1860.62
  149.40        3337.50           6905         476.00      2043.73
  149.44        3337.75           6909         566.00      2436.12
  149.47        3338.00           6913         624.00      2689.00
  149.50        3338.25           6917         684.00      2950.60
  149.54        3338.50           6920         731.00      3155.53
  149.57        3338.75           6924         813.00      3513.06
  149.60        3339.00           6928         882.00      3813.92
  149.63        3339.25           6932         990.00      4284.84
  149.67        3339.50           6935         981.00      4245.60
  149.70        3339.75           6939        1031.00      4463.62
  149.73        3340.00           6943        1111.00      4812.47
  149.76        3340.25           6947        1197.00      5187.49
  149.80        3340.50           6950        1246.00      5401.17
  149.83        3340.75           6954        1312.00      5688.98
  149.86        3341.00           6958        1362.00      5907.03
  149.90        3341.25           6961        1363.00      5911.39
  149.93        3341.50           6965        1374.00      5959.36
  149.96        3341.75           6969        1351.00      5859.06
  149.99        3342.00           6973        1269.00      5501.47
  150.03        3342.25           6976        1228.00      5322.67
  150.06        3342.50           6980        1132.00      4904.04
  150.09        3342.75           6984        1080.00      4677.29
  150.12        3343.00           6988         984.00      4258.68
  150.16        3343.25           6991         939.00      4062.46
  150.19        3343.50           6995         897.00      3879.33
  150.22        3343.75           6999         799.00      3452.02
  150.26        3344.00           7003         753.00      3251.45
  150.29        3344.25           7006         698.00      3011.64
  150.32        3344.50           7010         622.00      2680.28
  150.35        3344.75           7014         561.00      2414.32
  150.39        3345.00           7017         481.00      2065.53
  150.42        3345.25           7021         411.00      1760.35
  150.45        3345.50           7025         361.00      1542.37
  150.48        3345.75           7029         298.00      1267.71
  150.52        3346.00           7032         228.00       962.54
  150.55        3346.25           7036         180.00       753.29
  150.58        3346.50           7040         160.00       666.10
  150.62        3346.75           7044         142.00       587.63
  150.65        3347.00           7047         160.00       666.10
  150.68        3347.25           7051         129.00       530.96
  150.71        3347.50           7055         142.00       587.63
  150.75        3347.75           7059         128.00       526.60
  150.78        3348.00           7062         153.00       635.58
  150.81        3348.25           7066         145.00       600.71
  150.85        3348.50           7070         129.00       530.96
  150.88        3348.75           7074         131.00       539.68
  150.91        3349.00           7077         139.00       574.55
  150.94        3349.25           7081         159.00       661.74
  150.98        3349.50           7085         148.00       613.79
  151.01        3349.75           7089         131.00       539.68
  151.04        3350.00           7092         153.00       635.58
  151.07        3350.25           7096         134.00       552.76
  151.11        3350.50           7100         150.00       622.51
  151.14        3350.75           7104         128.00       526.60
  151.17        3351.00           7107         139.00       574.55
HL scan finished at 02:31:58
end
