************************************************************
  HL Scan of (1) Internal mercury lamp
************************************************************
Integration time is 0.2294 seconds per sample
dh240619Arenosillo 37.1 6.73 3.13pr1000
************************************************************
Dead Time -------------------------  3.4E-08 
Number of Cycles Used -------------  4 
Starting Wavelength (Angstroms) ---  3331 
Final Wavelength (Angstoms) -------  3351 
Wavelength Increment (Angstroms) --  .25 
Filter Wheel #1 Position ---------- (1) Ground quartz diffuser (ND=2.32)
Filter Wheel #2 Position ---------- 



************************************************************
HL scan start time = 02:26:24
Dark Count =  8 


Time (GMT)  Wavelength (Ang)  Step Number  Raw Counts  Counts/Second

  147.54        3331.00           6809         135.00       553.63
  148.09        3331.25           6812         110.00       444.64
  148.12        3331.50           6816         145.00       597.22
  148.16        3331.75           6820         106.00       427.21
  148.19        3332.00           6823         115.00       466.44
  148.22        3332.25           6827         102.00       409.77
  148.26        3332.50           6831         125.00       510.03
  148.29        3332.75           6835         124.00       505.68
  148.32        3333.00           6838         116.00       470.80
  148.35        3333.25           6842         106.00       427.21
  148.39        3333.50           6846         113.00       457.72
  148.42        3333.75           6850         125.00       510.03
  148.45        3334.00           6853         109.00       440.29
  148.48        3334.25           6857         122.00       496.96
  148.52        3334.50           6861         148.00       610.30
  148.55        3334.75           6864         124.00       505.68
  148.58        3335.00           6868         110.00       444.64
  148.62        3335.25           6872         125.00       510.03
  148.65        3335.50           6876         129.00       527.47
  148.68        3335.75           6879         147.00       605.94
  148.71        3336.00           6883         146.00       601.58
  148.75        3336.25           6887         196.00       819.55
  148.78        3336.50           6891         242.00      1020.09
  148.81        3336.75           6894         279.00      1181.39
  148.84        3337.00           6898         336.00      1429.89
  148.88        3337.25           6902         448.00      1918.17
  148.91        3337.50           6905         486.00      2083.84
  148.94        3337.75           6909         520.00      2232.08
  148.98        3338.00           6913         610.00      2624.47
  149.01        3338.25           6917         647.00      2785.79
  149.04        3338.50           6920         691.00      2977.63
  149.07        3338.75           6924         816.00      3522.65
  149.11        3339.00           6928         858.00      3705.79
  149.14        3339.25           6932         919.00      3971.77
  149.17        3339.50           6935         981.00      4242.11
  149.20        3339.75           6939        1037.00      4486.30
  149.24        3340.00           6943        1088.00      4708.69
  149.27        3340.25           6947        1139.00      4931.08
  149.30        3340.50           6950        1206.00      5223.25
  149.34        3340.75           6954        1261.00      5463.09
  149.37        3341.00           6958        1292.00      5598.28
  149.40        3341.25           6961        1307.00      5663.69
  149.43        3341.50           6965        1309.00      5672.41
  149.47        3341.75           6969        1266.00      5484.89
  149.50        3342.00           6973        1228.00      5319.18
  149.53        3342.25           6976        1197.00      5184.00
  149.57        3342.50           6980        1104.00      4778.46
  149.60        3342.75           6984        1011.00      4372.93
  149.63        3343.00           6988         952.00      4115.66
  149.66        3343.25           6991         942.00      4072.05
  149.70        3343.50           6995         837.00      3614.22
  149.73        3343.75           6999         779.00      3361.33
  149.76        3344.00           7003         722.00      3112.80
  149.79        3344.25           7006         659.00      2838.11
  149.83        3344.50           7010         601.00      2585.23
  149.86        3344.75           7014         540.00      2319.28
  149.89        3345.00           7017         470.00      2014.09
  149.93        3345.25           7021         408.00      1743.78
  149.96        3345.50           7025         324.00      1377.57
  149.99        3345.75           7029         279.00      1181.39
  150.02        3346.00           7032         216.00       906.74
  150.06        3346.25           7036         171.00       710.57
  150.09        3346.50           7040         141.00       579.78
  150.12        3346.75           7044         131.00       536.19
  150.15        3347.00           7047         159.00       658.25
  150.19        3347.25           7051         137.00       562.35
  150.22        3347.50           7055         143.00       588.50
  150.25        3347.75           7059         112.00       453.36
  150.28        3348.00           7062         158.00       653.89
  150.32        3348.25           7066         131.00       536.19
  150.35        3348.50           7070         122.00       496.96
  150.38        3348.75           7074         137.00       562.35
  150.42        3349.00           7077         146.00       601.58
  150.45        3349.25           7081         180.00       749.80
  150.48        3349.50           7085         124.00       505.68
  150.51        3349.75           7089         136.00       557.99
  150.55        3350.00           7092         122.00       496.96
  150.58        3350.25           7096         116.00       470.80
  150.61        3350.50           7100         134.00       549.27
  150.65        3350.75           7104         137.00       562.35
  150.68        3351.00           7107         139.00       571.07
HL scan finished at 02:31:28
end
************************************************************
  HL Scan of (1) Internal mercury lamp
************************************************************
Integration time is 0.2294 seconds per sample
dh240619Arenosillo 37.1 6.73 3.31pr1000
************************************************************
Dead Time -------------------------  3.4E-08 
Number of Cycles Used -------------  4 
Starting Wavelength (Angstroms) ---  3331 
Final Wavelength (Angstoms) -------  3351 
Wavelength Increment (Angstroms) --  .25 
Filter Wheel #1 Position ---------- (1) Ground quartz diffuser (ND=2.32)
Filter Wheel #2 Position ---------- 



************************************************************
HL scan start time = 20:57:14
Dark Count =  16.3 


Time (GMT)  Wavelength (Ang)  Step Number  Raw Counts  Counts/Second

 1258.37        3331.00           6809         113.00       421.54
 1258.92        3331.25           6812         116.00       434.62
 1258.96        3331.50           6816         113.00       421.54
 1258.99        3331.75           6820          99.00       360.51
 1259.02        3332.00           6823         129.00       491.29
 1259.05        3332.25           6827         107.00       395.38
 1259.09        3332.50           6831         119.00       447.70
 1259.12        3332.75           6835         130.00       495.65
 1259.15        3333.00           6838         100.00       364.87
 1259.19        3333.25           6842         103.00       377.95
 1259.22        3333.50           6846         107.00       395.38
 1259.25        3333.75           6850         103.00       377.95
 1259.28        3334.00           6853         145.00       561.04
 1259.32        3334.25           6857         101.00       369.23
 1259.35        3334.50           6861         151.00       587.20
 1259.38        3334.75           6864         126.00       478.21
 1259.41        3335.00           6868         136.00       521.81
 1259.45        3335.25           6872         110.00       408.46
 1259.48        3335.50           6876         122.00       460.77
 1259.51        3335.75           6879         135.00       517.45
 1259.55        3336.00           6883         144.00       556.68
 1259.58        3336.25           6887         172.00       678.74
 1259.61        3336.50           6891         222.00       896.71
 1259.64        3336.75           6894         272.00      1114.69
 1259.68        3337.00           6898         334.00      1384.98
 1259.71        3337.25           6902         402.00      1681.44
 1259.74        3337.50           6905         440.00      1847.11
 1259.77        3337.75           6909         496.00      2091.26
 1259.81        3338.00           6913         579.00      2453.13
 1259.84        3338.25           6917         647.00      2749.60
 1259.87        3338.50           6920         669.00      2845.52
 1259.91        3338.75           6924         739.00      3150.73
 1259.94        3339.00           6928         770.00      3285.89
 1259.97        3339.25           6932         857.00      3665.23
 1260.00        3339.50           6935         910.00      3896.33
 1260.04        3339.75           6939        1021.00      4380.34
 1260.07        3340.00           6943        1040.00      4463.19
 1260.10        3340.25           6947        1108.00      4759.71
 1260.14        3340.50           6950        1149.00      4938.49
 1260.17        3340.75           6954        1186.00      5099.84
 1260.20        3341.00           6958        1258.00      5413.81
 1260.23        3341.25           6961        1246.00      5361.48
 1260.27        3341.50           6965        1244.00      5352.76
 1260.30        3341.75           6969        1219.00      5243.74
 1260.33        3342.00           6973        1180.00      5073.67
 1260.36        3342.25           6976        1130.00      4855.64
 1260.40        3342.50           6980        1044.00      4480.63
 1260.43        3342.75           6984         992.00      4253.89
 1260.46        3343.00           6988         917.00      3926.85
 1260.49        3343.25           6991         854.00      3652.15
 1260.53        3343.50           6995         789.00      3368.74
 1260.56        3343.75           6999         762.00      3251.01
 1260.59        3344.00           7003         672.00      2858.60
 1260.63        3344.25           7006         630.00      2675.48
 1260.66        3344.50           7010         541.00      2287.45
 1260.69        3344.75           7014         484.00      2038.94
 1260.72        3345.00           7017         446.00      1873.27
 1260.76        3345.25           7021         364.00      1515.77
 1260.79        3345.50           7025         328.00      1358.83
 1260.82        3345.75           7029         287.00      1180.08
 1260.86        3346.00           7032         201.00       805.17
 1260.89        3346.25           7036         166.00       652.59
 1260.92        3346.50           7040         152.00       591.56
 1260.95        3346.75           7044         116.00       434.62
 1260.99        3347.00           7047         120.00       452.06
 1261.02        3347.25           7051         122.00       460.77
 1261.05        3347.50           7055         116.00       434.62
 1261.08        3347.75           7059         118.00       443.34
 1261.12        3348.00           7062         141.00       543.60
 1261.15        3348.25           7066         121.00       456.42
 1261.18        3348.50           7070         122.00       460.77
 1261.22        3348.75           7074         135.00       517.45
 1261.25        3349.00           7077         113.00       421.54
 1261.28        3349.25           7081         116.00       434.62
 1261.31        3349.50           7085         108.00       399.74
 1261.35        3349.75           7089         116.00       434.62
 1261.38        3350.00           7092         138.00       530.52
 1261.41        3350.25           7096         129.00       491.29
 1261.44        3350.50           7100         121.00       456.42
 1261.48        3350.75           7104         119.00       447.70
 1261.51        3351.00           7107         131.00       500.01
HL scan finished at 21:02:18
end
