************************************************************
  HL Scan of (1) Internal mercury lamp
************************************************************
Integration time is 0.2294 seconds per sample
dh200619Arenosillo 37.1 6.73 3.07pr1000
************************************************************
Dead Time -------------------------  3.4E-08 
Number of Cycles Used -------------  4 
Starting Wavelength (Angstroms) ---  3331 
Final Wavelength (Angstoms) -------  3351 
Wavelength Increment (Angstroms) --  .25 
Filter Wheel #1 Position ---------- (1) Ground quartz diffuser (ND=2.32)
Filter Wheel #2 Position ---------- 



************************************************************
HL scan start time = 02:25:13
Dark Count =  6.1 


Time (GMT)  Wavelength (Ang)  Step Number  Raw Counts  Counts/Second

  146.36        3331.00           6809         126.00       522.68
  146.91        3331.25           6812         139.00       579.35
  146.94        3331.50           6816         101.00       413.69
  146.97        3331.75           6820         112.00       461.65
  147.00        3332.00           6823         149.00       622.94
  147.04        3332.25           6827         119.00       492.16
  147.07        3332.50           6831         114.00       470.37
  147.10        3332.75           6835         128.00       531.40
  147.13        3333.00           6838         122.00       505.24
  147.17        3333.25           6842         116.00       479.08
  147.20        3333.50           6846         126.00       522.68
  147.23        3333.75           6850         111.00       457.29
  147.27        3334.00           6853         114.00       470.37
  147.30        3334.25           6857         100.00       409.33
  147.33        3334.50           6861         106.00       435.49
  147.36        3334.75           6864         121.00       500.88
  147.40        3335.00           6868         108.00       444.21
  147.43        3335.25           6872         142.00       592.43
  147.46        3335.50           6876         104.00       426.77
  147.49        3335.75           6879         139.00       579.35
  147.53        3336.00           6883         151.00       631.66
  147.56        3336.25           6887         180.00       758.08
  147.59        3336.50           6891         240.00      1019.65
  147.63        3336.75           6894         287.00      1224.55
  147.66        3337.00           6898         334.00      1429.45
  147.69        3337.25           6902         428.00      1839.26
  147.72        3337.50           6905         437.00      1878.50
  147.76        3337.75           6909         499.00      2148.81
  147.79        3338.00           6913         562.00      2423.48
  147.82        3338.25           6917         637.00      2750.48
  147.85        3338.50           6920         658.00      2842.04
  147.89        3338.75           6924         771.00      3334.73
  147.92        3339.00           6928         823.00      3561.46
  147.95        3339.25           6932         873.00      3779.47
  147.99        3339.50           6935         960.00      4158.83
  148.02        3339.75           6939        1013.00      4389.93
  148.05        3340.00           6943        1060.00      4594.88
  148.08        3340.25           6947        1121.00      4860.87
  148.12        3340.50           6950        1153.00      5000.41
  148.15        3340.75           6954        1184.00      5135.60
  148.18        3341.00           6958        1225.00      5314.39
  148.21        3341.25           6961        1229.00      5331.83
  148.25        3341.50           6965        1237.00      5366.72
  148.28        3341.75           6969        1232.00      5344.91
  148.31        3342.00           6973        1150.00      4987.33
  148.35        3342.25           6976        1071.00      4642.84
  148.38        3342.50           6980        1054.00      4568.71
  148.41        3342.75           6984         999.00      4328.89
  148.44        3343.00           6988         938.00      4062.90
  148.48        3343.25           6991         876.00      3792.56
  148.51        3343.50           6995         800.00      3461.17
  148.54        3343.75           6999         787.00      3404.49
  148.57        3344.00           7003         695.00      3003.36
  148.61        3344.25           7006         637.00      2750.48
  148.64        3344.50           7010         551.00      2375.52
  148.67        3344.75           7014         539.00      2323.20
  148.71        3345.00           7017         474.00      2039.81
  148.74        3345.25           7021         397.00      1704.11
  148.77        3345.50           7025         351.00      1503.56
  148.80        3345.75           7029         290.00      1237.63
  148.84        3346.00           7032         225.00       954.26
  148.87        3346.25           7036         170.00       714.49
  148.90        3346.50           7040         147.00       614.22
  148.93        3346.75           7044         138.00       574.99
  148.97        3347.00           7047         165.00       692.69
  149.00        3347.25           7051         118.00       487.80
  149.03        3347.50           7055         115.00       474.72
  149.07        3347.75           7059         143.00       596.79
  149.10        3348.00           7062         149.00       622.94
  149.13        3348.25           7066         130.00       540.11
  149.16        3348.50           7070         115.00       474.72
  149.20        3348.75           7074         131.00       544.47
  149.23        3349.00           7077         110.00       452.93
  149.26        3349.25           7081         132.00       548.83
  149.30        3349.50           7085         160.00       670.90
  149.33        3349.75           7089         133.00       553.19
  149.36        3350.00           7092         119.00       492.16
  149.39        3350.25           7096         126.00       522.68
  149.43        3350.50           7100         135.00       561.91
  149.46        3350.75           7104         139.00       579.35
  149.49        3351.00           7107         115.00       474.72
HL scan finished at 02:30:17
end
************************************************************
  HL Scan of (1) Internal mercury lamp
************************************************************
Integration time is 0.2294 seconds per sample
dh200619Arenosillo 37.1 6.73 3.21pr1000
************************************************************
Dead Time -------------------------  3.4E-08 
Number of Cycles Used -------------  4 
Starting Wavelength (Angstroms) ---  3331 
Final Wavelength (Angstoms) -------  3351 
Wavelength Increment (Angstroms) --  .25 
Filter Wheel #1 Position ---------- (1) Ground quartz diffuser (ND=2.32)
Filter Wheel #2 Position ---------- 



************************************************************
HL scan start time = 22:05:47
Dark Count =  9.5 


Time (GMT)  Wavelength (Ang)  Step Number  Raw Counts  Counts/Second

 1326.93        3331.00           6809         133.00       538.37
 1327.48        3331.25           6812         126.00       507.86
 1327.51        3331.50           6816         123.00       494.78
 1327.54        3331.75           6820         133.00       538.37
 1327.57        3332.00           6823         118.00       472.98
 1327.61        3332.25           6827         136.00       551.45
 1327.64        3332.50           6831         137.00       555.81
 1327.67        3332.75           6835         117.00       468.62
 1327.70        3333.00           6838         127.00       512.21
 1327.74        3333.25           6842         112.00       446.82
 1327.77        3333.50           6846         127.00       512.21
 1327.80        3333.75           6850         123.00       494.78
 1327.84        3334.00           6853         157.00       643.00
 1327.87        3334.25           6857         155.00       634.28
 1327.90        3334.50           6861         136.00       551.45
 1327.93        3334.75           6864         110.00       438.11
 1327.97        3335.00           6868         109.00       433.75
 1328.00        3335.25           6872         131.00       529.65
 1328.03        3335.50           6876         174.00       717.11
 1328.07        3335.75           6879         176.00       725.82
 1328.10        3336.00           6883         145.00       590.68
 1328.13        3336.25           6887         189.00       782.50
 1328.16        3336.50           6891         247.00      1035.35
 1328.20        3336.75           6894         296.00      1248.96
 1328.23        3337.00           6898         357.00      1514.90
 1328.26        3337.25           6902         434.00      1850.60
 1328.29        3337.50           6905         482.00      2059.87
 1328.33        3337.75           6909         543.00      2325.82
 1328.36        3338.00           6913         608.00      2609.21
 1328.39        3338.25           6917         697.00      2997.25
 1328.42        3338.50           6920         753.00      3241.42
 1328.46        3338.75           6924         816.00      3516.11
 1328.49        3339.00           6928         895.00      3860.58
 1328.52        3339.25           6932         955.00      4122.20
 1328.56        3339.50           6935        1011.00      4366.39
 1328.59        3339.75           6939        1058.00      4571.33
 1328.62        3340.00           6943        1135.00      4907.10
 1328.65        3340.25           6947        1204.00      5207.98
 1328.69        3340.50           6950        1244.00      5382.42
 1328.72        3340.75           6954        1286.00      5565.57
 1328.75        3341.00           6958        1285.00      5561.21
 1328.79        3341.25           6961        1352.00      5853.39
 1328.82        3341.50           6965        1349.00      5840.31
 1328.85        3341.75           6969        1323.00      5726.92
 1328.88        3342.00           6973        1223.00      5290.84
 1328.92        3342.25           6976        1195.00      5168.74
 1328.95        3342.50           6980        1101.00      4758.83
 1328.98        3342.75           6984        1048.00      4527.72
 1329.02        3343.00           6988         991.00      4279.18
 1329.05        3343.25           6991         941.00      4061.15
 1329.08        3343.50           6995         871.00      3755.93
 1329.11        3343.75           6999         811.00      3494.31
 1329.15        3344.00           7003         741.00      3189.10
 1329.18        3344.25           7006         682.00      2931.85
 1329.21        3344.50           7010         620.00      2661.53
 1329.24        3344.75           7014         555.00      2378.13
 1329.28        3345.00           7017         470.00      2007.55
 1329.31        3345.25           7021         404.00      1719.80
 1329.34        3345.50           7025         347.00      1471.30
 1329.37        3345.75           7029         298.00      1257.68
 1329.41        3346.00           7032         227.00       948.16
 1329.44        3346.25           7036         191.00       791.22
 1329.47        3346.50           7040         151.00       616.84
 1329.51        3346.75           7044         128.00       516.57
 1329.54        3347.00           7047         156.00       638.64
 1329.57        3347.25           7051         156.00       638.64
 1329.60        3347.50           7055         150.00       612.48
 1329.64        3347.75           7059         132.00       534.01
 1329.67        3348.00           7062         120.00       481.70
 1329.70        3348.25           7066         146.00       595.04
 1329.73        3348.50           7070         143.00       581.96
 1329.77        3348.75           7074         117.00       468.62
 1329.80        3349.00           7077         129.00       520.93
 1329.83        3349.25           7081         140.00       568.89
 1329.87        3349.50           7085         150.00       612.48
 1329.90        3349.75           7089         140.00       568.89
 1329.93        3350.00           7092         134.00       542.73
 1329.96        3350.25           7096         145.00       590.68
 1330.00        3350.50           7100         140.00       568.89
 1330.03        3350.75           7104         121.00       486.06
 1330.06        3351.00           7107         128.00       516.57
HL scan finished at 22:10:51
end
