************************************************************
  HL Scan of (1) Internal mercury lamp
************************************************************
Integration time is 0.2294 seconds per sample
dh220619Arenosillo 37.1 6.73 3.25pr1000
************************************************************
Dead Time -------------------------  3.4E-08 
Number of Cycles Used -------------  4 
Starting Wavelength (Angstroms) ---  3331 
Final Wavelength (Angstoms) -------  3351 
Wavelength Increment (Angstroms) --  .25 
Filter Wheel #1 Position ---------- (1) Ground quartz diffuser (ND=2.32)
Filter Wheel #2 Position ---------- 



************************************************************
HL scan start time = 02:26:15
Dark Count =  11.2 


Time (GMT)  Wavelength (Ang)  Step Number  Raw Counts  Counts/Second

  147.39        3331.00           6809         100.00       387.10
  147.94        3331.25           6812         103.00       400.18
  147.98        3331.50           6816         112.00       439.41
  148.01        3331.75           6820         106.00       413.26
  148.04        3332.00           6823         103.00       400.18
  148.07        3332.25           6827         108.00       421.98
  148.11        3332.50           6831         101.00       391.46
  148.14        3332.75           6835          96.00       369.66
  148.17        3333.00           6838         103.00       400.18
  148.20        3333.25           6842         119.00       469.93
  148.24        3333.50           6846         129.00       513.52
  148.27        3333.75           6850          99.00       382.74
  148.30        3334.00           6853         106.00       413.26
  148.34        3334.25           6857         103.00       400.18
  148.37        3334.50           6861         110.00       430.70
  148.40        3334.75           6864         142.00       570.19
  148.43        3335.00           6868         108.00       421.98
  148.47        3335.25           6872         126.00       500.44
  148.50        3335.50           6876         126.00       500.44
  148.53        3335.75           6879         115.00       452.49
  148.56        3336.00           6883         143.00       574.55
  148.60        3336.25           6887         175.00       714.05
  148.63        3336.50           6891         236.00       979.98
  148.66        3336.75           6894         278.00      1163.08
  148.70        3337.00           6898         350.00      1476.97
  148.73        3337.25           6902         414.00      1755.99
  148.76        3337.50           6905         449.00      1908.58
  148.79        3337.75           6909         526.00      2244.29
  148.83        3338.00           6913         575.00      2457.92
  148.86        3338.25           6917         624.00      2671.56
  148.89        3338.50           6920         702.00      3011.64
  148.92        3338.75           6924         765.00      3286.33
  148.96        3339.00           6928         819.00      3521.78
  148.99        3339.25           6932         891.00      3835.72
  149.02        3339.50           6935         931.00      4010.14
  149.06        3339.75           6939         996.00      4293.57
  149.09        3340.00           6943        1091.00      4707.82
  149.12        3340.25           6947        1116.00      4816.83
  149.15        3340.50           6950        1173.00      5065.39
  149.19        3340.75           6954        1220.00      5270.34
  149.22        3341.00           6958        1228.00      5305.23
  149.25        3341.25           6961        1273.00      5501.47
  149.29        3341.50           6965        1259.00      5440.41
  149.32        3341.75           6969        1231.00      5318.31
  149.35        3342.00           6973        1183.00      5109.00
  149.38        3342.25           6976        1117.00      4821.19
  149.42        3342.50           6980        1053.00      4542.11
  149.45        3342.75           6984        1010.00      4354.61
  149.48        3343.00           6988         951.00      4097.35
  149.51        3343.25           6991         890.00      3831.36
  149.55        3343.50           6995         827.00      3556.66
  149.58        3343.75           6999         740.00      3177.33
  149.61        3344.00           7003         702.00      3011.64
  149.65        3344.25           7006         641.00      2745.68
  149.68        3344.50           7010         569.00      2431.76
  149.71        3344.75           7014         490.00      2087.33
  149.74        3345.00           7017         430.00      1825.75
  149.78        3345.25           7021         354.00      1494.41
  149.81        3345.50           7025         296.00      1241.55
  149.84        3345.75           7029         279.00      1167.44
  149.87        3346.00           7032         209.00       862.27
  149.91        3346.25           7036         170.00       692.26
  149.94        3346.50           7040         140.00       561.48
  149.97        3346.75           7044         148.00       596.35
  150.00        3347.00           7047         164.00       666.10
  150.04        3347.25           7051         133.00       530.96
  150.07        3347.50           7055         130.00       517.88
  150.10        3347.75           7059         107.00       417.62
  150.14        3348.00           7062         135.00       539.68
  150.17        3348.25           7066         138.00       552.76
  150.20        3348.50           7070         149.00       600.71
  150.23        3348.75           7074         112.00       439.41
  150.27        3349.00           7077         147.00       591.99
  150.30        3349.25           7081         137.00       548.40
  150.33        3349.50           7085         131.00       522.24
  150.37        3349.75           7089         112.00       439.41
  150.40        3350.00           7092         118.00       465.57
  150.43        3350.25           7096         131.00       522.24
  150.46        3350.50           7100         114.00       448.13
  150.50        3350.75           7104         119.00       469.93
  150.53        3351.00           7107         132.00       526.60
HL scan finished at 02:31:19
end
