************************************************************
  HL Scan of (1) Internal mercury lamp
************************************************************
Integration time is 0.2294 seconds per sample
dh250619Arenosillo 37.1 6.73 3.21pr1000
************************************************************
Dead Time -------------------------  3.4E-08 
Number of Cycles Used -------------  4 
Starting Wavelength (Angstroms) ---  3331 
Final Wavelength (Angstoms) -------  3351 
Wavelength Increment (Angstroms) --  .25 
Filter Wheel #1 Position ---------- (1) Ground quartz diffuser (ND=2.32)
Filter Wheel #2 Position ---------- 



************************************************************
HL scan start time = 02:14:41
Dark Count =  10.3 


Time (GMT)  Wavelength (Ang)  Step Number  Raw Counts  Counts/Second

  135.83        3331.00           6809         134.00       539.24
  136.38        3331.25           6812         105.00       412.82
  136.41        3331.50           6816         112.00       443.34
  136.44        3331.75           6820         128.00       513.09
  136.47        3332.00           6823         129.00       517.45
  136.51        3332.25           6827         102.00       399.74
  136.54        3332.50           6831         110.00       434.62
  136.57        3332.75           6835         109.00       430.26
  136.61        3333.00           6838         114.00       452.06
  136.64        3333.25           6842         132.00       530.52
  136.67        3333.50           6846         107.00       421.54
  136.70        3333.75           6850         126.00       504.37
  136.74        3334.00           6853         109.00       430.26
  136.77        3334.25           6857         104.00       408.46
  136.80        3334.50           6861         149.00       604.63
  136.84        3334.75           6864         130.00       521.81
  136.87        3335.00           6868         119.00       473.85
  136.90        3335.25           6872         123.00       491.29
  136.93        3335.50           6876         157.00       639.51
  136.97        3335.75           6879         122.00       486.93
  137.00        3336.00           6883         150.00       608.99
  137.03        3336.25           6887         187.00       770.29
  137.06        3336.50           6891         236.00       983.90
  137.10        3336.75           6894         312.00      1315.23
  137.13        3337.00           6898         369.00      1563.73
  137.16        3337.25           6902         457.00      1947.38
  137.20        3337.50           6905         484.00      2065.10
  137.23        3337.75           6909         566.00      2422.61
  137.26        3338.00           6913         594.00      2544.68
  137.29        3338.25           6917         682.00      2928.36
  137.33        3338.50           6920         729.00      3133.29
  137.36        3338.75           6924         820.00      3530.07
  137.39        3339.00           6928         877.00      3778.60
  137.42        3339.25           6932         973.00      4197.20
  137.46        3339.50           6935        1002.00      4323.65
  137.49        3339.75           6939        1093.00      4720.46
  137.52        3340.00           6943        1175.00      5078.03
  137.56        3340.25           6947        1253.00      5418.17
  137.59        3340.50           6950        1274.00      5509.75
  137.62        3340.75           6954        1312.00      5675.46
  137.65        3341.00           6958        1316.00      5692.91
  137.69        3341.25           6961        1382.00      5980.73
  137.72        3341.50           6965        1382.00      5980.73
  137.75        3341.75           6969        1295.00      5601.33
  137.78        3342.00           6973        1298.00      5614.41
  137.82        3342.25           6976        1210.00      5230.66
  137.85        3342.50           6980        1168.00      5047.51
  137.88        3342.75           6984        1101.00      4755.35
  137.92        3343.00           6988        1035.00      4467.55
  137.95        3343.25           6991         965.00      4162.32
  137.98        3343.50           6995         886.00      3817.85
  138.01        3343.75           6999         790.00      3399.26
  138.05        3344.00           7003         760.00      3268.45
  138.08        3344.25           7006         670.00      2876.04
  138.11        3344.50           7010         633.00      2714.72
  138.14        3344.75           7014         563.00      2409.53
  138.18        3345.00           7017         488.00      2082.54
  138.21        3345.25           7021         427.00      1816.59
  138.24        3345.50           7025         374.00      1585.53
  138.28        3345.75           7029         285.00      1197.52
  138.31        3346.00           7032         246.00      1027.50
  138.34        3346.25           7036         177.00       726.70
  138.37        3346.50           7040         157.00       639.51
  138.41        3346.75           7044         166.00       678.74
  138.44        3347.00           7047         159.00       648.23
  138.47        3347.25           7051         116.00       460.77
  138.51        3347.50           7055         135.00       543.60
  138.54        3347.75           7059         134.00       539.24
  138.57        3348.00           7062         140.00       565.40
  138.60        3348.25           7066         146.00       591.56
  138.64        3348.50           7070         149.00       604.63
  138.67        3348.75           7074         111.00       438.98
  138.70        3349.00           7077         117.00       465.13
  138.73        3349.25           7081         117.00       465.13
  138.77        3349.50           7085         117.00       465.13
  138.80        3349.75           7089         166.00       678.74
  138.83        3350.00           7092         142.00       574.12
  138.86        3350.25           7096         160.00       652.59
  138.90        3350.50           7100         127.00       508.73
  138.93        3350.75           7104         149.00       604.63
  138.96        3351.00           7107         121.00       482.57
HL scan finished at 02:19:45
end
