************************************************************
  HL Scan of (1) Internal mercury lamp
************************************************************
Integration time is 0.2294 seconds per sample
dh240619Arenosillo 37.1 6.73 3.13pr1000
************************************************************
Dead Time -------------------------  3.4E-08 
Number of Cycles Used -------------  4 
Starting Wavelength (Angstroms) ---  3331 
Final Wavelength (Angstoms) -------  3351 
Wavelength Increment (Angstroms) --  .25 
Filter Wheel #1 Position ---------- (1) Ground quartz diffuser (ND=2.32)
Filter Wheel #2 Position ---------- 



************************************************************
HL scan start time = 02:26:24
Dark Count =  8 


Time (GMT)  Wavelength (Ang)  Step Number  Raw Counts  Counts/Second

  147.54        3331.00           6809         135.00       553.63
  148.09        3331.25           6812         110.00       444.64
  148.12        3331.50           6816         145.00       597.22
  148.16        3331.75           6820         106.00       427.21
  148.19        3332.00           6823         115.00       466.44
  148.22        3332.25           6827         102.00       409.77
  148.26        3332.50           6831         125.00       510.03
  148.29        3332.75           6835         124.00       505.68
  148.32        3333.00           6838         116.00       470.80
  148.35        3333.25           6842         106.00       427.21
  148.39        3333.50           6846         113.00       457.72
  148.42        3333.75           6850         125.00       510.03
  148.45        3334.00           6853         109.00       440.29
  148.48        3334.25           6857         122.00       496.96
  148.52        3334.50           6861         148.00       610.30
  148.55        3334.75           6864         124.00       505.68
  148.58        3335.00           6868         110.00       444.64
  148.62        3335.25           6872         125.00       510.03
  148.65        3335.50           6876         129.00       527.47
  148.68        3335.75           6879         147.00       605.94
  148.71        3336.00           6883         146.00       601.58
  148.75        3336.25           6887         196.00       819.55
  148.78        3336.50           6891         242.00      1020.09
  148.81        3336.75           6894         279.00      1181.39
  148.84        3337.00           6898         336.00      1429.89
  148.88        3337.25           6902         448.00      1918.17
  148.91        3337.50           6905         486.00      2083.84
  148.94        3337.75           6909         520.00      2232.08
  148.98        3338.00           6913         610.00      2624.47
  149.01        3338.25           6917         647.00      2785.79
  149.04        3338.50           6920         691.00      2977.63
  149.07        3338.75           6924         816.00      3522.65
  149.11        3339.00           6928         858.00      3705.79
  149.14        3339.25           6932         919.00      3971.77
  149.17        3339.50           6935         981.00      4242.11
  149.20        3339.75           6939        1037.00      4486.30
  149.24        3340.00           6943        1088.00      4708.69
  149.27        3340.25           6947        1139.00      4931.08
  149.30        3340.50           6950        1206.00      5223.25
  149.34        3340.75           6954        1261.00      5463.09
  149.37        3341.00           6958        1292.00      5598.28
  149.40        3341.25           6961        1307.00      5663.69
  149.43        3341.50           6965        1309.00      5672.41
  149.47        3341.75           6969        1266.00      5484.89
  149.50        3342.00           6973        1228.00      5319.18
  149.53        3342.25           6976        1197.00      5184.00
  149.57        3342.50           6980        1104.00      4778.46
  149.60        3342.75           6984        1011.00      4372.93
  149.63        3343.00           6988         952.00      4115.66
  149.66        3343.25           6991         942.00      4072.05
  149.70        3343.50           6995         837.00      3614.22
  149.73        3343.75           6999         779.00      3361.33
  149.76        3344.00           7003         722.00      3112.80
  149.79        3344.25           7006         659.00      2838.11
  149.83        3344.50           7010         601.00      2585.23
  149.86        3344.75           7014         540.00      2319.28
  149.89        3345.00           7017         470.00      2014.09
  149.93        3345.25           7021         408.00      1743.78
  149.96        3345.50           7025         324.00      1377.57
  149.99        3345.75           7029         279.00      1181.39
  150.02        3346.00           7032         216.00       906.74
  150.06        3346.25           7036         171.00       710.57
  150.09        3346.50           7040         141.00       579.78
  150.12        3346.75           7044         131.00       536.19
  150.15        3347.00           7047         159.00       658.25
  150.19        3347.25           7051         137.00       562.35
  150.22        3347.50           7055         143.00       588.50
  150.25        3347.75           7059         112.00       453.36
  150.28        3348.00           7062         158.00       653.89
  150.32        3348.25           7066         131.00       536.19
  150.35        3348.50           7070         122.00       496.96
  150.38        3348.75           7074         137.00       562.35
  150.42        3349.00           7077         146.00       601.58
  150.45        3349.25           7081         180.00       749.80
  150.48        3349.50           7085         124.00       505.68
  150.51        3349.75           7089         136.00       557.99
  150.55        3350.00           7092         122.00       496.96
  150.58        3350.25           7096         116.00       470.80
  150.61        3350.50           7100         134.00       549.27
  150.65        3350.75           7104         137.00       562.35
  150.68        3351.00           7107         139.00       571.07
HL scan finished at 02:31:28
end
