************************************************************
  HS Scan of (1) Internal mercury lamp
************************************************************
Integration time is 0.2294 seconds per sample
dh060117Madrid 40.45 3.717 2.13pr940
************************************************************
Dead Time -------------------------  3.1E-08 
Number of Cycles Used -------------  4 
Starting Wavelength (Angstroms) ---  2950 
Final Wavelength (Angstoms) -------  2984 
Wavelength Increment (Angstroms) --  .25 
Filter Wheel #1 Position ---------- (1) Ground quartz diffuser (ND=2.32)
Filter Wheel #2 Position ---------- (1) Neutral Density 0.494



************************************************************
HS scan start time = 00:56:33
Dark Count =  .2 


Time (GMT)  Wavelength (Ang)  Step Number  Raw Counts  Counts/Second

   57.27        2950.00           1408         148.00       644.30
   57.41        2950.25           1412         162.00       705.33
   57.44        2950.50           1415         154.00       670.46
   57.47        2950.75           1418         157.00       683.54
   57.50        2951.00           1422         149.00       648.66
   57.54        2951.25           1425         154.00       670.46
   57.57        2951.50           1428         149.00       648.66
   57.60        2951.75           1432         161.00       700.97
   57.63        2952.00           1435         152.00       661.74
   57.66        2952.25           1439         166.00       722.77
   57.70        2952.50           1442         154.00       670.46
   57.73        2952.75           1445         177.00       770.72
   57.76        2953.00           1449         154.00       670.46
   57.79        2953.25           1452         152.00       661.74
   57.83        2953.50           1456         156.00       679.18
   57.86        2953.75           1459         165.00       718.41
   57.89        2954.00           1462         146.00       635.58
   57.92        2954.25           1466         171.00       744.57
   57.95        2954.50           1469         166.00       722.77
   57.99        2954.75           1472         154.00       670.46
   58.02        2955.00           1476         176.00       766.37
   58.05        2955.25           1479         168.00       731.49
   58.08        2955.50           1483         171.00       744.57
   58.11        2955.75           1486         168.00       731.49
   58.15        2956.00           1489         171.00       744.57
   58.18        2956.25           1493         175.00       762.01
   58.21        2956.50           1496         183.00       796.88
   58.24        2956.75           1499         175.00       762.01
   58.27        2957.00           1503         166.00       722.77
   58.31        2957.25           1506         185.00       805.60
   58.34        2957.50           1510         172.00       748.93
   58.37        2957.75           1513         170.00       740.21
   58.40        2958.00           1516         186.00       809.96
   58.43        2958.25           1520         184.00       801.24
   58.47        2958.50           1523         177.00       770.72
   58.50        2958.75           1527         196.00       853.55
   58.53        2959.00           1530         190.00       827.40
   58.56        2959.25           1533         201.00       875.35
   58.59        2959.50           1537         181.00       788.16
   58.63        2959.75           1540         180.00       783.80
   58.66        2960.00           1544         196.00       853.55
   58.69        2960.25           1547         194.00       844.83
   58.72        2960.50           1550         196.00       853.55
   58.76        2960.75           1554         246.00      1071.53
   58.79        2961.00           1557         204.00       888.43
   58.82        2961.25           1560         265.00      1154.36
   58.85        2961.50           1564         557.00      2427.38
   58.88        2961.75           1567        1139.00      4965.02
   58.92        2962.00           1571        3100.00     13518.31
   58.95        2962.25           1574        4666.00     20351.98
   58.98        2962.50           1577        6525.00     28468.01
   59.01        2962.75           1581        9234.00     40302.28
   59.05        2963.00           1584       11019.00     48104.82
   59.08        2963.25           1588       13572.00     59270.97
   59.11        2963.50           1591       15571.00     68019.48
   59.14        2963.75           1594       17572.00     76781.51
   59.17        2964.00           1598       20846.00     91128.05
   59.21        2964.25           1601       22972.00    100450.90
   59.24        2964.50           1605       25878.00    113203.00
   59.27        2964.75           1608       28111.00    123008.70
   59.30        2965.00           1611       29994.00    131282.10
   59.33        2965.25           1615       32905.00    144080.70
   59.37        2965.50           1618       35110.00    153782.00
   59.40        2965.75           1621       37037.00    162264.90
   59.43        2966.00           1625       39392.00    172638.10
   59.46        2966.25           1628       41120.00    180253.80
   59.50        2966.50           1632       43418.00    190387.20
   59.53        2966.75           1635       44605.00    195623.90
   59.56        2967.00           1638       45422.00    199229.30
   59.59        2967.25           1642       45233.00    198395.20
   59.62        2967.50           1645       45534.00    199723.60
   59.66        2967.75           1649       45111.00    197856.80
   59.69        2968.00           1652       44368.00    194578.20
   59.72        2968.25           1655       43331.00    190003.40
   59.75        2968.50           1659       41023.00    179826.20
   59.78        2968.75           1662       38697.00    169576.10
   59.82        2969.00           1666       36150.00    158359.60
   59.85        2969.25           1669       34147.00    149544.40
   59.88        2969.50           1672       32115.00    140606.30
   59.91        2969.75           1676       29293.00    128201.60
   59.94        2970.00           1679       27373.00    119767.30
   59.98        2970.25           1683       25001.00    109353.50
   60.01        2970.50           1686       23024.00    100679.00
   60.04        2970.75           1689       20964.00     91645.35
   60.07        2971.00           1693       18409.00     80447.99
   60.10        2971.25           1696       16153.00     70567.46
   60.14        2971.50           1700       13289.00     58032.82
   60.17        2971.75           1703       11194.00     48869.97
   60.20        2972.00           1706        9010.00     39323.41
   60.23        2972.25           1710        6239.00     27219.12
   60.26        2972.50           1713        4374.00     19077.54
   60.30        2972.75           1717        2023.00      8820.20
   60.33        2973.00           1720         919.00      4005.73
   60.36        2973.25           1723         367.00      1599.03
   60.39        2973.50           1727         220.00       958.18
   60.42        2973.75           1730         206.00       897.15
   60.46        2974.00           1734         200.00       870.99
   60.49        2974.25           1737         207.00       901.51
   60.52        2974.50           1740         196.00       853.55
   60.55        2974.75           1744         189.00       823.04
   60.59        2975.00           1747         172.00       748.93
   60.62        2975.25           1751         184.00       801.24
   60.65        2975.50           1754         191.00       831.76
   60.68        2975.75           1757         180.00       783.80
   60.71        2976.00           1761         171.00       744.57
   60.75        2976.25           1764         161.00       700.97
   60.78        2976.50           1768         166.00       722.77
   60.81        2976.75           1771         168.00       731.49
   60.84        2977.00           1774         169.00       735.85
   60.87        2977.25           1778         173.00       753.29
   60.91        2977.50           1781         167.00       727.13
   60.94        2977.75           1785         165.00       718.41
   60.97        2978.00           1788         163.00       709.69
   61.00        2978.25           1791         159.00       692.26
   61.03        2978.50           1795         156.00       679.18
   61.06        2978.75           1798         153.00       666.10
   61.10        2979.00           1802         146.00       635.58
   61.13        2979.25           1805         151.00       657.38
   61.16        2979.50           1808         151.00       657.38
   61.19        2979.75           1812         153.00       666.10
   61.23        2980.00           1815         150.00       653.02
   61.26        2980.25           1819         165.00       718.41
   61.29        2980.50           1822         154.00       670.46
   61.32        2980.75           1825         148.00       644.30
   61.35        2981.00           1829         164.00       714.05
   61.39        2981.25           1832         150.00       653.02
   61.42        2981.50           1836         149.00       648.66
   61.45        2981.75           1839         152.00       661.74
   61.48        2982.00           1842         157.00       683.54
   61.51        2982.25           1846         162.00       705.33
   61.55        2982.50           1849         142.00       618.15
   61.58        2982.75           1853         144.00       626.86
   61.61        2983.00           1856         142.00       618.15
   61.64        2983.25           1859         147.00       639.94
   61.67        2983.50           1863         146.00       635.58
   61.71        2983.75           1866         146.00       635.58
   61.74        2984.00           1870         135.00       587.63
HS scan finished at 01:01:58
end
