************************************************************
  HS Scan of (1) Internal mercury lamp
************************************************************
Integration time is 0.2294 seconds per sample
dh130117Madrid 40.45 3.717 2.49pr940
************************************************************
Dead Time -------------------------  3.1E-08 
Number of Cycles Used -------------  4 
Starting Wavelength (Angstroms) ---  2950 
Final Wavelength (Angstoms) -------  2984 
Wavelength Increment (Angstroms) --  .25 
Filter Wheel #1 Position ---------- (1) Ground quartz diffuser (ND=2.32)
Filter Wheel #2 Position ---------- (1) Neutral Density 0.494



************************************************************
HS scan start time = 00:59:26
Dark Count =  .9 


Time (GMT)  Wavelength (Ang)  Step Number  Raw Counts  Counts/Second

   60.16        2950.00           1408         155.00       671.77
   60.30        2950.25           1412         150.00       649.97
   60.33        2950.50           1415         151.00       654.33
   60.36        2950.75           1418         155.00       671.77
   60.40        2951.00           1422         167.00       724.08
   60.43        2951.25           1425         157.00       680.49
   60.46        2951.50           1428         164.00       711.00
   60.49        2951.75           1432         147.00       636.89
   60.52        2952.00           1435         148.00       641.25
   60.55        2952.25           1439         146.00       632.53
   60.59        2952.50           1442         160.00       693.56
   60.62        2952.75           1445         151.00       654.33
   60.65        2953.00           1449         168.00       728.44
   60.68        2953.25           1452         146.00       632.53
   60.72        2953.50           1456         161.00       697.92
   60.75        2953.75           1459         154.00       667.41
   60.78        2954.00           1462         157.00       680.49
   60.81        2954.25           1466         165.00       715.36
   60.84        2954.50           1469         167.00       724.08
   60.88        2954.75           1472         162.00       702.28
   60.91        2955.00           1476         158.00       684.84
   60.94        2955.25           1479         170.00       737.16
   60.97        2955.50           1483         165.00       715.36
   61.01        2955.75           1486         167.00       724.08
   61.04        2956.00           1489         160.00       693.56
   61.07        2956.25           1493         171.00       741.52
   61.10        2956.50           1496         165.00       715.36
   61.14        2956.75           1499         176.00       763.31
   61.17        2957.00           1503         171.00       741.52
   61.20        2957.25           1506         170.00       737.16
   61.23        2957.50           1510         172.00       745.88
   61.26        2957.75           1513         181.00       785.11
   61.30        2958.00           1516         187.00       811.27
   61.33        2958.25           1520         170.00       737.16
   61.36        2958.50           1523         171.00       741.52
   61.39        2958.75           1527         186.00       806.91
   61.42        2959.00           1530         198.00       859.22
   61.46        2959.25           1533         186.00       806.91
   61.49        2959.50           1537         191.00       828.70
   61.52        2959.75           1540         186.00       806.91
   61.55        2960.00           1544         199.00       863.58
   61.58        2960.25           1547         210.00       911.53
   61.62        2960.50           1550         209.00       907.17
   61.65        2960.75           1554         213.00       924.61
   61.68        2961.00           1557         265.00      1151.31
   61.71        2961.25           1560         323.00      1404.16
   61.75        2961.50           1564         851.00      3706.18
   61.78        2961.75           1567        1696.00      7390.97
   61.81        2962.00           1571        4139.00     18048.89
   61.84        2962.25           1574        6123.00     26709.56
   61.88        2962.50           1577        8136.00     35501.56
   61.91        2962.75           1581       11064.00     48298.50
   61.94        2963.00           1584       13220.00     57727.89
   61.97        2963.25           1588       15992.00     69859.50
   62.01        2963.50           1591       18416.00     80475.58
   62.04        2963.75           1594       20994.00     91773.80
   62.07        2964.00           1598       24524.00    107257.10
   62.10        2964.25           1601       26813.00    117305.10
   62.13        2964.50           1605       30125.00    131854.80
   62.17        2964.75           1608       32600.00    142736.10
   62.20        2965.00           1611       34908.00    152889.90
   62.23        2965.25           1615       37785.00    165555.90
   62.26        2965.50           1618       40295.00    176614.30
   62.29        2965.75           1621       42537.00    186498.40
   62.33        2966.00           1625       45445.00    199327.70
   62.36        2966.25           1628       47516.00    208470.70
   62.39        2966.50           1632       49998.00    219434.90
   62.42        2966.75           1635       51153.00    224539.70
   62.45        2967.00           1638       51786.00    227338.00
   62.49        2967.25           1642       51948.00    228054.30
   62.52        2967.50           1645       51859.00    227660.80
   62.55        2967.75           1649       51441.00    225812.80
   62.58        2968.00           1652       50538.00    221821.40
   62.62        2968.25           1655       49043.00    215215.30
   62.65        2968.50           1659       46171.00    202532.20
   62.68        2968.75           1662       43544.00    190939.90
   62.71        2969.00           1666       40596.00    177940.90
   62.75        2969.25           1669       37952.00    166291.40
   62.78        2969.50           1672       35194.00    154148.60
   62.81        2969.75           1676       32562.00    142569.00
   62.84        2970.00           1679       30493.00    133472.20
   62.87        2970.25           1683       27645.00    120958.80
   62.91        2970.50           1686       25307.00    110693.50
   62.94        2970.75           1689       23099.00    101005.00
   62.97        2971.00           1693       20072.00     87732.19
   63.00        2971.25           1696       17819.00     77860.33
   63.03        2971.50           1700       14596.00     63748.79
   63.07        2971.75           1703       12211.00     53314.29
   63.10        2972.00           1706        9733.00     42480.05
   63.13        2972.25           1710        6329.00     27609.06
   63.16        2972.50           1713        4167.00     18171.09
   63.19        2972.75           1717        1841.00      8023.36
   63.23        2973.00           1720         758.00      3300.69
   63.26        2973.25           1723         329.00      1430.32
   63.29        2973.50           1727         229.00       994.36
   63.32        2973.75           1730         211.00       915.89
   63.35        2974.00           1734         193.00       837.42
   63.39        2974.25           1737         186.00       806.91
   63.42        2974.50           1740         194.00       841.78
   63.45        2974.75           1744         192.00       833.06
   63.48        2975.00           1747         186.00       806.91
   63.52        2975.25           1751         189.00       819.99
   63.55        2975.50           1754         186.00       806.91
   63.58        2975.75           1757         190.00       824.35
   63.61        2976.00           1761         180.00       780.75
   63.64        2976.25           1764         168.00       728.44
   63.68        2976.50           1768         171.00       741.52
   63.71        2976.75           1771         170.00       737.16
   63.74        2977.00           1774         177.00       767.67
   63.77        2977.25           1778         172.00       745.88
   63.81        2977.50           1781         170.00       737.16
   63.84        2977.75           1785         168.00       728.44
   63.87        2978.00           1788         164.00       711.00
   63.90        2978.25           1791         156.00       676.13
   63.93        2978.50           1795         159.00       689.20
   63.97        2978.75           1798         169.00       732.80
   64.00        2979.00           1802         161.00       697.92
   64.03        2979.25           1805         152.00       658.69
   64.06        2979.50           1808         159.00       689.20
   64.09        2979.75           1812         156.00       676.13
   64.13        2980.00           1815         152.00       658.69
   64.16        2980.25           1819         154.00       667.41
   64.19        2980.50           1822         150.00       649.97
   64.22        2980.75           1825         167.00       724.08
   64.26        2981.00           1829         157.00       680.49
   64.29        2981.25           1832         165.00       715.36
   64.32        2981.50           1836         141.00       610.74
   64.35        2981.75           1839         138.00       597.66
   64.38        2982.00           1842         156.00       676.13
   64.42        2982.25           1846         143.00       619.45
   64.45        2982.50           1849         153.00       663.05
   64.48        2982.75           1853         140.00       606.38
   64.52        2983.00           1856         146.00       632.53
   64.55        2983.25           1859         157.00       680.49
   64.58        2983.50           1863         164.00       711.00
   64.61        2983.75           1866         137.00       593.30
   64.64        2984.00           1870         142.00       615.09
HS scan finished at 01:04:52
end
