************************************************************
  HS Scan of (1) Internal mercury lamp
************************************************************
Integration time is 0.2294 seconds per sample
dh200117Madrid 40.45 3.717 2.23pr940
************************************************************
Dead Time -------------------------  3.1E-08 
Number of Cycles Used -------------  4 
Starting Wavelength (Angstroms) ---  2950 
Final Wavelength (Angstoms) -------  2984 
Wavelength Increment (Angstroms) --  .25 
Filter Wheel #1 Position ---------- (1) Ground quartz diffuser (ND=2.32)
Filter Wheel #2 Position ---------- (1) Neutral Density 0.494



************************************************************
HS scan start time = 01:03:11
Dark Count =  .6 


Time (GMT)  Wavelength (Ang)  Step Number  Raw Counts  Counts/Second

   63.91        2950.00           1408         165.00       716.67
   64.05        2950.25           1412         162.00       703.59
   64.08        2950.50           1415         162.00       703.59
   64.12        2950.75           1418         151.00       655.64
   64.15        2951.00           1422         160.00       694.87
   64.18        2951.25           1425         166.00       721.03
   64.21        2951.50           1428         157.00       681.79
   64.24        2951.75           1432         162.00       703.59
   64.28        2952.00           1435         166.00       721.03
   64.31        2952.25           1439         172.00       747.18
   64.34        2952.50           1442         157.00       681.79
   64.37        2952.75           1445         171.00       742.82
   64.40        2953.00           1449         172.00       747.18
   64.44        2953.25           1452         154.00       668.71
   64.47        2953.50           1456         162.00       703.59
   64.50        2953.75           1459         166.00       721.03
   64.53        2954.00           1462         184.00       799.50
   64.56        2954.25           1466         172.00       747.18
   64.59        2954.50           1469         175.00       760.26
   64.63        2954.75           1472         176.00       764.62
   64.66        2955.00           1476         163.00       707.95
   64.69        2955.25           1479         167.00       725.39
   64.72        2955.50           1483         182.00       790.78
   64.76        2955.75           1486         185.00       803.86
   64.79        2956.00           1489         185.00       803.86
   64.82        2956.25           1493         173.00       751.54
   64.85        2956.50           1496         171.00       742.82
   64.88        2956.75           1499         168.00       729.75
   64.92        2957.00           1503         182.00       790.78
   64.95        2957.25           1506         188.00       816.93
   64.98        2957.50           1510         179.00       777.70
   65.01        2957.75           1513         190.00       825.65
   65.04        2958.00           1516         180.00       782.06
   65.08        2958.25           1520         191.00       830.01
   65.11        2958.50           1523         196.00       851.81
   65.14        2958.75           1527         193.00       838.73
   65.17        2959.00           1530         200.00       869.25
   65.20        2959.25           1533         202.00       877.97
   65.24        2959.50           1537         201.00       873.61
   65.27        2959.75           1540         201.00       873.61
   65.30        2960.00           1544         200.00       869.25
   65.33        2960.25           1547         206.00       895.40
   65.37        2960.50           1550         229.00       995.67
   65.40        2960.75           1554         223.00       969.51
   65.43        2961.00           1557         257.00      1117.74
   65.46        2961.25           1560         325.00      1414.19
   65.49        2961.50           1564         804.00      3502.56
   65.52        2961.75           1567        1685.00      7344.31
   65.56        2962.00           1571        3883.00     16933.04
   65.59        2962.25           1574        5867.00     25593.10
   65.62        2962.50           1577        7931.00     34607.29
   65.65        2962.75           1581       10544.00     46026.40
   65.69        2963.00           1584       12386.00     54081.01
   65.72        2963.25           1588       15312.00     66883.96
   65.75        2963.50           1591       17518.00     76543.23
   65.78        2963.75           1594       19916.00     87049.77
   65.81        2964.00           1598       23462.00    102598.70
   65.85        2964.25           1601       25896.00    113280.30
   65.88        2964.50           1605       28931.00    126609.30
   65.91        2964.75           1608       31379.00    137368.40
   65.95        2965.00           1611       33713.00    147633.10
   65.98        2965.25           1615       36115.00    158203.80
   66.01        2965.50           1618       38643.00    169336.40
   66.04        2965.75           1621       40696.00    178383.00
   66.08        2966.00           1625       43290.00    189820.80
   66.11        2966.25           1628       45229.00    198375.80
   66.14        2966.50           1632       47531.00    208538.20
   66.17        2966.75           1635       48579.00    213166.90
   66.20        2967.00           1638       49144.00    215662.80
   66.24        2967.25           1642       49069.00    215331.50
   66.27        2967.50           1645       49137.00    215631.90
   66.30        2967.75           1649       48593.00    213228.70
   66.33        2968.00           1652       47918.00    210247.30
   66.37        2968.25           1655       46149.00    202436.40
   66.40        2968.50           1659       43377.00    190204.50
   66.43        2968.75           1662       41095.00    180141.80
   66.46        2969.00           1666       38194.00    167358.60
   66.49        2969.25           1669       36192.00    158542.80
   66.53        2969.50           1672       33845.00    148213.90
   66.56        2969.75           1676       30753.00    134616.40
   66.59        2970.00           1679       28804.00    126051.30
   66.62        2970.25           1683       26430.00    115624.70
   66.65        2970.50           1686       24130.00    105529.50
   66.69        2970.75           1689       21870.00     95616.05
   66.72        2971.00           1693       19052.00     83263.46
   66.75        2971.25           1696       16844.00     73591.41
   66.78        2971.50           1700       13719.00     59912.40
   66.81        2971.75           1703       11307.00     49362.32
   66.85        2972.00           1706        9188.00     40099.52
   66.88        2972.25           1710        6181.00     26964.12
   66.91        2972.50           1713        3989.00     17395.60
   66.94        2972.75           1717        1806.00      7872.02
   66.97        2973.00           1720         758.00      3301.99
   67.01        2973.25           1723         353.00      1536.25
   67.04        2973.50           1727         216.00       939.00
   67.07        2973.75           1730         213.00       925.92
   67.10        2974.00           1734         210.00       912.84
   67.13        2974.25           1737         200.00       869.25
   67.17        2974.50           1740         212.00       921.56
   67.20        2974.75           1744         186.00       808.22
   67.23        2975.00           1747         186.00       808.22
   67.26        2975.25           1751         190.00       825.65
   67.29        2975.50           1754         199.00       864.89
   67.33        2975.75           1757         180.00       782.06
   67.36        2976.00           1761         166.00       721.03
   67.39        2976.25           1764         175.00       760.26
   67.42        2976.50           1768         180.00       782.06
   67.46        2976.75           1771         173.00       751.54
   67.49        2977.00           1774         178.00       773.34
   67.52        2977.25           1778         176.00       764.62
   67.55        2977.50           1781         169.00       734.11
   67.58        2977.75           1785         169.00       734.11
   67.62        2978.00           1788         161.00       699.23
   67.65        2978.25           1791         165.00       716.67
   67.68        2978.50           1795         167.00       725.39
   67.71        2978.75           1798         172.00       747.18
   67.74        2979.00           1802         165.00       716.67
   67.78        2979.25           1805         163.00       707.95
   67.81        2979.50           1808         159.00       690.51
   67.84        2979.75           1812         152.00       660.00
   67.87        2980.00           1815         165.00       716.67
   67.90        2980.25           1819         161.00       699.23
   67.94        2980.50           1822         160.00       694.87
   67.97        2980.75           1825         154.00       668.71
   68.00        2981.00           1829         157.00       681.79
   68.03        2981.25           1832         168.00       729.75
   68.06        2981.50           1836         155.00       673.07
   68.10        2981.75           1839         169.00       734.11
   68.13        2982.00           1842         148.00       642.56
   68.16        2982.25           1846         142.00       616.40
   68.19        2982.50           1849         141.00       612.04
   68.22        2982.75           1853         146.00       633.84
   68.26        2983.00           1856         146.00       633.84
   68.29        2983.25           1859         160.00       694.87
   68.32        2983.50           1863         156.00       677.43
   68.35        2983.75           1866         152.00       660.00
   68.38        2984.00           1870         155.00       673.07
HS scan finished at 01:08:37
end
