************************************************************
  HS Scan of (1) Internal mercury lamp
************************************************************
Integration time is 0.2294 seconds per sample
dh270117Madrid 40.45 3.717 2.33pr940
************************************************************
Dead Time -------------------------  3.1E-08 
Number of Cycles Used -------------  4 
Starting Wavelength (Angstroms) ---  2950 
Final Wavelength (Angstoms) -------  2984 
Wavelength Increment (Angstroms) --  .25 
Filter Wheel #1 Position ---------- (1) Ground quartz diffuser (ND=2.32)
Filter Wheel #2 Position ---------- (1) Neutral Density 0.494



************************************************************
HS scan start time = 01:04:56
Dark Count =  .6 


Time (GMT)  Wavelength (Ang)  Step Number  Raw Counts  Counts/Second

   65.66        2950.00           1408         158.00       686.15
   65.80        2950.25           1412         145.00       629.48
   65.84        2950.50           1415         145.00       629.48
   65.87        2950.75           1418         140.00       607.68
   65.90        2951.00           1422         163.00       707.95
   65.93        2951.25           1425         168.00       729.75
   65.97        2951.50           1428         167.00       725.39
   66.00        2951.75           1432         148.00       642.56
   66.03        2952.00           1435         158.00       686.15
   66.06        2952.25           1439         150.00       651.28
   66.10        2952.50           1442         150.00       651.28
   66.13        2952.75           1445         148.00       642.56
   66.16        2953.00           1449         162.00       703.59
   66.19        2953.25           1452         152.00       660.00
   66.22        2953.50           1456         141.00       612.04
   66.26        2953.75           1459         138.00       598.96
   66.29        2954.00           1462         156.00       677.43
   66.32        2954.25           1466         148.00       642.56
   66.35        2954.50           1469         162.00       703.59
   66.38        2954.75           1472         154.00       668.71
   66.42        2955.00           1476         162.00       703.59
   66.45        2955.25           1479         173.00       751.54
   66.48        2955.50           1483         165.00       716.67
   66.51        2955.75           1486         161.00       699.23
   66.55        2956.00           1489         150.00       651.28
   66.58        2956.25           1493         156.00       677.43
   66.61        2956.50           1496         170.00       738.47
   66.64        2956.75           1499         164.00       712.31
   66.67        2957.00           1503         165.00       716.67
   66.71        2957.25           1506         171.00       742.82
   66.74        2957.50           1510         173.00       751.54
   66.77        2957.75           1513         173.00       751.54
   66.80        2958.00           1516         173.00       751.54
   66.83        2958.25           1520         171.00       742.82
   66.87        2958.50           1523         170.00       738.47
   66.90        2958.75           1527         187.00       812.57
   66.93        2959.00           1530         180.00       782.06
   66.96        2959.25           1533         190.00       825.65
   66.99        2959.50           1537         184.00       799.50
   67.03        2959.75           1540         189.00       821.29
   67.06        2960.00           1544         193.00       838.73
   67.09        2960.25           1547         198.00       860.53
   67.12        2960.50           1550         201.00       873.61
   67.15        2960.75           1554         207.00       899.76
   67.19        2961.00           1557         223.00       969.51
   67.22        2961.25           1560         326.00      1418.55
   67.25        2961.50           1564         897.00      3908.06
   67.28        2961.75           1567        1807.00      7876.38
   67.31        2962.00           1571        3926.00     17120.68
   67.35        2962.25           1574        5751.00     25086.64
   67.38        2962.50           1577        7847.00     34240.34
   67.41        2962.75           1581       10465.00     45681.04
   67.44        2963.00           1584       12544.00     54772.09
   67.47        2963.25           1588       15287.00     66774.53
   67.51        2963.50           1591       17510.00     76508.19
   67.54        2963.75           1594       19641.00     85844.53
   67.57        2964.00           1598       23020.00    100659.70
   67.60        2964.25           1601       25477.00    111441.00
   67.64        2964.50           1605       28293.00    123806.40
   67.67        2964.75           1608       30740.00    134559.30
   67.70        2965.00           1611       33096.00    144919.00
   67.73        2965.25           1615       35757.00    156627.90
   67.76        2965.50           1618       38134.00    167094.30
   67.80        2965.75           1621       39968.00    175174.50
   67.83        2966.00           1625       42458.00    186151.30
   67.86        2966.25           1628       44445.00    194916.20
   67.89        2966.50           1632       46750.00    205089.70
   67.92        2966.75           1635       47489.00    208352.70
   67.96        2967.00           1638       47833.00    209871.90
   67.99        2967.25           1642       48176.00    211386.80
   68.02        2967.50           1645       48060.00    210874.50
   68.05        2967.75           1649       47452.00    208189.40
   68.08        2968.00           1652       46560.00    204250.80
   68.11        2968.25           1655       45127.00    197925.60
   68.15        2968.50           1659       42166.00    184863.70
   68.18        2968.75           1662       40204.00    176214.60
   68.21        2969.00           1666       37310.00    163465.30
   68.24        2969.25           1669       35179.00    154083.90
   68.28        2969.50           1672       32961.00    144325.20
   68.31        2969.75           1676       29928.00    130990.30
   68.34        2970.00           1679       27846.00    121843.00
   68.37        2970.25           1683       25534.00    111691.20
   68.40        2970.50           1686       23144.00    101203.70
   68.44        2970.75           1689       21100.00     92239.84
   68.47        2971.00           1693       18184.00     79460.54
   68.50        2971.25           1696       16023.00     69996.53
   68.54        2971.50           1700       13444.00     58709.20
   68.57        2971.75           1703       10935.00     47735.81
   68.60        2972.00           1706        8902.00     38849.73
   68.63        2972.25           1710        5770.00     25169.59
   68.66        2972.50           1713        3671.00     16007.94
   68.70        2972.75           1717        1669.00      7274.53
   68.73        2973.00           1720         705.00      3070.91
   68.76        2973.25           1723         316.00      1374.95
   68.79        2973.50           1727         218.00       947.72
   68.82        2973.75           1730         200.00       869.25
   68.86        2974.00           1734         188.00       816.93
   68.89        2974.25           1737         178.00       773.34
   68.92        2974.50           1740         180.00       782.06
   68.95        2974.75           1744         175.00       760.26
   68.98        2975.00           1747         182.00       790.78
   69.02        2975.25           1751         164.00       712.31
   69.05        2975.50           1754         178.00       773.34
   69.08        2975.75           1757         169.00       734.11
   69.11        2976.00           1761         165.00       716.67
   69.14        2976.25           1764         163.00       707.95
   69.18        2976.50           1768         160.00       694.87
   69.21        2976.75           1771         161.00       699.23
   69.24        2977.00           1774         163.00       707.95
   69.27        2977.25           1778         155.00       673.07
   69.31        2977.50           1781         168.00       729.75
   69.34        2977.75           1785         155.00       673.07
   69.37        2978.00           1788         154.00       668.71
   69.40        2978.25           1791         149.00       646.92
   69.43        2978.50           1795         137.00       594.61
   69.46        2978.75           1798         172.00       747.18
   69.50        2979.00           1802         141.00       612.04
   69.53        2979.25           1805         148.00       642.56
   69.56        2979.50           1808         145.00       629.48
   69.59        2979.75           1812         155.00       673.07
   69.63        2980.00           1815         148.00       642.56
   69.66        2980.25           1819         157.00       681.79
   69.69        2980.50           1822         169.00       734.11
   69.72        2980.75           1825         162.00       703.59
   69.75        2981.00           1829         146.00       633.84
   69.79        2981.25           1832         155.00       673.07
   69.82        2981.50           1836         142.00       616.40
   69.85        2981.75           1839         138.00       598.96
   69.88        2982.00           1842         148.00       642.56
   69.91        2982.25           1846         142.00       616.40
   69.95        2982.50           1849         137.00       594.61
   69.98        2982.75           1853         155.00       673.07
   70.01        2983.00           1856         146.00       633.84
   70.04        2983.25           1859         131.00       568.45
   70.07        2983.50           1863         148.00       642.56
   70.11        2983.75           1866         155.00       673.07
   70.14        2984.00           1870         148.00       642.56
HS scan finished at 01:10:22
end
