************************************************************
  HS Scan of (1) Internal mercury lamp
************************************************************
Integration time is 0.2294 seconds per sample
dh030217Madrid 40.45 3.717 2.37pr940
************************************************************
Dead Time -------------------------  3.1E-08 
Number of Cycles Used -------------  4 
Starting Wavelength (Angstroms) ---  2950 
Final Wavelength (Angstoms) -------  2984 
Wavelength Increment (Angstroms) --  .25 
Filter Wheel #1 Position ---------- (1) Ground quartz diffuser (ND=2.32)
Filter Wheel #2 Position ---------- (1) Neutral Density 0.494



************************************************************
HS scan start time = 01:06:02
Dark Count =  .7 


Time (GMT)  Wavelength (Ang)  Step Number  Raw Counts  Counts/Second

   66.77        2950.00           1408         148.00       642.12
   66.90        2950.25           1412         132.00       572.37
   66.94        2950.50           1415         119.00       515.70
   66.97        2950.75           1418         134.00       581.09
   67.00        2951.00           1422         134.00       581.09
   67.03        2951.25           1425         131.00       568.01
   67.06        2951.50           1428         126.00       546.22
   67.10        2951.75           1432         149.00       646.48
   67.13        2952.00           1435         147.00       637.76
   67.16        2952.25           1439         145.00       629.04
   67.19        2952.50           1442         157.00       681.36
   67.22        2952.75           1445         142.00       615.97
   67.26        2953.00           1449         140.00       607.25
   67.29        2953.25           1452         147.00       637.76
   67.32        2953.50           1456         161.00       698.79
   67.35        2953.75           1459         153.00       663.92
   67.38        2954.00           1462         155.00       672.64
   67.42        2954.25           1466         146.00       633.40
   67.45        2954.50           1469         139.00       602.89
   67.48        2954.75           1472         134.00       581.09
   67.51        2955.00           1476         144.00       624.69
   67.54        2955.25           1479         146.00       633.40
   67.58        2955.50           1483         146.00       633.40
   67.61        2955.75           1486         144.00       624.69
   67.64        2956.00           1489         147.00       637.76
   67.67        2956.25           1493         145.00       629.04
   67.71        2956.50           1496         151.00       655.20
   67.74        2956.75           1499         157.00       681.36
   67.77        2957.00           1503         156.00       677.00
   67.80        2957.25           1506         152.00       659.56
   67.83        2957.50           1510         154.00       668.28
   67.87        2957.75           1513         145.00       629.04
   67.90        2958.00           1516         156.00       677.00
   67.93        2958.25           1520         159.00       690.08
   67.96        2958.50           1523         172.00       746.75
   67.99        2958.75           1527         150.00       650.84
   68.03        2959.00           1530         161.00       698.79
   68.06        2959.25           1533         169.00       733.67
   68.09        2959.50           1537         174.00       755.47
   68.12        2959.75           1540         198.00       860.09
   68.15        2960.00           1544         180.00       781.62
   68.19        2960.25           1547         179.00       777.26
   68.22        2960.50           1550         180.00       781.62
   68.25        2960.75           1554         182.00       790.34
   68.28        2961.00           1557         201.00       873.17
   68.31        2961.25           1560         264.00      1147.82
   68.35        2961.50           1564         642.00      2795.80
   68.38        2961.75           1567        1381.00      6018.12
   68.41        2962.00           1571        3459.00     15082.47
   68.44        2962.25           1574        5130.00     22375.15
   68.47        2962.50           1577        6983.00     30465.99
   68.51        2962.75           1581        9759.00     42594.57
   68.54        2963.00           1584       11499.00     50201.44
   68.57        2963.25           1588       13875.00     60594.54
   68.60        2963.50           1591       15908.00     69492.62
   68.64        2963.75           1594       18102.00     79100.88
   68.67        2964.00           1598       21145.00     92436.69
   68.70        2964.25           1601       23109.00    101049.70
   68.73        2964.50           1605       25990.00    113692.50
   68.76        2964.75           1608       28409.00    124315.60
   68.80        2965.00           1611       30303.00    132638.00
   68.83        2965.25           1615       32931.00    144192.80
   68.86        2965.50           1618       35208.00    154211.10
   68.89        2965.75           1621       37007.00    162130.60
   68.92        2966.00           1625       39376.00    172565.40
   68.95        2966.25           1628       41229.00    180732.10
   68.99        2966.50           1632       43328.00    189988.00
   69.02        2966.75           1635       44154.00    193631.80
   69.05        2967.00           1638       44978.00    197267.60
   69.08        2967.25           1642       44906.00    196949.90
   69.12        2967.50           1645       44823.00    196583.60
   69.15        2967.75           1649       44465.00    195004.00
   69.18        2968.00           1652       43448.00    190517.30
   69.21        2968.25           1655       42379.00    185802.50
   69.24        2968.50           1659       39711.00    174041.50
   69.28        2968.75           1662       37449.00    164077.00
   69.31        2969.00           1666       35161.00    154004.20
   69.34        2969.25           1669       33339.00    145987.40
   69.37        2969.50           1672       31273.00    136901.90
   69.40        2969.75           1676       28619.00    125238.10
   69.44        2970.00           1679       26626.00    116484.80
   69.47        2970.25           1683       24202.00    105845.00
   69.50        2970.50           1686       22171.00     96935.59
   69.53        2970.75           1689       20177.00     88193.28
   69.56        2971.00           1693       17695.00     77318.06
   69.60        2971.25           1696       15482.00     67627.69
   69.63        2971.50           1700       12669.00     55318.42
   69.66        2971.75           1703       10743.00     46895.94
   69.69        2972.00           1706        8576.00     37424.83
   69.73        2972.25           1710        5671.00     24736.92
   69.76        2972.50           1713        3907.00     17037.33
   69.79        2972.75           1717        1766.00      7697.13
   69.82        2973.00           1720         713.00      3105.36
   69.85        2973.25           1723         314.00      1365.79
   69.88        2973.50           1727         193.00       838.30
   69.92        2973.75           1730         195.00       847.01
   69.95        2974.00           1734         175.00       759.83
   69.98        2974.25           1737         178.00       772.90
   70.01        2974.50           1740         175.00       759.83
   70.04        2974.75           1744         167.00       724.95
   70.08        2975.00           1747         168.00       729.31
   70.11        2975.25           1751         154.00       668.28
   70.14        2975.50           1754         164.00       711.87
   70.17        2975.75           1757         157.00       681.36
   70.20        2976.00           1761         183.00       794.70
   70.24        2976.25           1764         151.00       655.20
   70.27        2976.50           1768         157.00       681.36
   70.30        2976.75           1771         157.00       681.36
   70.33        2977.00           1774         151.00       655.20
   70.37        2977.25           1778         142.00       615.97
   70.40        2977.50           1781         147.00       637.76
   70.43        2977.75           1785         153.00       663.92
   70.46        2978.00           1788         154.00       668.28
   70.50        2978.25           1791         147.00       637.76
   70.53        2978.50           1795         145.00       629.04
   70.56        2978.75           1798         147.00       637.76
   70.59        2979.00           1802         158.00       685.72
   70.63        2979.25           1805         133.00       576.73
   70.66        2979.50           1808         130.00       563.65
   70.69        2979.75           1812         150.00       650.84
   70.72        2980.00           1815         128.00       554.94
   70.75        2980.25           1819         134.00       581.09
   70.79        2980.50           1822         147.00       637.76
   70.82        2980.75           1825         123.00       533.14
   70.85        2981.00           1829         137.00       594.17
   70.88        2981.25           1832         135.00       585.45
   70.91        2981.50           1836         149.00       646.48
   70.94        2981.75           1839         155.00       672.64
   70.98        2982.00           1842         146.00       633.40
   71.01        2982.25           1846         143.00       620.33
   71.04        2982.50           1849         143.00       620.33
   71.07        2982.75           1853         153.00       663.92
   71.11        2983.00           1856         128.00       554.94
   71.14        2983.25           1859         119.00       515.70
   71.17        2983.50           1863         138.00       598.53
   71.20        2983.75           1866         145.00       629.04
   71.23        2984.00           1870         140.00       607.25
HS scan finished at 01:11:28
end
