************************************************************
  HS Scan of (1) Internal mercury lamp
************************************************************
Integration time is 0.2294 seconds per sample
dh170217Madrid 40.45 3.717 2.31pr940
************************************************************
Dead Time -------------------------  3.1E-08 
Number of Cycles Used -------------  4 
Starting Wavelength (Angstroms) ---  2950 
Final Wavelength (Angstoms) -------  2984 
Wavelength Increment (Angstroms) --  .25 
Filter Wheel #1 Position ---------- (1) Ground quartz diffuser (ND=2.32)
Filter Wheel #2 Position ---------- (1) Neutral Density 0.494



************************************************************
HS scan start time = 01:05:09
Dark Count =  .5 


Time (GMT)  Wavelength (Ang)  Step Number  Raw Counts  Counts/Second

   65.87        2950.00           1408         149.00       647.35
   66.01        2950.25           1412         158.00       686.59
   66.04        2950.50           1415         180.00       782.50
   66.07        2950.75           1418         154.00       669.15
   66.11        2951.00           1422         128.00       555.81
   66.14        2951.25           1425         130.00       564.53
   66.17        2951.50           1428         177.00       769.42
   66.20        2951.75           1432         126.00       547.09
   66.24        2952.00           1435         157.00       682.23
   66.27        2952.25           1439         136.00       590.68
   66.30        2952.50           1442         139.00       603.76
   66.33        2952.75           1445         161.00       699.67
   66.37        2953.00           1449         122.00       529.65
   66.40        2953.25           1452         136.00       590.68
   66.43        2953.50           1456         159.00       690.95
   66.46        2953.75           1459         145.00       629.92
   66.50        2954.00           1462         140.00       608.12
   66.53        2954.25           1466         155.00       673.51
   66.56        2954.50           1469         129.00       560.17
   66.59        2954.75           1472         163.00       708.39
   66.63        2955.00           1476         150.00       651.71
   66.66        2955.25           1479         132.00       573.24
   66.69        2955.50           1483         134.00       581.96
   66.72        2955.75           1486         154.00       669.15
   66.75        2956.00           1489         148.00       642.99
   66.78        2956.25           1493         139.00       603.76
   66.82        2956.50           1496         148.00       642.99
   66.85        2956.75           1499         131.00       568.89
   66.88        2957.00           1503         139.00       603.76
   66.91        2957.25           1506         156.00       677.87
   66.94        2957.50           1510         159.00       690.95
   66.98        2957.75           1513         148.00       642.99
   67.01        2958.00           1516         145.00       629.92
   67.04        2958.25           1520         144.00       625.56
   67.07        2958.50           1523         166.00       721.46
   67.10        2958.75           1527         173.00       751.98
   67.14        2959.00           1530         154.00       669.15
   67.17        2959.25           1533         170.00       738.90
   67.20        2959.50           1537         166.00       721.46
   67.23        2959.75           1540         158.00       686.59
   67.27        2960.00           1544         162.00       704.03
   67.30        2960.25           1547         158.00       686.59
   67.33        2960.50           1550         167.00       725.82
   67.36        2960.75           1554         171.00       743.26
   67.39        2961.00           1557         183.00       795.57
   67.43        2961.25           1560         230.00      1000.47
   67.46        2961.50           1564         541.00      2356.32
   67.49        2961.75           1567        1071.00      4667.20
   67.52        2962.00           1571        2851.00     12430.68
   67.55        2962.25           1574        4360.00     19015.13
   67.59        2962.50           1577        6127.00     26728.77
   67.62        2962.75           1581        8501.00     37098.01
   67.65        2963.00           1584       10132.00     44225.81
   67.68        2963.25           1588       12420.00     54230.15
   67.71        2963.50           1591       14091.00     61540.58
   67.74        2963.75           1594       15974.00     69782.44
   67.78        2964.00           1598       18669.00     81585.77
   67.81        2964.25           1601       20284.00     88663.16
   67.84        2964.50           1605       22710.00     99300.42
   67.87        2964.75           1608       24529.00    107280.80
   67.91        2965.00           1611       26422.00    115590.00
   67.94        2965.25           1615       29168.00    127651.10
   67.97        2965.50           1618       31269.00    136885.20
   68.00        2965.75           1621       33280.00    145728.80
   68.03        2966.00           1625       35417.00    155131.80
   68.07        2966.25           1628       36998.00    162091.90
   68.10        2966.50           1632       38925.00    170579.30
   68.13        2966.75           1635       39906.00    174901.70
   68.17        2967.00           1638       40024.00    175421.70
   68.20        2967.25           1642       40016.00    175386.50
   68.23        2967.50           1645       40117.00    175831.60
   68.26        2967.75           1649       39972.00    175192.60
   68.29        2968.00           1652       39067.00    171204.90
   68.33        2968.25           1655       37876.00    165958.40
   68.36        2968.50           1659       35664.00    156219.00
   68.39        2968.75           1662       33393.00    146225.90
   68.42        2969.00           1666       30965.00    135548.80
   68.45        2969.25           1669       29540.00    129285.70
   68.49        2969.50           1672       27790.00    121597.40
   68.52        2969.75           1676       25586.00    111919.90
   68.55        2970.00           1679       23889.00    104472.50
   68.58        2970.25           1683       21722.00     94967.49
   68.61        2970.50           1686       19922.00     87076.51
   68.65        2970.75           1689       18207.00     79561.73
   68.68        2971.00           1693       15910.00     69502.25
   68.71        2971.25           1696       13909.00     60744.19
   68.74        2971.50           1700       11575.00     50534.65
   68.77        2971.75           1703        9759.00     42595.44
   68.81        2972.00           1706        7973.00     34791.21
   68.84        2972.25           1710        5301.00     23122.50
   68.87        2972.50           1713        3634.00     15846.93
   68.90        2972.75           1717        1731.00      7545.36
   68.94        2973.00           1720         723.00      3149.83
   68.97        2973.25           1723         312.00      1357.95
   69.00        2973.50           1727         178.00       773.78
   69.03        2973.75           1730         162.00       704.03
   69.07        2974.00           1734         163.00       708.39
   69.10        2974.25           1737         165.00       717.10
   69.13        2974.50           1740         157.00       682.23
   69.16        2974.75           1744         163.00       708.39
   69.19        2975.00           1747         151.00       656.07
   69.23        2975.25           1751         151.00       656.07
   69.26        2975.50           1754         137.00       595.04
   69.29        2975.75           1757         161.00       699.67
   69.32        2976.00           1761         146.00       634.28
   69.35        2976.25           1764         160.00       695.31
   69.39        2976.50           1768         160.00       695.31
   69.42        2976.75           1771         151.00       656.07
   69.45        2977.00           1774         139.00       603.76
   69.48        2977.25           1778         167.00       725.82
   69.52        2977.50           1781         163.00       708.39
   69.55        2977.75           1785         149.00       647.35
   69.58        2978.00           1788         148.00       642.99
   69.61        2978.25           1791         130.00       564.53
   69.64        2978.50           1795         130.00       564.53
   69.68        2978.75           1798         147.00       638.64
   69.71        2979.00           1802         141.00       612.48
   69.74        2979.25           1805         149.00       647.35
   69.77        2979.50           1808         138.00       599.40
   69.80        2979.75           1812         128.00       555.81
   69.84        2980.00           1815         131.00       568.89
   69.87        2980.25           1819         141.00       612.48
   69.90        2980.50           1822         126.00       547.09
   69.93        2980.75           1825         146.00       634.28
   69.97        2981.00           1829         137.00       595.04
   70.00        2981.25           1832         161.00       699.67
   70.03        2981.50           1836         128.00       555.81
   70.06        2981.75           1839         151.00       656.07
   70.09        2982.00           1842         138.00       599.40
   70.12        2982.25           1846         145.00       629.92
   70.16        2982.50           1849         117.00       507.85
   70.19        2982.75           1853         154.00       669.15
   70.22        2983.00           1856         129.00       560.17
   70.25        2983.25           1859         138.00       599.40
   70.28        2983.50           1863         131.00       568.89
   70.32        2983.75           1866         115.00       499.14
   70.35        2984.00           1870         119.00       516.57
HS scan finished at 01:10:34
end
