************************************************************
  HS Scan of (1) Internal mercury lamp
************************************************************
Integration time is 0.2294 seconds per sample
dh100217Madrid 40.45 3.717 2.23pr940
************************************************************
Dead Time -------------------------  3.1E-08 
Number of Cycles Used -------------  4 
Starting Wavelength (Angstroms) ---  2950 
Final Wavelength (Angstoms) -------  2984 
Wavelength Increment (Angstroms) --  .25 
Filter Wheel #1 Position ---------- (1) Ground quartz diffuser (ND=2.32)
Filter Wheel #2 Position ---------- (1) Neutral Density 0.494



************************************************************
HS scan start time = 01:05:20
Dark Count =  .6 


Time (GMT)  Wavelength (Ang)  Step Number  Raw Counts  Counts/Second

   66.06        2950.00           1408         150.00       651.28
   66.20        2950.25           1412         145.00       629.48
   66.23        2950.50           1415         147.00       638.20
   66.26        2950.75           1418         151.00       655.64
   66.30        2951.00           1422         156.00       677.43
   66.33        2951.25           1425         144.00       625.12
   66.36        2951.50           1428         153.00       664.36
   66.39        2951.75           1432         155.00       673.07
   66.42        2952.00           1435         156.00       677.43
   66.45        2952.25           1439         142.00       616.40
   66.49        2952.50           1442         155.00       673.07
   66.52        2952.75           1445         155.00       673.07
   66.55        2953.00           1449         157.00       681.79
   66.58        2953.25           1452         152.00       660.00
   66.61        2953.50           1456         151.00       655.64
   66.65        2953.75           1459         162.00       703.59
   66.68        2954.00           1462         147.00       638.20
   66.71        2954.25           1466         157.00       681.79
   66.74        2954.50           1469         157.00       681.79
   66.77        2954.75           1472         181.00       786.42
   66.81        2955.00           1476         168.00       729.75
   66.84        2955.25           1479         159.00       690.51
   66.87        2955.50           1483         150.00       651.28
   66.90        2955.75           1486         171.00       742.82
   66.93        2956.00           1489         157.00       681.79
   66.97        2956.25           1493         156.00       677.43
   67.00        2956.50           1496         167.00       725.39
   67.03        2956.75           1499         162.00       703.59
   67.06        2957.00           1503         175.00       760.26
   67.09        2957.25           1506         178.00       773.34
   67.13        2957.50           1510         169.00       734.11
   67.16        2957.75           1513         166.00       721.03
   67.19        2958.00           1516         170.00       738.47
   67.22        2958.25           1520         164.00       712.31
   67.26        2958.50           1523         172.00       747.18
   67.29        2958.75           1527         196.00       851.81
   67.32        2959.00           1530         190.00       825.65
   67.35        2959.25           1533         181.00       786.42
   67.38        2959.50           1537         192.00       834.37
   67.42        2959.75           1540         176.00       764.62
   67.45        2960.00           1544         185.00       803.86
   67.48        2960.25           1547         191.00       830.01
   67.51        2960.50           1550         205.00       891.04
   67.54        2960.75           1554         200.00       869.25
   67.58        2961.00           1557         212.00       921.56
   67.61        2961.25           1560         310.00      1348.79
   67.64        2961.50           1564         747.00      3254.03
   67.67        2961.75           1567        1537.00      6698.86
   67.70        2962.00           1571        3617.00     15772.32
   67.74        2962.25           1574        5532.00     24130.51
   67.77        2962.50           1577        7398.00     32279.01
   67.80        2962.75           1581        9844.00     42966.53
   67.83        2963.00           1584       12084.00     52760.15
   67.86        2963.25           1588       14800.00     64642.93
   67.90        2963.50           1591       16777.00     73298.02
   67.93        2963.75           1594       18632.00     81423.23
   67.96        2964.00           1598       21309.00     93156.18
   67.99        2964.25           1601       23228.00    101572.20
   68.03        2964.50           1605       25795.00    112836.90
   68.06        2964.75           1608       27771.00    121513.60
   68.09        2965.00           1611       29760.00    130252.00
   68.12        2965.25           1615       32301.00    141422.50
   68.15        2965.50           1618       34386.00    150594.20
   68.19        2965.75           1621       36312.00    159071.10
   68.22        2966.00           1625       38900.00    170468.70
   68.25        2966.25           1628       40404.00    177096.00
   68.28        2966.50           1632       42367.00    185750.00
   68.31        2966.75           1635       43165.00    189269.40
   68.35        2967.00           1638       43806.00    192096.90
   68.38        2967.25           1642       43695.00    191607.30
   68.41        2967.50           1645       43729.00    191757.30
   68.44        2967.75           1649       43170.00    189291.50
   68.47        2968.00           1652       42484.00    186266.00
   68.51        2968.25           1655       40478.00    177422.20
   68.54        2968.50           1659       37643.00    164931.80
   68.57        2968.75           1662       35581.00    155853.20
   68.60        2969.00           1666       32721.00    143269.60
   68.63        2969.25           1669       31064.00    135983.60
   68.67        2969.50           1672       29438.00    128837.00
   68.70        2969.75           1676       26952.00    117916.70
   68.73        2970.00           1679       25143.00    109975.00
   68.76        2970.25           1683       22746.00     99457.88
   68.79        2970.50           1686       20964.00     91643.61
   68.83        2970.75           1689       19085.00     83408.06
   68.86        2971.00           1693       16397.00     71634.06
   68.89        2971.25           1696       14459.00     63150.54
   68.92        2971.50           1700       11852.00     51745.54
   68.95        2971.75           1703        9822.00     42870.37
   68.99        2972.00           1706        7812.00     34087.44
   69.02        2972.25           1710        5090.00     22200.98
   69.05        2972.50           1713        3176.00     13848.14
   69.08        2972.75           1717        1386.00      6040.36
   69.12        2973.00           1720         584.00      2543.36
   69.15        2973.25           1723         274.00      1191.85
   69.18        2973.50           1727         191.00       830.01
   69.21        2973.75           1730         201.00       873.61
   69.24        2974.00           1734         186.00       808.22
   69.28        2974.25           1737         189.00       821.29
   69.31        2974.50           1740         190.00       825.65
   69.34        2974.75           1744         168.00       729.75
   69.37        2975.00           1747         175.00       760.26
   69.40        2975.25           1751         164.00       712.31
   69.43        2975.50           1754         153.00       664.36
   69.47        2975.75           1757         160.00       694.87
   69.50        2976.00           1761         158.00       686.15
   69.53        2976.25           1764         156.00       677.43
   69.56        2976.50           1768         150.00       651.28
   69.59        2976.75           1771         157.00       681.79
   69.63        2977.00           1774         158.00       686.15
   69.66        2977.25           1778         158.00       686.15
   69.69        2977.50           1781         146.00       633.84
   69.72        2977.75           1785         148.00       642.56
   69.76        2978.00           1788         155.00       673.07
   69.79        2978.25           1791         149.00       646.92
   69.82        2978.50           1795         160.00       694.87
   69.85        2978.75           1798         143.00       620.76
   69.88        2979.00           1802         167.00       725.39
   69.92        2979.25           1805         138.00       598.96
   69.95        2979.50           1808         143.00       620.76
   69.98        2979.75           1812         160.00       694.87
   70.01        2980.00           1815         176.00       764.62
   70.04        2980.25           1819         156.00       677.43
   70.08        2980.50           1822         148.00       642.56
   70.11        2980.75           1825         158.00       686.15
   70.14        2981.00           1829         134.00       581.53
   70.17        2981.25           1832         133.00       577.17
   70.21        2981.50           1836         135.00       585.89
   70.24        2981.75           1839         130.00       564.09
   70.27        2982.00           1842         136.00       590.25
   70.30        2982.25           1846         150.00       651.28
   70.33        2982.50           1849         143.00       620.76
   70.36        2982.75           1853         122.00       529.22
   70.40        2983.00           1856         128.00       555.37
   70.43        2983.25           1859         147.00       638.20
   70.46        2983.50           1863         132.00       572.81
   70.49        2983.75           1866         123.00       533.57
   70.52        2984.00           1870         125.00       542.29
HS scan finished at 01:10:45
end
