************************************************************
  HS Scan of (1) Internal mercury lamp
************************************************************
Integration time is 0.2294 seconds per sample
dh240217Madrid 40.45 3.717 2.54pr940
************************************************************
Dead Time -------------------------  3.1E-08 
Number of Cycles Used -------------  4 
Starting Wavelength (Angstroms) ---  2950 
Final Wavelength (Angstoms) -------  2984 
Wavelength Increment (Angstroms) --  .25 
Filter Wheel #1 Position ---------- (1) Ground quartz diffuser (ND=2.32)
Filter Wheel #2 Position ---------- (1) Neutral Density 0.494



************************************************************
HS scan start time = 01:04:23
Dark Count =  1.1 


Time (GMT)  Wavelength (Ang)  Step Number  Raw Counts  Counts/Second

   65.11        2950.00           1408         125.00       540.11
   65.25        2950.25           1412         113.00       487.80
   65.28        2950.50           1415         111.00       479.08
   65.31        2950.75           1418         110.00       474.72
   65.34        2951.00           1422         157.00       679.61
   65.38        2951.25           1425         117.00       505.24
   65.41        2951.50           1428         122.00       527.04
   65.44        2951.75           1432         134.00       579.35
   65.47        2952.00           1435         120.00       518.32
   65.50        2952.25           1439         116.00       500.88
   65.54        2952.50           1442         151.00       653.46
   65.57        2952.75           1445         132.00       570.63
   65.60        2953.00           1449         163.00       705.77
   65.63        2953.25           1452         125.00       540.11
   65.66        2953.50           1456         139.00       601.14
   65.70        2953.75           1459         128.00       553.19
   65.73        2954.00           1462         134.00       579.35
   65.76        2954.25           1466         137.00       592.43
   65.79        2954.50           1469         130.00       561.91
   65.83        2954.75           1472         130.00       561.91
   65.86        2955.00           1476         117.00       505.24
   65.89        2955.25           1479         157.00       679.61
   65.92        2955.50           1483         131.00       566.27
   65.95        2955.75           1486         139.00       601.14
   65.99        2956.00           1489         162.00       701.41
   66.02        2956.25           1493         145.00       627.30
   66.05        2956.50           1496         132.00       570.63
   66.08        2956.75           1499         135.00       583.71
   66.11        2957.00           1503         137.00       592.43
   66.15        2957.25           1506         152.00       657.82
   66.18        2957.50           1510         151.00       653.46
   66.21        2957.75           1513         135.00       583.71
   66.24        2958.00           1516         145.00       627.30
   66.27        2958.25           1520         147.00       636.02
   66.31        2958.50           1523         144.00       622.94
   66.34        2958.75           1527         141.00       609.86
   66.37        2959.00           1530         164.00       710.13
   66.40        2959.25           1533         142.00       614.22
   66.44        2959.50           1537         137.00       592.43
   66.47        2959.75           1540         154.00       666.54
   66.50        2960.00           1544         153.00       662.18
   66.53        2960.25           1547         182.00       788.60
   66.56        2960.50           1550         164.00       710.13
   66.60        2960.75           1554         165.00       714.49
   66.63        2961.00           1557         190.00       823.47
   66.66        2961.25           1560         283.00      1228.90
   66.69        2961.50           1564         734.00      3195.17
   66.73        2961.75           1567        1528.00      6657.43
   66.76        2962.00           1571        3886.00     16943.95
   66.79        2962.25           1574        5710.00     24905.45
   66.82        2962.50           1577        7486.00     32661.21
   66.85        2962.75           1581        9739.00     42505.41
   66.89        2963.00           1584       11575.00     50532.02
   66.92        2963.25           1588       13746.00     60028.35
   66.95        2963.50           1591       15284.00     66759.21
   66.98        2963.75           1594       17191.00     75108.86
   67.01        2964.00           1598       19471.00     85097.34
   67.05        2964.25           1601       21036.00     91957.06
   67.08        2964.50           1605       23567.00    103057.20
   67.11        2964.75           1608       25449.00    111315.90
   67.14        2965.00           1611       27329.00    119570.10
   67.17        2965.25           1615       29964.00    131146.30
   67.21        2965.50           1618       31831.00    139353.60
   67.24        2965.75           1621       33424.00    146359.60
   67.27        2966.00           1625       35877.00    157153.90
   67.30        2966.25           1628       37335.00    163573.20
   67.34        2966.50           1632       39203.00    171801.40
   67.37        2966.75           1635       39709.00    174030.90
   67.40        2967.00           1638       40198.00    176185.90
   67.43        2967.25           1642       40139.00    175925.90
   67.46        2967.50           1645       40027.00    175432.30
   67.50        2967.75           1649       39350.00    172449.10
   67.53        2968.00           1652       38299.00    167818.90
   67.56        2968.25           1655       36790.00    161173.40
   67.59        2968.50           1659       34347.00    150420.40
   67.62        2968.75           1662       32493.00    142264.70
   67.66        2969.00           1666       30285.00    132557.10
   67.69        2969.25           1669       28584.00    125082.60
   67.72        2969.50           1672       26650.00    116588.50
   67.75        2969.75           1676       24510.00    107194.80
   67.78        2970.00           1679       23034.00    100719.00
   67.82        2970.25           1683       20651.00     90269.26
   67.85        2970.50           1686       18808.00     82192.16
   67.88        2970.75           1689       17085.00     74644.63
   67.91        2971.00           1693       14835.00     64793.92
   67.94        2971.25           1696       12884.00     56257.14
   67.98        2971.50           1700       10645.00     46465.76
   68.01        2971.75           1703        8716.00     38034.80
   68.04        2972.00           1706        6963.00     30376.89
   68.07        2972.25           1710        4319.00     18833.57
   68.10        2972.50           1713        2772.00     12083.43
   68.14        2972.75           1717        1182.00      5148.60
   68.17        2973.00           1720         425.00      1847.97
   68.20        2973.25           1723         216.00       936.82
   68.23        2973.50           1727         175.00       758.08
   68.26        2973.75           1730         179.00       775.52
   68.30        2974.00           1734         158.00       683.97
   68.33        2974.25           1737         164.00       710.13
   68.36        2974.50           1740         160.00       692.69
   68.39        2974.75           1744         164.00       710.13
   68.43        2975.00           1747         145.00       627.30
   68.46        2975.25           1751         142.00       614.22
   68.49        2975.50           1754         143.00       618.58
   68.52        2975.75           1757         138.00       596.79
   68.55        2976.00           1761         152.00       657.82
   68.59        2976.25           1764         146.00       631.66
   68.62        2976.50           1768         141.00       609.86
   68.65        2976.75           1771         154.00       666.54
   68.68        2977.00           1774         128.00       553.19
   68.71        2977.25           1778         138.00       596.79
   68.74        2977.50           1781         167.00       723.21
   68.78        2977.75           1785         169.00       731.93
   68.81        2978.00           1788         139.00       601.14
   68.84        2978.25           1791         145.00       627.30
   68.87        2978.50           1795         134.00       579.35
   68.90        2978.75           1798         125.00       540.11
   68.94        2979.00           1802         154.00       666.54
   68.97        2979.25           1805         131.00       566.27
   69.00        2979.50           1808         125.00       540.11
   69.03        2979.75           1812         135.00       583.71
   69.07        2980.00           1815         132.00       570.63
   69.10        2980.25           1819         139.00       601.14
   69.13        2980.50           1822         120.00       518.32
   69.16        2980.75           1825         127.00       548.83
   69.19        2981.00           1829         136.00       588.07
   69.23        2981.25           1832         130.00       561.91
   69.26        2981.50           1836         137.00       592.43
   69.29        2981.75           1839         143.00       618.58
   69.32        2982.00           1842         121.00       522.68
   69.35        2982.25           1846         147.00       636.02
   69.39        2982.50           1849         122.00       527.04
   69.42        2982.75           1853         112.00       483.44
   69.45        2983.00           1856         117.00       505.24
   69.48        2983.25           1859         112.00       483.44
   69.51        2983.50           1863         120.00       518.32
   69.55        2983.75           1866         120.00       518.32
   69.58        2984.00           1870         111.00       479.08
HS scan finished at 01:09:48
end
