************************************************************
  HS Scan of (1) Internal mercury lamp
************************************************************
Integration time is 0.2294 seconds per sample
dh030317Madrid 40.45 3.717 2.43pr940
************************************************************
Dead Time -------------------------  3.1E-08 
Number of Cycles Used -------------  4 
Starting Wavelength (Angstroms) ---  2950 
Final Wavelength (Angstoms) -------  2984 
Wavelength Increment (Angstroms) --  .25 
Filter Wheel #1 Position ---------- (1) Ground quartz diffuser (ND=2.32)
Filter Wheel #2 Position ---------- (1) Neutral Density 0.494



************************************************************
HS scan start time = 01:03:07
Dark Count =  .6 


Time (GMT)  Wavelength (Ang)  Step Number  Raw Counts  Counts/Second

   63.84        2950.00           1408         138.00       598.96
   63.98        2950.25           1412         148.00       642.56
   64.01        2950.50           1415         149.00       646.92
   64.04        2950.75           1418         138.00       598.96
   64.07        2951.00           1422         161.00       699.23
   64.10        2951.25           1425         139.00       603.32
   64.14        2951.50           1428         143.00       620.76
   64.17        2951.75           1432         139.00       603.32
   64.20        2952.00           1435         134.00       581.53
   64.23        2952.25           1439         139.00       603.32
   64.26        2952.50           1442         165.00       716.67
   64.30        2952.75           1445         137.00       594.61
   64.33        2953.00           1449         172.00       747.18
   64.36        2953.25           1452         132.00       572.81
   64.39        2953.50           1456         141.00       612.04
   64.42        2953.75           1459         147.00       638.20
   64.46        2954.00           1462         161.00       699.23
   64.49        2954.25           1466         137.00       594.61
   64.52        2954.50           1469         145.00       629.48
   64.55        2954.75           1472         146.00       633.84
   64.58        2955.00           1476         136.00       590.25
   64.62        2955.25           1479         147.00       638.20
   64.65        2955.50           1483         147.00       638.20
   64.68        2955.75           1486         144.00       625.12
   64.71        2956.00           1489         166.00       721.03
   64.74        2956.25           1493         147.00       638.20
   64.78        2956.50           1496         138.00       598.96
   64.81        2956.75           1499         161.00       699.23
   64.84        2957.00           1503         164.00       712.31
   64.87        2957.25           1506         159.00       690.51
   64.90        2957.50           1510         169.00       734.11
   64.94        2957.75           1513         160.00       694.87
   64.97        2958.00           1516         158.00       686.15
   65.00        2958.25           1520         155.00       673.07
   65.03        2958.50           1523         166.00       721.03
   65.07        2958.75           1527         161.00       699.23
   65.10        2959.00           1530         166.00       721.03
   65.13        2959.25           1533         168.00       729.75
   65.16        2959.50           1537         177.00       768.98
   65.19        2959.75           1540         168.00       729.75
   65.23        2960.00           1544         174.00       755.90
   65.26        2960.25           1547         172.00       747.18
   65.29        2960.50           1550         184.00       799.50
   65.32        2960.75           1554         175.00       760.26
   65.35        2961.00           1557         199.00       864.89
   65.39        2961.25           1560         276.00      1200.57
   65.42        2961.50           1564         693.00      3018.59
   65.45        2961.75           1567        1464.00      6380.51
   65.48        2962.00           1571        3604.00     15715.59
   65.51        2962.25           1574        5317.00     23191.91
   65.54        2962.50           1577        7077.00     30876.97
   65.58        2962.75           1581        9425.00     41135.25
   65.61        2963.00           1584       11166.00     48745.80
   65.64        2963.25           1588       13777.00     60166.18
   65.67        2963.50           1591       15825.00     69129.68
   65.71        2963.75           1594       18023.00     78755.25
   65.74        2964.00           1598       20682.00     90407.34
   65.77        2964.25           1601       22435.00     98093.84
   65.80        2964.50           1605       25272.00    110541.20
   65.83        2964.75           1608       27203.00    119019.00
   65.87        2965.00           1611       29087.00    127294.70
   65.90        2965.25           1615       31699.00    138775.40
   65.93        2965.50           1618       33510.00    146740.10
   65.96        2965.75           1621       35433.00    155201.80
   65.99        2966.00           1625       37701.00    165187.20
   66.03        2966.25           1628       39550.00    173332.50
   66.06        2966.50           1632       41462.00    181759.70
   66.09        2966.75           1635       42450.00    186116.10
   66.12        2967.00           1638       42690.00    187174.50
   66.15        2967.25           1642       42743.00    187408.20
   66.19        2967.50           1645       42938.00    188268.20
   66.22        2967.75           1649       42373.00    185776.50
   66.25        2968.00           1652       41572.00    182244.70
   66.28        2968.25           1655       40316.00    176708.20
   66.32        2968.50           1659       38119.00    167028.30
   66.35        2968.75           1662       35870.00    157125.30
   66.38        2969.00           1666       33115.00    145002.60
   66.41        2969.25           1669       31047.00    135908.80
   66.45        2969.50           1672       29055.00    127154.10
   66.48        2969.75           1676       26712.00    116862.90
   66.51        2970.00           1679       24888.00    108855.80
   66.54        2970.25           1683       22688.00     99203.48
   66.57        2970.50           1686       20720.00     90573.93
   66.61        2970.75           1689       18806.00     82185.58
   66.64        2971.00           1693       16367.00     71502.71
   66.67        2971.25           1696       14366.00     62743.55
   66.70        2971.50           1700       11690.00     51037.10
   66.73        2971.75           1703        9745.00     42533.82
   66.77        2972.00           1706        7883.00     34397.60
   66.80        2972.25           1710        5190.00     22637.50
   66.83        2972.50           1713        3370.00     14694.57
   66.87        2972.75           1717        1422.00      6197.35
   66.90        2973.00           1720         572.00      2491.04
   66.93        2973.25           1723         279.00      1213.65
   66.96        2973.50           1727         177.00       768.98
   66.99        2973.75           1730         179.00       777.70
   67.03        2974.00           1734         165.00       716.67
   67.06        2974.25           1737         175.00       760.26
   67.09        2974.50           1740         174.00       755.90
   67.12        2974.75           1744         162.00       703.59
   67.16        2975.00           1747         139.00       603.32
   67.19        2975.25           1751         160.00       694.87
   67.22        2975.50           1754         154.00       668.71
   67.25        2975.75           1757         155.00       673.07
   67.28        2976.00           1761         146.00       633.84
   67.31        2976.25           1764         153.00       664.36
   67.35        2976.50           1768         147.00       638.20
   67.38        2976.75           1771         151.00       655.64
   67.41        2977.00           1774         138.00       598.96
   67.44        2977.25           1778         151.00       655.64
   67.48        2977.50           1781         167.00       725.39
   67.51        2977.75           1785         152.00       660.00
   67.54        2978.00           1788         149.00       646.92
   67.57        2978.25           1791         150.00       651.28
   67.60        2978.50           1795         129.00       559.73
   67.64        2978.75           1798         139.00       603.32
   67.67        2979.00           1802         165.00       716.67
   67.70        2979.25           1805         137.00       594.61
   67.73        2979.50           1808         145.00       629.48
   67.77        2979.75           1812         136.00       590.25
   67.80        2980.00           1815         152.00       660.00
   67.83        2980.25           1819         130.00       564.09
   67.86        2980.50           1822         144.00       625.12
   67.90        2980.75           1825         140.00       607.68
   67.93        2981.00           1829         134.00       581.53
   67.96        2981.25           1832         130.00       564.09
   67.99        2981.50           1836         123.00       533.57
   68.02        2981.75           1839         171.00       742.82
   68.06        2982.00           1842         123.00       533.57
   68.09        2982.25           1846         149.00       646.92
   68.12        2982.50           1849         144.00       625.12
   68.15        2982.75           1853         133.00       577.17
   68.18        2983.00           1856         138.00       598.96
   68.22        2983.25           1859         123.00       533.57
   68.25        2983.50           1863         160.00       694.87
   68.28        2983.75           1866         137.00       594.61
   68.31        2984.00           1870         116.00       503.06
HS scan finished at 01:08:32
end
