************************************************************
  HS Scan of (1) Internal mercury lamp
************************************************************
Integration time is 0.2294 seconds per sample
dh100317Madrid 40.45 3.717 2.68pr940
************************************************************
Dead Time -------------------------  3.1E-08 
Number of Cycles Used -------------  4 
Starting Wavelength (Angstroms) ---  2950 
Final Wavelength (Angstoms) -------  2984 
Wavelength Increment (Angstroms) --  .25 
Filter Wheel #1 Position ---------- (1) Ground quartz diffuser (ND=2.32)
Filter Wheel #2 Position ---------- (1) Neutral Density 0.494



************************************************************
HS scan start time = 01:01:18
Dark Count =  2.1 


Time (GMT)  Wavelength (Ang)  Step Number  Raw Counts  Counts/Second

   62.02        2950.00           1408         149.00       640.38
   62.16        2950.25           1412         101.00       431.13
   62.19        2950.50           1415         121.00       518.32
   62.23        2950.75           1418         112.00       479.08
   62.26        2951.00           1422         110.00       470.36
   62.29        2951.25           1425         101.00       431.13
   62.32        2951.50           1428         104.00       444.21
   62.35        2951.75           1432         145.00       622.94
   62.39        2952.00           1435         112.00       479.08
   62.42        2952.25           1439         128.00       548.83
   62.45        2952.50           1442         122.00       522.68
   62.48        2952.75           1445         108.00       461.65
   62.51        2953.00           1449         132.00       566.27
   62.55        2953.25           1452         130.00       557.55
   62.58        2953.50           1456         131.00       561.91
   62.61        2953.75           1459         114.00       487.80
   62.64        2954.00           1462         144.00       618.58
   62.67        2954.25           1466         126.00       540.11
   62.71        2954.50           1469         139.00       596.79
   62.74        2954.75           1472         154.00       662.18
   62.77        2955.00           1476         134.00       574.99
   62.80        2955.25           1479         121.00       518.32
   62.83        2955.50           1483         116.00       496.52
   62.87        2955.75           1486         160.00       688.33
   62.90        2956.00           1489         138.00       592.43
   62.93        2956.25           1493         147.00       631.66
   62.96        2956.50           1496         121.00       518.32
   62.99        2956.75           1499         141.00       605.50
   63.03        2957.00           1503         138.00       592.43
   63.06        2957.25           1506         142.00       609.86
   63.09        2957.50           1510         128.00       548.83
   63.12        2957.75           1513         184.00       792.96
   63.15        2958.00           1516         176.00       758.08
   63.19        2958.25           1520         136.00       583.71
   63.22        2958.50           1523         140.00       601.14
   63.25        2958.75           1527         147.00       631.66
   63.28        2959.00           1530         142.00       609.86
   63.32        2959.25           1533         141.00       605.50
   63.35        2959.50           1537         149.00       640.38
   63.38        2959.75           1540         147.00       631.66
   63.41        2960.00           1544         150.00       644.74
   63.45        2960.25           1547         161.00       692.69
   63.48        2960.50           1550         182.00       784.24
   63.51        2960.75           1554         178.00       766.80
   63.54        2961.00           1557         177.00       762.44
   63.58        2961.25           1560         255.00      1102.48
   63.61        2961.50           1564         659.00      2863.81
   63.64        2961.75           1567        1560.00      6792.63
   63.67        2962.00           1571        3490.00     15211.62
   63.70        2962.25           1574        5069.00     22102.76
   63.74        2962.50           1577        6587.00     28730.46
   63.77        2962.75           1581        8748.00     38170.26
   63.80        2963.00           1584       10451.00     45613.28
   63.83        2963.25           1588       12570.00     54879.25
   63.86        2963.50           1591       14349.00     62662.59
   63.89        2963.75           1594       15978.00     69792.96
   63.93        2964.00           1598       18609.00     81315.90
   63.96        2964.25           1601       20406.00     89190.91
   63.99        2964.50           1605       23015.00    100631.20
   64.02        2964.75           1608       24529.00    107273.80
   64.06        2965.00           1611       26355.00    115288.80
   64.09        2965.25           1615       29126.00    127459.50
   64.12        2965.50           1618       30779.00    134724.10
   64.15        2965.75           1621       32438.00    142018.40
   64.19        2966.00           1625       34803.00    152422.50
   64.22        2966.25           1628       36323.00    159112.90
   64.25        2966.50           1632       37758.00    165431.70
   64.28        2966.75           1635       38646.00    169343.10
   64.32        2967.00           1638       39002.00    170911.40
   64.35        2967.25           1642       38819.00    170105.20
   64.38        2967.50           1645       38868.00    170321.10
   64.41        2967.75           1649       38379.00    168166.90
   64.44        2968.00           1652       37584.00    164665.40
   64.48        2968.25           1655       36440.00    159628.00
   64.51        2968.50           1659       34323.00    150310.40
   64.54        2968.75           1662       32436.00    142009.60
   64.57        2969.00           1666       30168.00    132038.50
   64.60        2969.25           1669       28283.00    123755.90
   64.64        2969.50           1672       26711.00    116851.90
   64.67        2969.75           1676       24545.00    107344.00
   64.70        2970.00           1679       22783.00     99613.59
   64.73        2970.25           1683       20377.00     89063.80
   64.76        2970.50           1686       18842.00     82336.75
   64.80        2970.75           1689       17141.00     74885.50
   64.83        2971.00           1693       14734.00     64347.50
   64.86        2971.25           1696       13062.00     57031.44
   64.89        2971.50           1700       10684.00     46631.88
   64.93        2971.75           1703        8916.00     38904.35
   64.96        2972.00           1706        7152.00     31197.99
   64.99        2972.25           1710        4685.00     20426.62
   65.02        2972.50           1713        3090.00     13466.39
   65.06        2972.75           1717        1348.00      5868.11
   65.09        2973.00           1720         576.00      2501.94
   65.12        2973.25           1723         240.00      1037.09
   65.15        2973.50           1727         166.00       714.49
   65.19        2973.75           1730         169.00       727.57
   65.22        2974.00           1734         158.00       679.61
   65.25        2974.25           1737         153.00       657.82
   65.28        2974.50           1740         153.00       657.82
   65.32        2974.75           1744         133.00       570.63
   65.35        2975.00           1747         152.00       653.46
   65.38        2975.25           1751         139.00       596.79
   65.41        2975.50           1754         151.00       649.10
   65.44        2975.75           1757         138.00       592.43
   65.48        2976.00           1761         139.00       596.79
   65.51        2976.25           1764         162.00       697.05
   65.54        2976.50           1768         150.00       644.74
   65.57        2976.75           1771         141.00       605.50
   65.60        2977.00           1774         152.00       653.46
   65.64        2977.25           1778         113.00       483.44
   65.67        2977.50           1781         141.00       605.50
   65.70        2977.75           1785         153.00       657.82
   65.73        2978.00           1788         127.00       544.47
   65.76        2978.25           1791         115.00       492.16
   65.80        2978.50           1795         134.00       574.99
   65.83        2978.75           1798         114.00       487.80
   65.86        2979.00           1802         125.00       535.75
   65.89        2979.25           1805         109.00       466.00
   65.93        2979.50           1808         145.00       622.94
   65.96        2979.75           1812         119.00       509.60
   65.99        2980.00           1815         122.00       522.68
   66.02        2980.25           1819         135.00       579.35
   66.05        2980.50           1822         109.00       466.00
   66.09        2980.75           1825         110.00       470.36
   66.12        2981.00           1829         135.00       579.35
   66.15        2981.25           1832         135.00       579.35
   66.18        2981.50           1836         109.00       466.00
   66.21        2981.75           1839         104.00       444.21
   66.25        2982.00           1842         121.00       518.32
   66.28        2982.25           1846         137.00       588.07
   66.31        2982.50           1849         121.00       518.32
   66.34        2982.75           1853         107.00       457.29
   66.37        2983.00           1856         101.00       431.13
   66.41        2983.25           1859         136.00       583.71
   66.44        2983.50           1863         121.00       518.32
   66.47        2983.75           1866         100.00       426.77
   66.50        2984.00           1870         105.00       448.57
HS scan finished at 01:06:43
end
