************************************************************
  HS Scan of (1) Internal mercury lamp
************************************************************
Integration time is 0.2294 seconds per sample
dh170317Madrid 40.45 3.717 2.56pr940
************************************************************
Dead Time -------------------------  3.1E-08 
Number of Cycles Used -------------  4 
Starting Wavelength (Angstroms) ---  2950 
Final Wavelength (Angstoms) -------  2984 
Wavelength Increment (Angstroms) --  .25 
Filter Wheel #1 Position ---------- (1) Ground quartz diffuser (ND=2.32)
Filter Wheel #2 Position ---------- (1) Neutral Density 0.494



************************************************************
HS scan start time = 00:59:34
Dark Count =  1.3 


Time (GMT)  Wavelength (Ang)  Step Number  Raw Counts  Counts/Second

   60.30        2950.00           1408          98.00       421.54
   60.44        2950.25           1412         109.00       469.49
   60.47        2950.50           1415         143.00       617.71
   60.50        2950.75           1418         106.00       456.41
   60.53        2951.00           1422         114.00       491.29
   60.57        2951.25           1425         103.00       443.34
   60.60        2951.50           1428         120.00       517.45
   60.63        2951.75           1432         102.00       438.98
   60.66        2952.00           1435         117.00       504.37
   60.70        2952.25           1439         104.00       447.70
   60.73        2952.50           1442         147.00       635.15
   60.76        2952.75           1445         122.00       526.16
   60.79        2953.00           1449         114.00       491.29
   60.83        2953.25           1452         150.00       648.23
   60.86        2953.50           1456         134.00       578.48
   60.89        2953.75           1459         119.00       513.09
   60.92        2954.00           1462         139.00       600.27
   60.96        2954.25           1466         125.00       539.24
   60.99        2954.50           1469         118.00       508.73
   61.02        2954.75           1472         116.00       500.01
   61.05        2955.00           1476         129.00       556.68
   61.08        2955.25           1479         112.00       482.57
   61.11        2955.50           1483         137.00       591.55
   61.15        2955.75           1486         141.00       608.99
   61.18        2956.00           1489         138.00       595.91
   61.21        2956.25           1493         124.00       534.88
   61.24        2956.50           1496         129.00       556.68
   61.27        2956.75           1499         127.00       547.96
   61.31        2957.00           1503         172.00       744.13
   61.34        2957.25           1506         129.00       556.68
   61.37        2957.50           1510         144.00       622.07
   61.40        2957.75           1513         164.00       709.26
   61.44        2958.00           1516         174.00       752.85
   61.47        2958.25           1520         172.00       744.13
   61.50        2958.50           1523         134.00       578.48
   61.53        2958.75           1527         142.00       613.35
   61.56        2959.00           1530         164.00       709.26
   61.60        2959.25           1533         171.00       739.77
   61.63        2959.50           1537         143.00       617.71
   61.66        2959.75           1540         139.00       600.27
   61.69        2960.00           1544         141.00       608.99
   61.72        2960.25           1547         147.00       635.15
   61.76        2960.50           1550         154.00       665.66
   61.79        2960.75           1554         164.00       709.26
   61.82        2961.00           1557         176.00       761.57
   61.85        2961.25           1560         248.00      1075.45
   61.88        2961.50           1564         556.00      2418.23
   61.92        2961.75           1567        1278.00      5566.35
   61.95        2962.00           1571        3010.00     13120.86
   61.98        2962.25           1574        4592.00     20024.20
   62.01        2962.50           1577        6256.00     27288.55
   62.04        2962.75           1581        8267.00     36072.14
   62.08        2963.00           1584        9835.00     42924.13
   62.11        2963.25           1588       12035.00     52542.80
   62.14        2963.50           1591       14041.00     61318.28
   62.17        2963.75           1594       15827.00     69135.38
   62.20        2964.00           1598       18160.00     79352.33
   62.24        2964.25           1601       20078.00     87756.72
   62.27        2964.50           1605       22520.00     98463.56
   62.30        2964.75           1608       24201.00    105838.00
   62.33        2965.00           1611       25847.00    113062.10
   62.36        2965.25           1615       28189.00    123346.50
   62.40        2965.50           1618       29895.00    130842.20
   62.43        2965.75           1621       31322.00    137114.70
   62.46        2966.00           1625       33883.00    148378.00
   62.49        2966.25           1628       35312.00    154666.10
   62.53        2966.50           1632       37106.00    162563.90
   62.56        2966.75           1635       38055.00    166743.30
   62.59        2967.00           1638       38037.00    166664.00
   62.62        2967.25           1642       38286.00    167760.80
   62.65        2967.50           1645       37946.00    166263.20
   62.69        2967.75           1649       37806.00    165646.60
   62.72        2968.00           1652       37161.00    162806.10
   62.75        2968.25           1655       35917.00    157329.10
   62.78        2968.50           1659       34021.00    148985.10
   62.81        2968.75           1662       32248.00    141186.40
   62.85        2969.00           1666       29412.00    128719.70
   62.88        2969.25           1669       27630.00    120891.20
   62.91        2969.50           1672       26002.00    113742.60
   62.94        2969.75           1676       24005.00    104978.00
   62.97        2970.00           1679       22297.00     97485.52
   63.01        2970.25           1683       20068.00     87712.89
   63.04        2970.50           1686       18673.00     81599.79
   63.07        2970.75           1689       16948.00     74043.78
   63.10        2971.00           1693       14729.00     64329.12
   63.13        2971.25           1696       12960.00     56588.73
   63.17        2971.50           1700       10568.00     46128.26
   63.20        2971.75           1703        8836.00     38558.27
   63.23        2972.00           1706        6976.00     30432.80
   63.26        2972.25           1710        4613.00     20115.86
   63.29        2972.50           1713        3074.00     13400.07
   63.33        2972.75           1717        1359.00      5919.57
   63.36        2973.00           1720         585.00      2544.66
   63.39        2973.25           1723         248.00      1075.45
   63.42        2973.50           1727         155.00       670.02
   63.45        2973.75           1730         152.00       656.94
   63.49        2974.00           1734         165.00       713.62
   63.52        2974.25           1737         141.00       608.99
   63.55        2974.50           1740         153.00       661.30
   63.58        2974.75           1744         147.00       635.15
   63.62        2975.00           1747         146.00       630.79
   63.65        2975.25           1751         145.00       626.43
   63.68        2975.50           1754         132.00       569.76
   63.71        2975.75           1757         154.00       665.66
   63.74        2976.00           1761         163.00       704.90
   63.77        2976.25           1764         115.00       495.65
   63.81        2976.50           1768         150.00       648.23
   63.84        2976.75           1771         158.00       683.10
   63.87        2977.00           1774         127.00       547.96
   63.90        2977.25           1778         140.00       604.63
   63.94        2977.50           1781         124.00       534.88
   63.97        2977.75           1785         145.00       626.43
   64.00        2978.00           1788         132.00       569.76
   64.03        2978.25           1791         137.00       591.55
   64.06        2978.50           1795         149.00       643.87
   64.09        2978.75           1798         128.00       552.32
   64.13        2979.00           1802         125.00       539.24
   64.16        2979.25           1805         143.00       617.71
   64.19        2979.50           1808         137.00       591.55
   64.22        2979.75           1812         136.00       587.19
   64.26        2980.00           1815         131.00       565.40
   64.29        2980.25           1819         103.00       443.34
   64.32        2980.50           1822         106.00       456.41
   64.35        2980.75           1825         143.00       617.71
   64.38        2981.00           1829         143.00       617.71
   64.42        2981.25           1832         100.00       430.26
   64.45        2981.50           1836         165.00       713.62
   64.48        2981.75           1839         105.00       452.06
   64.51        2982.00           1842         132.00       569.76
   64.54        2982.25           1846         112.00       482.57
   64.58        2982.50           1849         160.00       691.82
   64.61        2982.75           1853         119.00       513.09
   64.64        2983.00           1856          95.00       408.46
   64.67        2983.25           1859         125.00       539.24
   64.70        2983.50           1863         104.00       447.70
   64.74        2983.75           1866         126.00       543.60
   64.77        2984.00           1870          99.00       425.90
HS scan finished at 01:04:59
end
