************************************************************
  HS Scan of (1) Internal mercury lamp
************************************************************
Integration time is 0.2294 seconds per sample
dh240317Madrid 40.45 3.717 2.19pr940
************************************************************
Dead Time -------------------------  3.1E-08 
Number of Cycles Used -------------  4 
Starting Wavelength (Angstroms) ---  2950 
Final Wavelength (Angstoms) -------  2984 
Wavelength Increment (Angstroms) --  .25 
Filter Wheel #1 Position ---------- (1) Ground quartz diffuser (ND=2.32)
Filter Wheel #2 Position ---------- (1) Neutral Density 0.494



************************************************************
HS scan start time = 00:58:43
Dark Count =  .5 


Time (GMT)  Wavelength (Ang)  Step Number  Raw Counts  Counts/Second

   59.44        2950.00           1408         133.00       577.60
   59.58        2950.25           1412         113.00       490.42
   59.61        2950.50           1415         131.00       568.89
   59.64        2950.75           1418         133.00       577.60
   59.68        2951.00           1422         114.00       494.78
   59.71        2951.25           1425         182.00       791.21
   59.74        2951.50           1428         122.00       529.65
   59.77        2951.75           1432         153.00       664.79
   59.80        2952.00           1435         150.00       651.71
   59.84        2952.25           1439         132.00       573.24
   59.87        2952.50           1442         119.00       516.57
   59.90        2952.75           1445         112.00       486.06
   59.93        2953.00           1449         135.00       586.32
   59.96        2953.25           1452         117.00       507.85
   60.00        2953.50           1456         138.00       599.40
   60.03        2953.75           1459         154.00       669.15
   60.06        2954.00           1462         140.00       608.12
   60.09        2954.25           1466         124.00       538.37
   60.12        2954.50           1469         141.00       612.48
   60.16        2954.75           1472         119.00       516.57
   60.19        2955.00           1476         128.00       555.81
   60.22        2955.25           1479         154.00       669.15
   60.25        2955.50           1483         136.00       590.68
   60.28        2955.75           1486         137.00       595.04
   60.32        2956.00           1489         125.00       542.73
   60.35        2956.25           1493         158.00       686.59
   60.38        2956.50           1496         141.00       612.48
   60.41        2956.75           1499         131.00       568.89
   60.45        2957.00           1503         139.00       603.76
   60.48        2957.25           1506         169.00       734.54
   60.51        2957.50           1510         137.00       595.04
   60.54        2957.75           1513         138.00       599.40
   60.57        2958.00           1516         161.00       699.67
   60.61        2958.25           1520         145.00       629.92
   60.64        2958.50           1523         138.00       599.40
   60.67        2958.75           1527         141.00       612.48
   60.70        2959.00           1530         156.00       677.87
   60.73        2959.25           1533         150.00       651.71
   60.76        2959.50           1537         144.00       625.56
   60.80        2959.75           1540         150.00       651.71
   60.83        2960.00           1544         157.00       682.23
   60.86        2960.25           1547         154.00       669.15
   60.89        2960.50           1550         163.00       708.39
   60.92        2960.75           1554         170.00       738.90
   60.96        2961.00           1557         184.00       799.93
   60.99        2961.25           1560         229.00       996.11
   61.02        2961.50           1564         567.00      2469.67
   61.05        2961.75           1567        1138.00      4959.35
   61.09        2962.00           1571        2745.00     11968.26
   61.12        2962.25           1574        4285.00     18687.81
   61.15        2962.50           1577        5837.00     25462.55
   61.18        2962.75           1581        7887.00     34415.51
   61.21        2963.00           1584        9375.00     40917.17
   61.25        2963.25           1588       11675.00     50971.94
   61.28        2963.50           1591       13263.00     57917.76
   61.31        2963.75           1594       15106.00     65982.70
   61.34        2964.00           1598       17523.00     76565.56
   61.37        2964.25           1601       19218.00     83991.30
   61.41        2964.50           1605       21318.00     93196.06
   61.44        2964.75           1608       23145.00    101208.50
   61.47        2965.00           1611       24744.00    108224.30
   61.50        2965.25           1615       27151.00    118791.10
   61.53        2965.50           1618       29172.00    127668.60
   61.57        2965.75           1621       31185.00    136515.90
   61.60        2966.00           1625       33260.00    145640.80
   61.63        2966.25           1628       34853.00    152649.60
   61.66        2966.50           1632       36323.00    159119.90
   61.69        2966.75           1635       37285.00    163355.70
   61.73        2967.00           1638       37567.00    164597.50
   61.76        2967.25           1642       37553.00    164535.90
   61.79        2967.50           1645       37429.00    163989.80
   61.82        2967.75           1649       37009.00    162140.30
   61.85        2968.00           1652       36082.00    158059.00
   61.89        2968.25           1655       35097.00    153723.40
   61.92        2968.50           1659       32729.00    143305.20
   61.95        2968.75           1662       31176.00    136476.40
   61.98        2969.00           1666       28882.00    126394.50
   62.01        2969.25           1669       26996.00    118110.40
   62.05        2969.50           1672       25718.00    112499.30
   62.08        2969.75           1676       23501.00    102770.20
   62.11        2970.00           1679       21905.00     95769.97
   62.15        2970.25           1683       19945.00     87177.31
   62.18        2970.50           1686       18344.00     80161.91
   62.21        2970.75           1689       16707.00     72991.93
   62.24        2971.00           1693       14471.00     63203.49
   62.27        2971.25           1696       12771.00     55765.46
   62.31        2971.50           1700       10436.00     45554.70
   62.34        2971.75           1703        8839.00     38574.88
   62.37        2972.00           1706        7094.00     30951.66
   62.40        2972.25           1710        4730.00     20630.01
   62.44        2972.50           1713        2966.00     12932.39
   62.47        2972.75           1717        1449.00      6315.53
   62.50        2973.00           1720         636.00      2770.51
   62.53        2973.25           1723         288.00      1253.32
   62.56        2973.50           1727         176.00       765.06
   62.59        2973.75           1730         162.00       704.03
   62.63        2974.00           1734         154.00       669.15
   62.66        2974.25           1737         156.00       677.87
   62.69        2974.50           1740         153.00       664.79
   62.72        2974.75           1744         156.00       677.87
   62.75        2975.00           1747         159.00       690.95
   62.79        2975.25           1751         148.00       642.99
   62.82        2975.50           1754         141.00       612.48
   62.85        2975.75           1757         159.00       690.95
   62.88        2976.00           1761         155.00       673.51
   62.92        2976.25           1764         154.00       669.15
   62.95        2976.50           1768         159.00       690.95
   62.98        2976.75           1771         132.00       573.24
   63.01        2977.00           1774         145.00       629.92
   63.05        2977.25           1778         152.00       660.43
   63.08        2977.50           1781         167.00       725.82
   63.11        2977.75           1785         167.00       725.82
   63.14        2978.00           1788         146.00       634.28
   63.17        2978.25           1791         135.00       586.32
   63.20        2978.50           1795         159.00       690.95
   63.24        2978.75           1798         129.00       560.17
   63.27        2979.00           1802         160.00       695.31
   63.30        2979.25           1805         145.00       629.92
   63.33        2979.50           1808         130.00       564.53
   63.36        2979.75           1812         140.00       608.12
   63.40        2980.00           1815         123.00       534.01
   63.43        2980.25           1819         135.00       586.32
   63.46        2980.50           1822         159.00       690.95
   63.49        2980.75           1825         118.00       512.21
   63.52        2981.00           1829         114.00       494.78
   63.56        2981.25           1832         151.00       656.07
   63.59        2981.50           1836         135.00       586.32
   63.62        2981.75           1839         114.00       494.78
   63.65        2982.00           1842         114.00       494.78
   63.69        2982.25           1846         137.00       595.04
   63.72        2982.50           1849         121.00       525.29
   63.75        2982.75           1853         148.00       642.99
   63.78        2983.00           1856         137.00       595.04
   63.81        2983.25           1859         135.00       586.32
   63.85        2983.50           1863         131.00       568.89
   63.88        2983.75           1866         136.00       590.68
   63.91        2984.00           1870         138.00       599.40
HS scan finished at 01:04:08
end
