************************************************************
  HS Scan of (1) Internal mercury lamp
************************************************************
Integration time is 0.2294 seconds per sample
dh310317Madrid 40.45 3.717 2.84pr940
************************************************************
Dead Time -------------------------  3.1E-08 
Number of Cycles Used -------------  4 
Starting Wavelength (Angstroms) ---  2950 
Final Wavelength (Angstoms) -------  2984 
Wavelength Increment (Angstroms) --  .25 
Filter Wheel #1 Position ---------- (1) Ground quartz diffuser (ND=2.32)
Filter Wheel #2 Position ---------- (1) Neutral Density 0.494



************************************************************
HS scan start time = 00:55:17
Dark Count =  2.1 


Time (GMT)  Wavelength (Ang)  Step Number  Raw Counts  Counts/Second

   56.01        2950.00           1408          92.00       391.90
   56.15        2950.25           1412          98.00       418.05
   56.18        2950.50           1415          88.00       374.46
   56.21        2950.75           1418         103.00       439.85
   56.25        2951.00           1422          93.00       396.26
   56.28        2951.25           1425          95.00       404.97
   56.31        2951.50           1428          92.00       391.90
   56.34        2951.75           1432          92.00       391.90
   56.38        2952.00           1435          94.00       400.62
   56.41        2952.25           1439         113.00       483.44
   56.44        2952.50           1442         112.00       479.08
   56.47        2952.75           1445         116.00       496.52
   56.50        2953.00           1449         121.00       518.32
   56.54        2953.25           1452          99.00       422.41
   56.57        2953.50           1456          93.00       396.26
   56.60        2953.75           1459          99.00       422.41
   56.63        2954.00           1462          91.00       387.54
   56.66        2954.25           1466          99.00       422.41
   56.70        2954.50           1469         108.00       461.65
   56.73        2954.75           1472         102.00       435.49
   56.76        2955.00           1476         113.00       483.44
   56.79        2955.25           1479         128.00       548.83
   56.82        2955.50           1483         105.00       448.57
   56.86        2955.75           1486          96.00       409.33
   56.89        2956.00           1489         124.00       531.39
   56.92        2956.25           1493         116.00       496.52
   56.95        2956.50           1496         109.00       466.00
   56.98        2956.75           1499         105.00       448.57
   57.01        2957.00           1503         129.00       553.19
   57.05        2957.25           1506         102.00       435.49
   57.08        2957.50           1510         110.00       470.36
   57.11        2957.75           1513         136.00       583.71
   57.14        2958.00           1516         130.00       557.55
   57.18        2958.25           1520         137.00       588.07
   57.21        2958.50           1523         133.00       570.63
   57.24        2958.75           1527         120.00       513.96
   57.27        2959.00           1530         152.00       653.46
   57.31        2959.25           1533         121.00       518.32
   57.34        2959.50           1537         119.00       509.60
   57.37        2959.75           1540         143.00       614.22
   57.40        2960.00           1544         148.00       636.02
   57.44        2960.25           1547         165.00       710.13
   57.47        2960.50           1550         162.00       697.05
   57.50        2960.75           1554         138.00       592.43
   57.53        2961.00           1557         167.00       718.85
   57.56        2961.25           1560         275.00      1189.67
   57.60        2961.50           1564         649.00      2820.21
   57.63        2961.75           1567        1521.00      6622.55
   57.66        2962.00           1571        3206.00     13972.49
   57.69        2962.25           1574        4678.00     20396.07
   57.72        2962.50           1577        6160.00     26865.87
   57.76        2962.75           1581        7977.00     34801.70
   57.79        2963.00           1584        9543.00     41644.40
   57.82        2963.25           1588       11601.00     50641.34
   57.85        2963.50           1591       13179.00     57543.28
   57.88        2963.75           1594       14832.00     64776.42
   57.92        2964.00           1598       17125.00     74815.43
   57.95        2964.25           1601       18830.00     82284.18
   57.98        2964.50           1605       21148.00     92443.71
   58.01        2964.75           1608       22889.00    100078.50
   58.05        2965.00           1611       24316.00    106339.10
   58.08        2965.25           1615       26795.00    117220.70
   58.11        2965.50           1618       28283.00    123755.90
   58.14        2965.75           1621       29840.00    130597.00
   58.17        2966.00           1625       31755.00    139015.00
   58.21        2966.25           1628       33311.00    145858.10
   58.24        2966.50           1632       35061.00    153557.90
   58.27        2966.75           1635       35471.00    155362.40
   58.30        2967.00           1638       35900.00    157250.70
   58.33        2967.25           1642       35829.00    156938.20
   58.37        2967.50           1645       35801.00    156815.00
   58.40        2967.75           1649       35172.00    154046.40
   58.43        2968.00           1652       34548.00    151300.40
   58.46        2968.25           1655       33262.00    145642.60
   58.49        2968.50           1659       31238.00    136741.90
   58.53        2968.75           1662       29464.00    128944.70
   58.56        2969.00           1666       27309.00    119477.90
   58.59        2969.25           1669       25921.00    113383.50
   58.62        2969.50           1672       24414.00    106769.10
   58.65        2969.75           1676       22380.00     97846.03
   58.69        2970.00           1679       20750.00     90698.86
   58.72        2970.25           1683       18664.00     81556.85
   58.75        2970.50           1686       17199.00     75139.52
   58.78        2970.75           1689       15588.00     68085.58
   58.81        2971.00           1693       13525.00     59057.03
   58.85        2971.25           1696       11935.00     52101.96
   58.88        2971.50           1700        9641.00     42072.71
   58.91        2971.75           1703        8168.00     35636.12
   58.94        2972.00           1706        6424.00     28018.66
   58.97        2972.25           1710        4118.00     17952.01
   59.01        2972.50           1713        2665.00     11612.29
   59.04        2972.75           1717        1120.00      4873.88
   59.07        2973.00           1720         507.00      2201.11
   59.10        2973.25           1723         210.00       906.30
   59.14        2973.50           1727         152.00       653.46
   59.17        2973.75           1730         141.00       605.50
   59.20        2974.00           1734         118.00       505.24
   59.23        2974.25           1737         167.00       718.85
   59.26        2974.50           1740         138.00       592.43
   59.30        2974.75           1744         138.00       592.43
   59.33        2975.00           1747         137.00       588.07
   59.36        2975.25           1751         136.00       583.71
   59.39        2975.50           1754         130.00       557.55
   59.42        2975.75           1757         147.00       631.66
   59.45        2976.00           1761         146.00       627.30
   59.49        2976.25           1764         128.00       548.83
   59.52        2976.50           1768         102.00       435.49
   59.55        2976.75           1771         118.00       505.24
   59.58        2977.00           1774         146.00       627.30
   59.61        2977.25           1778         128.00       548.83
   59.65        2977.50           1781         107.00       457.29
   59.68        2977.75           1785         126.00       540.11
   59.71        2978.00           1788          98.00       418.05
   59.74        2978.25           1791          96.00       409.33
   59.78        2978.50           1795         124.00       531.39
   59.81        2978.75           1798         100.00       426.77
   59.84        2979.00           1802          95.00       404.97
   59.87        2979.25           1805         121.00       518.32
   59.90        2979.50           1808          94.00       400.62
   59.94        2979.75           1812          98.00       418.05
   59.97        2980.00           1815         102.00       435.49
   60.00        2980.25           1819          99.00       422.41
   60.03        2980.50           1822         113.00       483.44
   60.06        2980.75           1825          97.00       413.69
   60.10        2981.00           1829         101.00       431.13
   60.13        2981.25           1832          96.00       409.33
   60.16        2981.50           1836          93.00       396.26
   60.19        2981.75           1839          92.00       391.90
   60.22        2982.00           1842          97.00       413.69
   60.26        2982.25           1846          85.00       361.38
   60.29        2982.50           1849          97.00       413.69
   60.32        2982.75           1853         101.00       431.13
   60.35        2983.00           1856          90.00       383.18
   60.39        2983.25           1859          92.00       391.90
   60.42        2983.50           1863          93.00       396.26
   60.45        2983.75           1866          81.00       343.94
   60.48        2984.00           1870         107.00       457.29
HS scan finished at 01:00:42
end
