************************************************************
  HS Scan of (1) Internal mercury lamp
************************************************************
Integration time is 0.2294 seconds per sample
dh070417Madrid 40.45 3.717 2.72pr940
************************************************************
Dead Time -------------------------  3.1E-08 
Number of Cycles Used -------------  4 
Starting Wavelength (Angstroms) ---  2950 
Final Wavelength (Angstoms) -------  2984 
Wavelength Increment (Angstroms) --  .25 
Filter Wheel #1 Position ---------- (1) Ground quartz diffuser (ND=2.32)
Filter Wheel #2 Position ---------- (1) Neutral Density 0.494



************************************************************
HS scan start time = 00:53:18
Dark Count =  2.4 


Time (GMT)  Wavelength (Ang)  Step Number  Raw Counts  Counts/Second

   54.03        2950.00           1408         102.00       434.18
   54.16        2950.25           1412          93.00       394.95
   54.20        2950.50           1415          79.00       333.92
   54.23        2950.75           1418          91.00       386.23
   54.26        2951.00           1422          98.00       416.74
   54.29        2951.25           1425          95.00       403.67
   54.33        2951.50           1428          88.00       373.15
   54.36        2951.75           1432          95.00       403.67
   54.39        2952.00           1435          89.00       377.51
   54.42        2952.25           1439          95.00       403.67
   54.45        2952.50           1442          90.00       381.87
   54.49        2952.75           1445          98.00       416.74
   54.52        2953.00           1449          91.00       386.23
   54.55        2953.25           1452         114.00       486.49
   54.58        2953.50           1456          96.00       408.03
   54.61        2953.75           1459         107.00       455.98
   54.65        2954.00           1462         100.00       425.46
   54.68        2954.25           1466         106.00       451.62
   54.71        2954.50           1469         104.00       442.90
   54.74        2954.75           1472          87.00       368.79
   54.77        2955.00           1476         113.00       482.13
   54.81        2955.25           1479         103.00       438.54
   54.84        2955.50           1483         107.00       455.98
   54.87        2955.75           1486         122.00       521.37
   54.90        2956.00           1489         109.00       464.70
   54.93        2956.25           1493         121.00       517.01
   54.97        2956.50           1496         129.00       551.88
   55.00        2956.75           1499         105.00       447.26
   55.03        2957.00           1503         106.00       451.62
   55.06        2957.25           1506         103.00       438.54
   55.09        2957.50           1510         105.00       447.26
   55.13        2957.75           1513         109.00       464.70
   55.16        2958.00           1516         111.00       473.42
   55.19        2958.25           1520         136.00       582.40
   55.22        2958.50           1523         117.00       499.57
   55.26        2958.75           1527         126.00       538.81
   55.29        2959.00           1530         125.00       534.45
   55.32        2959.25           1533         145.00       621.63
   55.35        2959.50           1537         136.00       582.40
   55.39        2959.75           1540         123.00       525.73
   55.42        2960.00           1544         164.00       704.46
   55.45        2960.25           1547         164.00       704.46
   55.48        2960.50           1550         131.00       560.60
   55.51        2960.75           1554         138.00       591.12
   55.55        2961.00           1557         169.00       726.26
   55.58        2961.25           1560         279.00      1205.80
   55.61        2961.50           1564         773.00      3359.55
   55.64        2961.75           1567        1603.00      6978.84
   55.68        2962.00           1571        3413.00     14874.34
   55.71        2962.25           1574        4639.00     20224.53
   55.74        2962.50           1577        6006.00     26192.14
   55.77        2962.75           1581        7960.00     34726.12
   55.80        2963.00           1584        9301.00     40585.47
   55.83        2963.25           1588       11102.00     48458.09
   55.87        2963.50           1591       12408.00     54169.35
   55.90        2963.75           1594       14030.00     61265.33
   55.93        2964.00           1598       16254.00     71000.04
   55.96        2964.25           1601       17946.00     78410.06
   56.00        2964.50           1605       19858.00     86787.68
   56.03        2964.75           1608       21619.00     94507.51
   56.06        2965.00           1611       22872.00    100002.70
   56.09        2965.25           1615       25072.00    109655.50
   56.13        2965.50           1618       26683.00    116727.60
   56.16        2965.75           1621       28120.00    123038.60
   56.19        2966.00           1625       29644.00    129734.30
   56.22        2966.25           1628       30890.00    135210.70
   56.26        2966.50           1632       32203.00    140983.60
   56.29        2966.75           1635       33077.00    144827.50
   56.32        2967.00           1638       33098.00    144919.90
   56.35        2967.25           1642       32836.00    143767.50
   56.39        2967.50           1645       32941.00    144229.30
   56.42        2967.75           1649       32473.00    142171.00
   56.45        2968.00           1652       31733.00    138916.90
   56.48        2968.25           1655       30423.00    133158.00
   56.52        2968.50           1659       28758.00    125841.30
   56.55        2968.75           1662       27073.00    118440.20
   56.58        2969.00           1666       25106.00    109804.70
   56.61        2969.25           1669       23767.00    103928.90
   56.64        2969.50           1672       22180.00     96967.59
   56.68        2969.75           1676       20069.00     87712.46
   56.71        2970.00           1679       18709.00     81752.70
   56.74        2970.25           1683       16920.00     73916.35
   56.77        2970.50           1686       15318.00     66902.35
   56.80        2970.75           1689       13995.00     61112.18
   56.84        2971.00           1693       12098.00     52813.51
   56.87        2971.25           1696       10510.00     45869.89
   56.90        2971.50           1700        8460.00     36910.56
   56.93        2971.75           1703        6999.00     30528.44
   56.96        2972.00           1706        5531.00     24118.29
   57.00        2972.25           1710        3400.00     14817.62
   57.03        2972.50           1713        2124.00      9251.13
   57.06        2972.75           1717         817.00      3551.39
   57.09        2973.00           1720         305.00      1319.15
   57.12        2973.25           1723         156.00       669.59
   57.16        2973.50           1727         141.00       604.20
   57.19        2973.75           1730         142.00       608.56
   57.22        2974.00           1734         142.00       608.56
   57.25        2974.25           1737         142.00       608.56
   57.29        2974.50           1740         134.00       573.68
   57.32        2974.75           1744         133.00       569.32
   57.35        2975.00           1747         138.00       591.12
   57.38        2975.25           1751         102.00       434.18
   57.42        2975.50           1754         113.00       482.13
   57.45        2975.75           1757         127.00       543.17
   57.48        2976.00           1761         125.00       534.45
   57.51        2976.25           1764         150.00       643.43
   57.54        2976.50           1768         113.00       482.13
   57.58        2976.75           1771          97.00       412.39
   57.61        2977.00           1774         121.00       517.01
   57.64        2977.25           1778         100.00       425.46
   57.67        2977.50           1781         102.00       434.18
   57.70        2977.75           1785          98.00       416.74
   57.74        2978.00           1788         134.00       573.68
   57.77        2978.25           1791          96.00       408.03
   57.80        2978.50           1795          97.00       412.39
   57.83        2978.75           1798         102.00       434.18
   57.87        2979.00           1802         114.00       486.49
   57.90        2979.25           1805          92.00       390.59
   57.93        2979.50           1808          88.00       373.15
   57.96        2979.75           1812          94.00       399.31
   57.99        2980.00           1815          97.00       412.39
   58.03        2980.25           1819          87.00       368.79
   58.06        2980.50           1822          97.00       412.39
   58.09        2980.75           1825          88.00       373.15
   58.12        2981.00           1829          82.00       347.00
   58.15        2981.25           1832          93.00       394.95
   58.19        2981.50           1836          91.00       386.23
   58.22        2981.75           1839          90.00       381.87
   58.25        2982.00           1842          90.00       381.87
   58.28        2982.25           1846          80.00       338.28
   58.31        2982.50           1849          91.00       386.23
   58.35        2982.75           1853          85.00       360.07
   58.38        2983.00           1856          87.00       368.79
   58.41        2983.25           1859          89.00       377.51
   58.44        2983.50           1863          89.00       377.51
   58.47        2983.75           1866          86.00       364.43
   58.51        2984.00           1870          79.00       333.92
HS scan finished at 00:58:44
end
