************************************************************
  HS Scan of (1) Internal mercury lamp
************************************************************
Integration time is 0.2294 seconds per sample
dh140417Madrid 40.45 3.717 2.98pr940
************************************************************
Dead Time -------------------------  3.1E-08 
Number of Cycles Used -------------  4 
Starting Wavelength (Angstroms) ---  2950 
Final Wavelength (Angstoms) -------  2984 
Wavelength Increment (Angstroms) --  .25 
Filter Wheel #1 Position ---------- (1) Ground quartz diffuser (ND=2.32)
Filter Wheel #2 Position ---------- (1) Neutral Density 0.494



************************************************************
HS scan start time = 00:51:31
Dark Count =  3.9 


Time (GMT)  Wavelength (Ang)  Step Number  Raw Counts  Counts/Second

   52.25        2950.00           1408          80.00       331.74
   52.39        2950.25           1412          97.00       405.85
   52.42        2950.50           1415          92.00       384.05
   52.45        2950.75           1418          95.00       397.13
   52.48        2951.00           1422          91.00       379.69
   52.51        2951.25           1425          85.00       353.53
   52.55        2951.50           1428          97.00       405.85
   52.58        2951.75           1432          92.00       384.05
   52.61        2952.00           1435          95.00       397.13
   52.64        2952.25           1439         103.00       432.00
   52.67        2952.50           1442          90.00       375.33
   52.71        2952.75           1445          97.00       405.85
   52.74        2953.00           1449          94.00       392.77
   52.77        2953.25           1452          88.00       366.61
   52.80        2953.50           1456         100.00       418.92
   52.84        2953.75           1459          90.00       375.33
   52.87        2954.00           1462         113.00       475.60
   52.90        2954.25           1466          96.00       401.49
   52.93        2954.50           1469         114.00       479.95
   52.97        2954.75           1472          94.00       392.77
   53.00        2955.00           1476         101.00       423.28
   53.03        2955.25           1479          94.00       392.77
   53.06        2955.50           1483         110.00       462.52
   53.10        2955.75           1486          89.00       370.97
   53.13        2956.00           1489         123.00       519.19
   53.16        2956.25           1493         107.00       449.44
   53.19        2956.50           1496         130.00       549.70
   53.22        2956.75           1499         136.00       575.86
   53.26        2957.00           1503          99.00       414.57
   53.29        2957.25           1506         103.00       432.00
   53.32        2957.50           1510         118.00       497.39
   53.35        2957.75           1513         116.00       488.67
   53.38        2958.00           1516         127.00       536.63
   53.41        2958.25           1520         148.00       628.17
   53.45        2958.50           1523         106.00       445.08
   53.48        2958.75           1527         130.00       549.70
   53.51        2959.00           1530         121.00       510.47
   53.54        2959.25           1533         114.00       479.95
   53.58        2959.50           1537         113.00       475.60
   53.61        2959.75           1540         124.00       523.55
   53.64        2960.00           1544         140.00       593.30
   53.67        2960.25           1547         121.00       510.47
   53.71        2960.50           1550         136.00       575.86
   53.74        2960.75           1554         135.00       571.50
   53.77        2961.00           1557         148.00       628.17
   53.80        2961.25           1560         228.00       976.93
   53.84        2961.50           1564         608.00      2633.61
   53.87        2961.75           1567        1475.00      6414.09
   53.90        2962.00           1571        3176.00     13833.74
   53.93        2962.25           1574        4612.00     20100.14
   53.96        2962.50           1577        6153.00     26827.45
   54.00        2962.75           1581        7827.00     34138.55
   54.03        2963.00           1584        9301.00     40578.92
   54.06        2963.25           1588       11104.00     48460.28
   54.09        2963.50           1591       12657.00     55251.92
   54.12        2963.75           1594       14243.00     62190.84
   54.16        2964.00           1598       16104.00     70336.72
   54.19        2964.25           1601       17521.00     76541.91
   54.22        2964.50           1605       19560.00     85475.10
   54.25        2964.75           1608       21203.00     92676.94
   54.28        2965.00           1611       22962.00    100390.90
   54.32        2965.25           1615       25226.00    110324.80
   54.35        2965.50           1618       26508.00    115952.70
   54.38        2965.75           1621       27947.00    122272.10
   54.41        2966.00           1625       29614.00    129595.90
   54.45        2966.25           1628       30843.00    134997.50
   54.48        2966.50           1632       32150.00    140744.00
   54.51        2966.75           1635       32349.00    141619.10
   54.54        2967.00           1638       32122.00    140620.80
   54.57        2967.25           1642       31731.00    138901.50
   54.61        2967.50           1645       31529.00    138013.40
   54.64        2967.75           1649       30786.00    134747.00
   54.67        2968.00           1652       29712.00    130026.60
   54.70        2968.25           1655       28699.00    125575.50
   54.73        2968.50           1659       26826.00    117349.00
   54.76        2968.75           1662       25093.00    109741.10
   54.80        2969.00           1666       23557.00    103001.00
   54.83        2969.25           1669       22081.00     96526.85
   54.86        2969.50           1672       20818.00     90989.07
   54.89        2969.75           1676       18994.00     82994.86
   54.93        2970.00           1679       17782.00     77685.12
   54.96        2970.25           1683       16044.00     70074.03
   54.99        2970.50           1686       14734.00     64339.62
   55.02        2970.75           1689       13221.00     57719.14
   55.05        2971.00           1693       11497.00     50178.69
   55.09        2971.25           1696       10157.00     44320.22
   55.12        2971.50           1700        8129.00     35457.88
   55.15        2971.75           1703        6842.00     29836.22
   55.18        2972.00           1706        5264.00     22946.14
   55.21        2972.25           1710        3477.00     15147.04
   55.25        2972.50           1713        2260.00      9837.79
   55.28        2972.75           1717         901.00      3911.11
   55.31        2973.00           1720         377.00      1626.50
   55.34        2973.25           1723         175.00       745.88
   55.37        2973.50           1727         127.00       536.63
   55.41        2973.75           1730         132.00       558.42
   55.44        2974.00           1734         151.00       641.25
   55.47        2974.25           1737         108.00       453.80
   55.50        2974.50           1740         132.00       558.42
   55.54        2974.75           1744         104.00       436.36
   55.57        2975.00           1747         110.00       462.52
   55.60        2975.25           1751          90.00       375.33
   55.63        2975.50           1754         102.00       427.64
   55.67        2975.75           1757          98.00       410.21
   55.70        2976.00           1761         117.00       493.03
   55.73        2976.25           1764         106.00       445.08
   55.76        2976.50           1768          94.00       392.77
   55.79        2976.75           1771          92.00       384.05
   55.83        2977.00           1774          85.00       353.53
   55.86        2977.25           1778          96.00       401.49
   55.89        2977.50           1781          96.00       401.49
   55.92        2977.75           1785          84.00       349.18
   55.95        2978.00           1788          94.00       392.77
   55.99        2978.25           1791          96.00       401.49
   56.02        2978.50           1795          86.00       357.89
   56.05        2978.75           1798          88.00       366.61
   56.08        2979.00           1802          85.00       353.53
   56.11        2979.25           1805          89.00       370.97
   56.15        2979.50           1808          87.00       362.25
   56.18        2979.75           1812          90.00       375.33
   56.21        2980.00           1815          78.00       323.02
   56.24        2980.25           1819          83.00       344.82
   56.28        2980.50           1822          82.00       340.46
   56.31        2980.75           1825          86.00       357.89
   56.34        2981.00           1829          82.00       340.46
   56.37        2981.25           1832          82.00       340.46
   56.40        2981.50           1836          85.00       353.53
   56.44        2981.75           1839          85.00       353.53
   56.47        2982.00           1842          77.00       318.66
   56.50        2982.25           1846          79.00       327.38
   56.53        2982.50           1849          84.00       349.18
   56.56        2982.75           1853          76.00       314.30
   56.60        2983.00           1856          84.00       349.18
   56.63        2983.25           1859          81.00       336.10
   56.66        2983.50           1863          77.00       318.66
   56.69        2983.75           1866          88.00       366.61
   56.72        2984.00           1870          80.00       331.74
HS scan finished at 00:56:56
end
