************************************************************
  HS Scan of (1) Internal mercury lamp
************************************************************
Integration time is 0.2294 seconds per sample
dh210417Madrid 40.45 3.717 2.52pr940
************************************************************
Dead Time -------------------------  3.1E-08 
Number of Cycles Used -------------  4 
Starting Wavelength (Angstroms) ---  2950 
Final Wavelength (Angstoms) -------  2984 
Wavelength Increment (Angstroms) --  .25 
Filter Wheel #1 Position ---------- (1) Ground quartz diffuser (ND=2.32)
Filter Wheel #2 Position ---------- (1) Neutral Density 0.494



************************************************************
HS scan start time = 00:50:00
Dark Count =  .9 


Time (GMT)  Wavelength (Ang)  Step Number  Raw Counts  Counts/Second

   50.73        2950.00           1408          86.00       370.97
   50.87        2950.25           1412          76.00       327.38
   50.90        2950.50           1415          89.00       384.05
   50.93        2950.75           1418          89.00       384.05
   50.96        2951.00           1422          97.00       418.92
   51.00        2951.25           1425          91.00       392.77
   51.03        2951.50           1428          93.00       401.49
   51.06        2951.75           1432          81.00       349.18
   51.09        2952.00           1435          91.00       392.77
   51.12        2952.25           1439          96.00       414.57
   51.16        2952.50           1442          86.00       370.97
   51.19        2952.75           1445          87.00       375.33
   51.22        2953.00           1449          87.00       375.33
   51.25        2953.25           1452          93.00       401.49
   51.28        2953.50           1456          84.00       362.25
   51.32        2953.75           1459          92.00       397.13
   51.35        2954.00           1462          94.00       405.85
   51.38        2954.25           1466          98.00       423.28
   51.41        2954.50           1469          97.00       418.92
   51.44        2954.75           1472          88.00       379.69
   51.48        2955.00           1476          93.00       401.49
   51.51        2955.25           1479          92.00       397.13
   51.54        2955.50           1483         109.00       471.24
   51.57        2955.75           1486         116.00       501.75
   51.60        2956.00           1489         102.00       440.72
   51.64        2956.25           1493         105.00       453.80
   51.67        2956.50           1496          93.00       401.49
   51.70        2956.75           1499          96.00       414.57
   51.73        2957.00           1503         117.00       506.11
   51.76        2957.25           1506         139.00       602.02
   51.80        2957.50           1510         118.00       510.47
   51.83        2957.75           1513          97.00       418.92
   51.86        2958.00           1516         103.00       445.08
   51.89        2958.25           1520         112.00       484.31
   51.93        2958.50           1523          99.00       427.64
   51.96        2958.75           1527         131.00       567.14
   51.99        2959.00           1530         105.00       453.80
   52.02        2959.25           1533         125.00       540.99
   52.05        2959.50           1537         133.00       575.86
   52.09        2959.75           1540         129.00       558.42
   52.12        2960.00           1544         139.00       602.02
   52.15        2960.25           1547         125.00       540.99
   52.18        2960.50           1550         129.00       558.42
   52.21        2960.75           1554         137.00       593.30
   52.25        2961.00           1557         162.00       702.28
   52.28        2961.25           1560         225.00       976.93
   52.31        2961.50           1564         615.00      2677.21
   52.35        2961.75           1567        1231.00      5363.14
   52.38        2962.00           1571        2809.00     12245.71
   52.41        2962.25           1574        3923.00     17106.28
   52.44        2962.50           1577        5147.00     22448.49
   52.47        2962.75           1581        6604.00     28809.94
   52.51        2963.00           1584        7819.00     34116.71
   52.54        2963.25           1588        9542.00     41645.27
   52.57        2963.50           1591       10988.00     47966.21
   52.60        2963.75           1594       12441.00     54320.26
   52.63        2964.00           1598       14155.00     61818.88
   52.66        2964.25           1601       15490.00     67661.83
   52.70        2964.50           1605       17242.00     75333.09
   52.73        2964.75           1608       18503.00     80856.74
   52.76        2965.00           1611       19841.00     86719.74
   52.79        2965.25           1615       21537.00     94154.54
   52.83        2965.50           1618       22869.00     99996.07
   52.86        2965.75           1621       23987.00    104900.70
   52.89        2966.00           1625       25573.00    111861.10
   52.92        2966.25           1628       26700.00    116808.90
   52.96        2966.50           1632       28083.00    122882.60
   52.99        2966.75           1635       28539.00    124885.80
   53.02        2967.00           1638       28758.00    125847.90
   53.05        2967.25           1642       28736.00    125751.30
   53.08        2967.50           1645       28766.00    125883.10
   53.11        2967.75           1649       28359.00    124095.10
   53.15        2968.00           1652       27670.00    121068.60
   53.18        2968.25           1655       26853.00    117480.70
   53.21        2968.50           1659       25351.00    110886.60
   53.24        2968.75           1662       23704.00    103659.10
   53.27        2969.00           1666       21819.00     95391.08
   53.31        2969.25           1669       20413.00     89226.84
   53.34        2969.50           1672       19142.00     83656.52
   53.37        2969.75           1676       17584.00     76830.99
   53.40        2970.00           1679       16323.00     71308.72
   53.43        2970.25           1683       14829.00     64768.54
   53.47        2970.50           1686       13585.00     59324.78
   53.50        2970.75           1689       12325.00     53812.89
   53.53        2971.00           1693       10780.00     47056.83
   53.56        2971.25           1696        9248.00     40360.40
   53.60        2971.50           1700        7458.00     32539.78
   53.63        2971.75           1703        6220.00     27133.10
   53.66        2972.00           1706        4916.00     21440.14
   53.69        2972.25           1710        3093.00     13484.71
   53.72        2972.50           1713        1917.00      8354.82
   53.76        2972.75           1717         794.00      3457.65
   53.79        2973.00           1720         303.00      1316.97
   53.82        2973.25           1723         172.00       745.88
   53.85        2973.50           1727         133.00       575.86
   53.89        2973.75           1730         147.00       636.89
   53.92        2974.00           1734         137.00       593.30
   53.95        2974.25           1737         104.00       449.44
   53.98        2974.50           1740         148.00       641.25
   54.02        2974.75           1744         117.00       506.11
   54.05        2975.00           1747         114.00       493.03
   54.08        2975.25           1751         120.00       519.19
   54.11        2975.50           1754         111.00       479.95
   54.14        2975.75           1757          93.00       401.49
   54.18        2976.00           1761         114.00       493.03
   54.21        2976.25           1764          98.00       423.28
   54.24        2976.50           1768         112.00       484.31
   54.27        2976.75           1771         100.00       432.00
   54.30        2977.00           1774          89.00       384.05
   54.34        2977.25           1778         103.00       445.08
   54.37        2977.50           1781          97.00       418.92
   54.40        2977.75           1785          94.00       405.85
   54.43        2978.00           1788          96.00       414.57
   54.46        2978.25           1791          89.00       384.05
   54.50        2978.50           1795          92.00       397.13
   54.53        2978.75           1798          91.00       392.77
   54.56        2979.00           1802          90.00       388.41
   54.59        2979.25           1805          90.00       388.41
   54.62        2979.50           1808          93.00       401.49
   54.66        2979.75           1812          85.00       366.61
   54.69        2980.00           1815          89.00       384.05
   54.72        2980.25           1819          92.00       397.13
   54.75        2980.50           1822          84.00       362.25
   54.78        2980.75           1825          89.00       384.05
   54.82        2981.00           1829          89.00       384.05
   54.85        2981.25           1832          90.00       388.41
   54.88        2981.50           1836          74.00       318.66
   54.91        2981.75           1839          93.00       401.49
   54.94        2982.00           1842          81.00       349.18
   54.98        2982.25           1846          85.00       366.61
   55.01        2982.50           1849          92.00       397.13
   55.04        2982.75           1853          87.00       375.33
   55.07        2983.00           1856          87.00       375.33
   55.10        2983.25           1859          78.00       336.10
   55.14        2983.50           1863          81.00       349.18
   55.17        2983.75           1866          84.00       362.25
   55.20        2984.00           1870          74.00       318.66
HS scan finished at 00:55:25
end
