************************************************************
  HS Scan of (1) Internal mercury lamp
************************************************************
Integration time is 0.2294 seconds per sample
dh280417Madrid 40.45 3.717 2.35pr940
************************************************************
Dead Time -------------------------  3.1E-08 
Number of Cycles Used -------------  4 
Starting Wavelength (Angstroms) ---  2950 
Final Wavelength (Angstoms) -------  2984 
Wavelength Increment (Angstroms) --  .25 
Filter Wheel #1 Position ---------- (1) Ground quartz diffuser (ND=2.32)
Filter Wheel #2 Position ---------- (1) Neutral Density 0.494



************************************************************
HS scan start time = 00:48:26
Dark Count =  1 


Time (GMT)  Wavelength (Ang)  Step Number  Raw Counts  Counts/Second

   49.16        2950.00           1408          88.00       379.25
   49.30        2950.25           1412          93.00       401.05
   49.33        2950.50           1415         130.00       562.35
   49.36        2950.75           1418          91.00       392.33
   49.40        2951.00           1422         116.00       501.32
   49.43        2951.25           1425          99.00       427.21
   49.46        2951.50           1428          91.00       392.33
   49.49        2951.75           1432          96.00       414.13
   49.52        2952.00           1435         117.00       505.67
   49.56        2952.25           1439         111.00       479.52
   49.59        2952.50           1442          96.00       414.13
   49.62        2952.75           1445          87.00       374.90
   49.65        2953.00           1449         104.00       449.00
   49.69        2953.25           1452         101.00       435.93
   49.72        2953.50           1456         102.00       440.28
   49.75        2953.75           1459          93.00       401.05
   49.78        2954.00           1462          87.00       374.90
   49.82        2954.25           1466         109.00       470.80
   49.85        2954.50           1469          97.00       418.49
   49.88        2954.75           1472          97.00       418.49
   49.91        2955.00           1476          98.00       422.85
   49.94        2955.25           1479         113.00       488.24
   49.98        2955.50           1483         102.00       440.28
   50.01        2955.75           1486         127.00       549.27
   50.04        2956.00           1489          94.00       405.41
   50.07        2956.25           1493         114.00       492.60
   50.10        2956.50           1496         101.00       435.93
   50.14        2956.75           1499         107.00       462.08
   50.17        2957.00           1503         118.00       510.03
   50.20        2957.25           1506         127.00       549.27
   50.23        2957.50           1510         133.00       575.42
   50.27        2957.75           1513         128.00       553.63
   50.30        2958.00           1516         106.00       457.72
   50.33        2958.25           1520         129.00       557.99
   50.36        2958.50           1523         124.00       536.19
   50.39        2958.75           1527         126.00       544.91
   50.42        2959.00           1530         114.00       492.60
   50.46        2959.25           1533         128.00       553.63
   50.49        2959.50           1537         138.00       597.22
   50.52        2959.75           1540         147.00       636.46
   50.55        2960.00           1544         121.00       523.11
   50.59        2960.25           1547         158.00       684.41
   50.62        2960.50           1550         123.00       531.83
   50.65        2960.75           1554         139.00       601.58
   50.68        2961.00           1557         155.00       671.33
   50.71        2961.25           1560         204.00       884.94
   50.75        2961.50           1564         587.00      2554.69
   50.78        2961.75           1567        1175.00      5118.51
   50.81        2962.00           1571        2660.00     11595.28
   50.84        2962.25           1574        3703.00     16145.83
   50.87        2962.50           1577        4896.00     21352.40
   50.91        2962.75           1581        6560.00     28617.36
   50.94        2963.00           1584        7821.00     34125.01
   50.97        2963.25           1588        9385.00     40958.69
   51.00        2963.50           1591       10590.00     46225.74
   51.03        2963.75           1594       12056.00     52635.95
   51.07        2964.00           1598       13699.00     59823.14
   51.10        2964.25           1601       14867.00     64934.42
   51.13        2964.50           1605       16745.00     73156.13
   51.16        2964.75           1608       18200.00     79528.88
   51.19        2965.00           1611       19427.00     84904.96
   51.23        2965.25           1615       21045.00     91996.96
   51.26        2965.50           1618       22416.00     98008.75
   51.29        2965.75           1621       23755.00    103882.40
   51.32        2966.00           1625       25604.00    111996.70
   51.36        2966.25           1628       26595.00    116347.40
   51.39        2966.50           1632       27572.00    120637.80
   51.42        2966.75           1635       28431.00    124410.90
   51.45        2967.00           1638       28476.00    124608.60
   51.48        2967.25           1642       28591.00    125113.80
   51.52        2967.50           1645       28404.00    124292.30
   51.55        2967.75           1649       28147.00    123163.30
   51.58        2968.00           1652       27343.00    119632.10
   51.61        2968.25           1655       26531.00    116066.40
   51.64        2968.50           1659       24797.00    108454.70
   51.68        2968.75           1662       23341.00    102066.10
   51.71        2969.00           1666       21678.00     94772.36
   51.74        2969.25           1669       20468.00     89467.50
   51.77        2969.50           1672       19238.00     84076.74
   51.80        2969.75           1676       17839.00     77947.50
   51.83        2970.00           1679       16538.00     72249.69
   51.87        2970.25           1683       14947.00     65284.57
   51.90        2970.50           1686       13838.00     60431.33
   51.93        2970.75           1689       12529.00     54704.73
   51.96        2971.00           1693       10917.00     47655.36
   52.00        2971.25           1696        9573.00     41780.32
   52.03        2971.50           1700        7750.00     33814.85
   52.06        2971.75           1703        6496.00     28337.87
   52.09        2972.00           1706        5312.00     23168.34
   52.12        2972.25           1710        3379.00     14732.10
   52.16        2972.50           1713        2270.00      9894.06
   52.19        2972.75           1717        1096.00      4774.03
   52.22        2973.00           1720         449.00      1953.04
   52.25        2973.25           1723         209.00       906.74
   52.28        2973.50           1727         149.00       645.17
   52.32        2973.75           1730         145.00       627.74
   52.35        2974.00           1734         147.00       636.46
   52.38        2974.25           1737         161.00       697.49
   52.41        2974.50           1740         130.00       562.35
   52.44        2974.75           1744         166.00       719.28
   52.48        2975.00           1747         106.00       457.72
   52.51        2975.25           1751         128.00       553.63
   52.54        2975.50           1754         119.00       514.39
   52.57        2975.75           1757         120.00       518.75
   52.60        2976.00           1761         113.00       488.24
   52.64        2976.25           1764         100.00       431.57
   52.67        2976.50           1768         131.00       566.71
   52.70        2976.75           1771          99.00       427.21
   52.73        2977.00           1774         113.00       488.24
   52.76        2977.25           1778         143.00       619.02
   52.80        2977.50           1781         124.00       536.19
   52.83        2977.75           1785         106.00       457.72
   52.86        2978.00           1788          94.00       405.41
   52.89        2978.25           1791         116.00       501.32
   52.92        2978.50           1795          90.00       387.97
   52.96        2978.75           1798         100.00       431.57
   52.99        2979.00           1802          86.00       370.54
   53.02        2979.25           1805          84.00       361.82
   53.05        2979.50           1808         100.00       431.57
   53.09        2979.75           1812          88.00       379.25
   53.12        2980.00           1815         112.00       483.88
   53.15        2980.25           1819          86.00       370.54
   53.18        2980.50           1822          92.00       396.69
   53.21        2980.75           1825          86.00       370.54
   53.25        2981.00           1829          99.00       427.21
   53.28        2981.25           1832          85.00       366.18
   53.31        2981.50           1836          91.00       392.33
   53.34        2981.75           1839          95.00       409.77
   53.37        2982.00           1842          88.00       379.25
   53.41        2982.25           1846          90.00       387.97
   53.44        2982.50           1849          86.00       370.54
   53.47        2982.75           1853          90.00       387.97
   53.50        2983.00           1856          85.00       366.18
   53.53        2983.25           1859          84.00       361.82
   53.57        2983.50           1863          87.00       374.90
   53.60        2983.75           1866          81.00       348.74
   53.63        2984.00           1870          86.00       370.54
HS scan finished at 00:53:51
end
