************************************************************
  HS Scan of (1) Internal mercury lamp
************************************************************
Integration time is 0.2294 seconds per sample
dh120517Madrid 40.45 3.717 2.56pr940
************************************************************
Dead Time -------------------------  3.1E-08 
Number of Cycles Used -------------  4 
Starting Wavelength (Angstroms) ---  2950 
Final Wavelength (Angstoms) -------  2984 
Wavelength Increment (Angstroms) --  .25 
Filter Wheel #1 Position ---------- (1) Ground quartz diffuser (ND=2.32)
Filter Wheel #2 Position ---------- (1) Neutral Density 0.494



************************************************************
HS scan start time = 00:47:18
Dark Count =  1.4 


Time (GMT)  Wavelength (Ang)  Step Number  Raw Counts  Counts/Second

   48.03        2950.00           1408          86.00       368.79
   48.17        2950.25           1412          82.00       351.36
   48.20        2950.50           1415         107.00       460.34
   48.23        2950.75           1418          90.00       386.23
   48.26        2951.00           1422          92.00       394.95
   48.29        2951.25           1425          92.00       394.95
   48.33        2951.50           1428          94.00       403.67
   48.36        2951.75           1432          98.00       421.10
   48.39        2952.00           1435          87.00       373.15
   48.42        2952.25           1439          91.00       390.59
   48.45        2952.50           1442          84.00       360.07
   48.49        2952.75           1445          88.00       377.51
   48.52        2953.00           1449          88.00       377.51
   48.55        2953.25           1452          86.00       368.79
   48.58        2953.50           1456          89.00       381.87
   48.61        2953.75           1459          90.00       386.23
   48.65        2954.00           1462          85.00       364.43
   48.68        2954.25           1466          86.00       368.79
   48.71        2954.50           1469          96.00       412.39
   48.74        2954.75           1472         103.00       442.90
   48.77        2955.00           1476          91.00       390.59
   48.81        2955.25           1479          98.00       421.10
   48.84        2955.50           1483          97.00       416.74
   48.87        2955.75           1486         101.00       434.18
   48.90        2956.00           1489          96.00       412.39
   48.93        2956.25           1493         142.00       612.91
   48.97        2956.50           1496          86.00       368.79
   49.00        2956.75           1499         107.00       460.34
   49.03        2957.00           1503          97.00       416.74
   49.06        2957.25           1506         112.00       482.13
   49.09        2957.50           1510         102.00       438.54
   49.13        2957.75           1513          99.00       425.46
   49.16        2958.00           1516         117.00       503.93
   49.19        2958.25           1520         120.00       517.01
   49.22        2958.50           1523          96.00       412.39
   49.25        2958.75           1527         118.00       508.29
   49.29        2959.00           1530         129.00       556.24
   49.32        2959.25           1533         104.00       447.26
   49.35        2959.50           1537         129.00       556.24
   49.38        2959.75           1540         133.00       573.68
   49.42        2960.00           1544         122.00       525.73
   49.45        2960.25           1547         131.00       564.96
   49.48        2960.50           1550         112.00       482.13
   49.51        2960.75           1554         149.00       643.43
   49.54        2961.00           1557         121.00       521.37
   49.58        2961.25           1560         176.00       761.13
   49.61        2961.50           1564         401.00      1742.03
   49.64        2961.75           1567         922.00      4013.58
   49.67        2962.00           1571        2060.00      8976.34
   49.71        2962.25           1574        3247.00     14154.42
   49.74        2962.50           1577        4549.00     19836.08
   49.77        2962.75           1581        6147.00     26812.17
   49.80        2963.00           1584        7298.00     31838.74
   49.83        2963.25           1588        8867.00     38693.29
   49.86        2963.50           1591       10252.00     44746.42
   49.90        2963.75           1594       11591.00     50600.67
   49.93        2964.00           1598       13109.00     57240.10
   49.96        2964.25           1601       14534.00     63475.26
   49.99        2964.50           1605       16204.00     70785.50
   50.02        2964.75           1608       17381.00     75939.68
   50.06        2965.00           1611       18640.00     81454.77
   50.09        2965.25           1615       20654.00     90281.09
   50.12        2965.50           1618       22003.00     96195.77
   50.15        2965.75           1621       23544.00    102954.90
   50.18        2966.00           1625       25337.00    110823.00
   50.22        2966.25           1628       26483.00    115853.90
   50.25        2966.50           1632       27933.00    122221.60
   50.28        2966.75           1635       28521.00    124804.50
   50.31        2967.00           1638       28999.00    126904.60
   50.35        2967.25           1642       28998.00    126900.20
   50.38        2967.50           1645       28873.00    126351.00
   50.41        2967.75           1649       28684.00    125520.60
   50.44        2968.00           1652       28235.00    123548.10
   50.47        2968.25           1655       27285.00    119375.60
   50.51        2968.50           1659       25619.00    112060.80
   50.54        2968.75           1662       24221.00    105925.30
   50.57        2969.00           1666       22682.00     99173.65
   50.60        2969.25           1669       21342.00     93297.34
   50.63        2969.50           1672       20089.00     87804.50
   50.67        2969.75           1676       18483.00     80766.91
   50.70        2970.00           1679       17187.00     75090.03
   50.73        2970.25           1683       15599.00     68136.79
   50.76        2970.50           1686       14293.00     62420.58
   50.79        2970.75           1689       13087.00     57143.86
   50.82        2971.00           1693       11351.00     49551.21
   50.86        2971.25           1696        9995.00     43623.03
   50.89        2971.50           1700        8156.00     35586.75
   50.92        2971.75           1703        7006.00     30563.39
   50.95        2972.00           1706        5586.00     24362.77
   50.99        2972.25           1710        3669.00     15995.73
   51.02        2972.50           1713        2507.00     10926.11
   51.05        2972.75           1717        1138.00      4955.43
   51.08        2973.00           1720         505.00      2195.44
   51.11        2973.25           1723         206.00       891.92
   51.15        2973.50           1727         139.00       599.84
   51.18        2973.75           1730         140.00       604.20
   51.21        2974.00           1734         143.00       617.27
   51.24        2974.25           1737         122.00       525.73
   51.28        2974.50           1740         113.00       486.49
   51.31        2974.75           1744         120.00       517.01
   51.34        2975.00           1747         105.00       451.62
   51.38        2975.25           1751         107.00       460.34
   51.41        2975.50           1754         108.00       464.70
   51.44        2975.75           1757         107.00       460.34
   51.47        2976.00           1761         112.00       482.13
   51.50        2976.25           1764         102.00       438.54
   51.53        2976.50           1768          95.00       408.03
   51.57        2976.75           1771         102.00       438.54
   51.60        2977.00           1774          92.00       394.95
   51.63        2977.25           1778         151.00       652.15
   51.66        2977.50           1781          99.00       425.46
   51.69        2977.75           1785         105.00       451.62
   51.73        2978.00           1788          89.00       381.87
   51.76        2978.25           1791          94.00       403.67
   51.79        2978.50           1795          90.00       386.23
   51.82        2978.75           1798          92.00       394.95
   51.85        2979.00           1802          89.00       381.87
   51.89        2979.25           1805         110.00       473.42
   51.92        2979.50           1808          85.00       364.43
   51.95        2979.75           1812          97.00       416.74
   51.98        2980.00           1815          93.00       399.31
   52.02        2980.25           1819          86.00       368.79
   52.05        2980.50           1822          91.00       390.59
   52.08        2980.75           1825          83.00       355.71
   52.11        2981.00           1829          92.00       394.95
   52.14        2981.25           1832          87.00       373.15
   52.18        2981.50           1836          83.00       355.71
   52.21        2981.75           1839          83.00       355.71
   52.24        2982.00           1842          90.00       386.23
   52.28        2982.25           1846          84.00       360.07
   52.31        2982.50           1849         101.00       434.18
   52.34        2982.75           1853         106.00       455.98
   52.37        2983.00           1856          81.00       347.00
   52.40        2983.25           1859          87.00       373.15
   52.44        2983.50           1863          85.00       364.43
   52.47        2983.75           1866          83.00       355.71
   52.50        2984.00           1870          82.00       351.36
HS scan finished at 00:52:43
end
