************************************************************
  HS Scan of (1) Internal mercury lamp
************************************************************
Integration time is 0.2294 seconds per sample
dh290517Arenosillo 37.1 6.73 3.23pr1000
************************************************************
Dead Time -------------------------  3.1E-08 
Number of Cycles Used -------------  4 
Starting Wavelength (Angstroms) ---  2950 
Final Wavelength (Angstoms) -------  2984 
Wavelength Increment (Angstroms) --  .25 
Filter Wheel #1 Position ---------- (1) Ground quartz diffuser (ND=2.32)
Filter Wheel #2 Position ---------- (1) Neutral Density 0.494



************************************************************
HS scan start time = 20:29:19
Dark Count =  9.7 


Time (GMT)  Wavelength (Ang)  Step Number  Raw Counts  Counts/Second

 1230.05        2950.00           1408         180.00       742.39
 1230.19        2950.25           1412         180.00       742.39
 1230.22        2950.50           1415         184.00       759.83
 1230.25        2950.75           1418         185.00       764.19
 1230.29        2951.00           1422         188.00       777.26
 1230.32        2951.25           1425         183.00       755.47
 1230.35        2951.50           1428         188.00       777.26
 1230.38        2951.75           1432         195.00       807.78
 1230.42        2952.00           1435         180.00       742.39
 1230.45        2952.25           1439         192.00       794.70
 1230.48        2952.50           1442         193.00       799.06
 1230.52        2952.75           1445         196.00       812.14
 1230.55        2953.00           1449         192.00       794.70
 1230.58        2953.25           1452         201.00       833.94
 1230.61        2953.50           1456         187.00       772.90
 1230.65        2953.75           1459         190.00       785.98
 1230.68        2954.00           1462         191.00       790.34
 1230.71        2954.25           1466         201.00       833.94
 1230.74        2954.50           1469         232.00       969.08
 1230.78        2954.75           1472         215.00       894.97
 1230.81        2955.00           1476         211.00       877.53
 1230.84        2955.25           1479         216.00       899.33
 1230.88        2955.50           1483         231.00       964.72
 1230.91        2955.75           1486         240.00      1003.95
 1230.94        2956.00           1489         207.00       860.09
 1230.97        2956.25           1493         231.00       964.72
 1231.01        2956.50           1496         258.00      1082.43
 1231.04        2956.75           1499         224.00       934.20
 1231.07        2957.00           1503         250.00      1047.55
 1231.11        2957.25           1506         240.00      1003.95
 1231.14        2957.50           1510         268.00      1126.02
 1231.17        2957.75           1513         264.00      1108.58
 1231.20        2958.00           1516         257.00      1078.07
 1231.24        2958.25           1520         275.00      1156.54
 1231.27        2958.50           1523         275.00      1156.54
 1231.30        2958.75           1527         280.00      1178.33
 1231.33        2959.00           1530         300.00      1265.52
 1231.37        2959.25           1533         279.00      1173.97
 1231.40        2959.50           1537         294.00      1239.37
 1231.43        2959.75           1540         306.00      1291.68
 1231.47        2960.00           1544         324.00      1370.15
 1231.50        2960.25           1547         335.00      1418.11
 1231.53        2960.50           1550         360.00      1527.10
 1231.56        2960.75           1554         345.00      1461.71
 1231.60        2961.00           1557         393.00      1670.97
 1231.63        2961.25           1560         624.00      2678.08
 1231.66        2961.50           1564        1679.00      7278.45
 1231.69        2961.75           1567        3985.00     17338.44
 1231.73        2962.00           1571       11727.00     51159.10
 1231.76        2962.25           1574       18179.00     79398.77
 1231.79        2962.50           1577       24359.00    106494.40
 1231.83        2962.75           1581       34167.00    149590.50
 1231.86        2963.00           1584       40709.00    178400.20
 1231.89        2963.25           1588       49339.00    216484.20
 1231.92        2963.50           1591       55482.00    243648.10
 1231.96        2963.75           1594       62754.00    275863.90
 1231.99        2964.00           1598       71371.00    314122.00
 1232.02        2964.25           1601       78201.00    344511.10
 1232.06        2964.50           1605       87682.00    386791.00
 1232.09        2964.75           1608       94950.00    419278.00
 1232.12        2965.00           1611      101479.00    448517.80
 1232.15        2965.25           1615      109425.00    484175.90
 1232.19        2965.50           1618      115156.00    509943.50
 1232.22        2965.75           1621      121582.00    538885.20
 1232.25        2966.00           1625      127956.00    567644.80
 1232.28        2966.25           1628      136237.00    605086.00
 1232.32        2966.50           1632      144015.00    640333.10
 1232.35        2966.75           1635      148177.00    659225.80
 1232.38        2967.00           1638      149867.00    666903.60
 1232.42        2967.25           1642      147470.00    656014.90
 1232.45        2967.50           1645      148943.00    662705.40
 1232.48        2967.75           1649      148561.00    660970.00
 1232.51        2968.00           1652      146031.00    649481.60
 1232.55        2968.25           1655      140654.00    625092.70
 1232.58        2968.50           1659      131529.00    583788.70
 1232.61        2968.75           1662      126245.00    559919.60
 1232.64        2969.00           1666      117632.00    521088.80
 1232.68        2969.25           1669      111441.00    493235.50
 1232.71        2969.50           1672      105287.00    465596.50
 1232.74        2969.75           1676       96211.00    424921.10
 1232.78        2970.00           1679       89425.00    394576.00
 1232.81        2970.25           1683       79030.00    348203.50
 1232.84        2970.50           1686       73231.00    322392.10
 1232.87        2970.75           1689       66733.00    293518.70
 1232.91        2971.00           1693       58010.00    254840.10
 1232.94        2971.25           1696       50924.00    223488.50
 1232.97        2971.50           1700       41166.00    180414.70
 1233.01        2971.75           1703       34808.00    152411.10
 1233.04        2972.00           1706       28521.00    124768.10
 1233.07        2972.25           1710       19945.00     87136.98
 1233.10        2972.50           1713       14013.00     61159.00
 1233.14        2972.75           1717        5802.00     25269.57
 1233.17        2973.00           1720        2005.00      8700.26
 1233.20        2973.25           1723         713.00      3066.12
 1233.24        2973.50           1727         425.00      1810.48
 1233.27        2973.75           1730         404.00      1718.92
 1233.30        2974.00           1734         349.00      1479.14
 1233.33        2974.25           1737         339.00      1435.55
 1233.37        2974.50           1740         332.00      1405.03
 1233.40        2974.75           1744         313.00      1322.20
 1233.43        2975.00           1747         294.00      1239.37
 1233.46        2975.25           1751         292.00      1230.65
 1233.50        2975.50           1754         305.00      1287.32
 1233.53        2975.75           1757         296.00      1248.09
 1233.56        2976.00           1761         267.00      1121.66
 1233.60        2976.25           1764         261.00      1095.50
 1233.63        2976.50           1768         253.00      1060.63
 1233.66        2976.75           1771         274.00      1152.18
 1233.69        2977.00           1774         258.00      1082.43
 1233.73        2977.25           1778         249.00      1043.19
 1233.76        2977.50           1781         251.00      1051.91
 1233.79        2977.75           1785         236.00       986.52
 1233.82        2978.00           1788         248.00      1038.83
 1233.86        2978.25           1791         275.00      1156.54
 1233.89        2978.50           1795         250.00      1047.55
 1233.92        2978.75           1798         238.00       995.24
 1233.96        2979.00           1802         214.00       890.61
 1233.99        2979.25           1805         221.00       921.12
 1234.02        2979.50           1808         218.00       908.05
 1234.05        2979.75           1812         206.00       855.73
 1234.09        2980.00           1815         213.00       886.25
 1234.12        2980.25           1819         207.00       860.09
 1234.15        2980.50           1822         202.00       838.30
 1234.19        2980.75           1825         203.00       842.65
 1234.22        2981.00           1829         198.00       820.86
 1234.25        2981.25           1832         198.00       820.86
 1234.28        2981.50           1836         197.00       816.50
 1234.32        2981.75           1839         193.00       799.06
 1234.35        2982.00           1842         196.00       812.14
 1234.38        2982.25           1846         187.00       772.90
 1234.41        2982.50           1849         187.00       772.90
 1234.45        2982.75           1853         179.00       738.03
 1234.48        2983.00           1856         179.00       738.03
 1234.51        2983.25           1859         195.00       807.78
 1234.55        2983.50           1863         181.00       746.75
 1234.58        2983.75           1866         176.00       724.95
 1234.61        2984.00           1870         183.00       755.47
HS scan finished at 20:34:50
end
