************************************************************
  HS Scan of (1) Internal mercury lamp
************************************************************
Integration time is 0.2294 seconds per sample
dh260517Madrid 40.45 3.717 3.23pr940
************************************************************
Dead Time -------------------------  3.1E-08 
Number of Cycles Used -------------  4 
Starting Wavelength (Angstroms) ---  2950 
Final Wavelength (Angstoms) -------  2984 
Wavelength Increment (Angstroms) --  .25 
Filter Wheel #1 Position ---------- (1) Ground quartz diffuser (ND=2.32)
Filter Wheel #2 Position ---------- (1) Neutral Density 0.494



************************************************************
HS scan start time = 00:49:20
Dark Count =  8.8 


Time (GMT)  Wavelength (Ang)  Step Number  Raw Counts  Counts/Second

   50.06        2950.00           1408          66.00       249.35
   50.20        2950.25           1412          59.00       218.83
   50.23        2950.50           1415          62.00       231.91
   50.27        2950.75           1418          63.00       236.27
   50.30        2951.00           1422          71.00       271.14
   50.33        2951.25           1425          65.00       244.99
   50.36        2951.50           1428          67.00       253.71
   50.40        2951.75           1432          66.00       249.35
   50.43        2952.00           1435          65.00       244.99
   50.46        2952.25           1439          63.00       236.27
   50.49        2952.50           1442          64.00       240.63
   50.52        2952.75           1445          65.00       244.99
   50.56        2953.00           1449          61.00       227.55
   50.59        2953.25           1452          72.00       275.50
   50.62        2953.50           1456          71.00       271.14
   50.65        2953.75           1459          68.00       258.07
   50.68        2954.00           1462          68.00       258.07
   50.72        2954.25           1466          73.00       279.86
   50.75        2954.50           1469          63.00       236.27
   50.78        2954.75           1472          77.00       297.30
   50.81        2955.00           1476          66.00       249.35
   50.84        2955.25           1479          68.00       258.07
   50.88        2955.50           1483          72.00       275.50
   50.91        2955.75           1486          59.00       218.83
   50.94        2956.00           1489          75.00       288.58
   50.97        2956.25           1493          71.00       271.14
   51.00        2956.50           1496          71.00       271.14
   51.04        2956.75           1499          77.00       297.30
   51.07        2957.00           1503          86.00       336.53
   51.10        2957.25           1506          68.00       258.07
   51.13        2957.50           1510          74.00       284.22
   51.16        2957.75           1513          79.00       306.02
   51.20        2958.00           1516          74.00       284.22
   51.23        2958.25           1520          71.00       271.14
   51.26        2958.50           1523          77.00       297.30
   51.29        2958.75           1527          82.00       319.10
   51.32        2959.00           1530          80.00       310.38
   51.36        2959.25           1533          79.00       306.02
   51.39        2959.50           1537          85.00       332.17
   51.42        2959.75           1540          91.00       358.33
   51.45        2960.00           1544          92.00       362.69
   51.48        2960.25           1547          92.00       362.69
   51.52        2960.50           1550         101.00       401.92
   51.55        2960.75           1554         100.00       397.56
   51.58        2961.00           1557         124.00       502.19
   51.61        2961.25           1560         192.00       798.62
   51.64        2961.50           1564         558.00      2394.25
   51.68        2961.75           1567        1157.00      5006.01
   51.71        2962.00           1571        2302.00      9999.61
   51.74        2962.25           1574        3210.00     13960.70
   51.77        2962.50           1577        4097.00     17831.13
   51.80        2962.75           1581        5388.00     23466.06
   51.84        2963.00           1584        6387.00     27827.84
   51.87        2963.25           1588        7527.00     32806.67
   51.90        2963.50           1591        8596.00     37476.82
   51.93        2963.75           1594        9634.00     42012.83
   51.97        2964.00           1598       11018.00     48062.85
   52.00        2964.25           1601       12269.00     53533.41
   52.03        2964.50           1605       13699.00     59789.01
   52.06        2964.75           1608       14562.00     63565.42
   52.09        2965.00           1611       15792.00     68949.31
   52.13        2965.25           1615       17135.00     74829.88
   52.16        2965.50           1618       18069.00     78920.83
   52.19        2965.75           1621       18903.00     82574.66
   52.22        2966.00           1625       20286.00     88635.54
   52.25        2966.25           1628       20981.00     91682.18
   52.29        2966.50           1632       22003.00     96163.31
   52.32        2966.75           1635       22288.00     97413.16
   52.35        2967.00           1638       22506.00     98369.27
   52.38        2967.25           1642       22426.00     98018.39
   52.41        2967.50           1645       22318.00     97544.74
   52.45        2967.75           1649       22104.00     96606.24
   52.48        2968.00           1652       21672.00     94711.84
   52.51        2968.25           1655       20763.00     90726.47
   52.54        2968.50           1659       19376.00     84647.28
   52.57        2968.75           1662       18290.00     79888.98
   52.61        2969.00           1666       17105.00     74698.50
   52.64        2969.25           1669       15969.00     69724.21
   52.67        2969.50           1672       14813.00     64663.94
   52.70        2969.75           1676       13514.00     58979.58
   52.73        2970.00           1679       12549.00     54758.09
   52.77        2970.25           1683       11221.00     48950.42
   52.80        2970.50           1686       10262.00     44757.79
   52.83        2970.75           1689        9405.00     41012.01
   52.86        2971.00           1693        8150.00     35528.22
   52.90        2971.25           1696        7224.00     31483.20
   52.93        2971.50           1700        5847.00     25469.97
   52.96        2971.75           1703        4857.00     21148.13
   52.99        2972.00           1706        3752.00     16325.61
   53.02        2972.25           1710        2270.00      9860.03
   53.05        2972.50           1713        1430.00      6196.48
   53.09        2972.75           1717         514.00      2202.42
   53.12        2973.00           1720         239.00      1003.52
   53.15        2973.25           1723         124.00       502.19
   53.18        2973.50           1727         104.00       415.00
   53.21        2973.75           1730          90.00       353.97
   53.25        2974.00           1734          88.00       345.25
   53.28        2974.25           1737          83.00       323.46
   53.31        2974.50           1740          82.00       319.10
   53.34        2974.75           1744          87.00       340.89
   53.38        2975.00           1747          85.00       332.17
   53.41        2975.25           1751          88.00       345.25
   53.44        2975.50           1754          75.00       288.58
   53.47        2975.75           1757          85.00       332.17
   53.50        2976.00           1761          79.00       306.02
   53.54        2976.25           1764          76.00       292.94
   53.57        2976.50           1768          72.00       275.50
   53.60        2976.75           1771          83.00       323.46
   53.63        2977.00           1774          73.00       279.86
   53.66        2977.25           1778          68.00       258.07
   53.70        2977.50           1781          71.00       271.14
   53.73        2977.75           1785          76.00       292.94
   53.76        2978.00           1788          80.00       310.38
   53.79        2978.25           1791          80.00       310.38
   53.82        2978.50           1795          69.00       262.43
   53.86        2978.75           1798          65.00       244.99
   53.89        2979.00           1802          62.00       231.91
   53.92        2979.25           1805          67.00       253.71
   53.95        2979.50           1808          66.00       249.35
   53.99        2979.75           1812          66.00       249.35
   54.02        2980.00           1815          65.00       244.99
   54.05        2980.25           1819          67.00       253.71
   54.08        2980.50           1822          62.00       231.91
   54.11        2980.75           1825          70.00       266.79
   54.14        2981.00           1829          62.00       231.91
   54.18        2981.25           1832          66.00       249.35
   54.21        2981.50           1836          63.00       236.27
   54.24        2981.75           1839          69.00       262.43
   54.27        2982.00           1842          64.00       240.63
   54.30        2982.25           1846          69.00       262.43
   54.34        2982.50           1849          64.00       240.63
   54.37        2982.75           1853          70.00       266.79
   54.40        2983.00           1856          66.00       249.35
   54.43        2983.25           1859          61.00       227.55
   54.46        2983.50           1863          65.00       244.99
   54.50        2983.75           1866          64.00       240.63
   54.53        2984.00           1870          61.00       227.55
HS scan finished at 00:54:45
end
