************************************************************
  HS Scan of (1) Internal mercury lamp
************************************************************
Integration time is 0.2294 seconds per sample
dh300517Arenosillo 37.1 6.73 3.07pr1000
************************************************************
Dead Time -------------------------  3.1E-08 
Number of Cycles Used -------------  4 
Starting Wavelength (Angstroms) ---  2950 
Final Wavelength (Angstoms) -------  2984 
Wavelength Increment (Angstroms) --  .25 
Filter Wheel #1 Position ---------- (1) Ground quartz diffuser (ND=2.32)
Filter Wheel #2 Position ---------- (1) Neutral Density 0.494



************************************************************
HS scan start time = 01:56:16
Dark Count =  5.6 


Time (GMT)  Wavelength (Ang)  Step Number  Raw Counts  Counts/Second

  117.01        2950.00           1408         163.00       686.15
  117.15        2950.25           1412         175.00       738.47
  117.18        2950.50           1415         182.00       768.98
  117.21        2950.75           1418         177.00       747.18
  117.25        2951.00           1422         173.00       729.75
  117.28        2951.25           1425         170.00       716.67
  117.31        2951.50           1428         177.00       747.18
  117.34        2951.75           1432         180.00       760.26
  117.38        2952.00           1435         176.00       742.82
  117.41        2952.25           1439         188.00       795.14
  117.44        2952.50           1442         184.00       777.70
  117.48        2952.75           1445         179.00       755.90
  117.51        2953.00           1449         194.00       821.29
  117.54        2953.25           1452         183.00       773.34
  117.57        2953.50           1456         192.00       812.57
  117.61        2953.75           1459         176.00       742.82
  117.64        2954.00           1462         199.00       843.09
  117.67        2954.25           1466         196.00       830.01
  117.70        2954.50           1469         189.00       799.50
  117.74        2954.75           1472         192.00       812.57
  117.77        2955.00           1476         196.00       830.01
  117.80        2955.25           1479         202.00       856.17
  117.84        2955.50           1483         224.00       952.08
  117.87        2955.75           1486         219.00       930.28
  117.90        2956.00           1489         241.00      1026.19
  117.93        2956.25           1493         213.00       904.12
  117.97        2956.50           1496         220.00       934.64
  118.00        2956.75           1499         232.00       986.95
  118.03        2957.00           1503         245.00      1043.63
  118.07        2957.25           1506         253.00      1078.50
  118.10        2957.50           1510         279.00      1191.85
  118.13        2957.75           1513         254.00      1082.86
  118.16        2958.00           1516         257.00      1095.94
  118.20        2958.25           1520         250.00      1065.42
  118.23        2958.50           1523         268.00      1143.89
  118.26        2958.75           1527         280.00      1196.21
  118.30        2959.00           1530         265.00      1130.82
  118.33        2959.25           1533         286.00      1222.37
  118.36        2959.50           1537         280.00      1196.21
  118.39        2959.75           1540         285.00      1218.01
  118.43        2960.00           1544         293.00      1252.88
  118.46        2960.25           1547         315.00      1348.79
  118.49        2960.50           1550         332.00      1422.90
  118.52        2960.75           1554         409.00      1758.60
  118.56        2961.00           1557         530.00      2286.13
  118.59        2961.25           1560         982.00      4256.88
  118.62        2961.50           1564        3084.00     13424.94
  118.66        2961.75           1567        7306.00     31855.33
  118.69        2962.00           1571       15497.00     67671.90
  118.72        2962.25           1574       21396.00     93515.71
  118.75        2962.50           1577       27334.00    119572.30
  118.79        2962.75           1581       35979.00    157583.10
  118.82        2963.00           1584       41871.00    183540.90
  118.85        2963.25           1588       50170.00    220174.20
  118.88        2963.50           1591       56393.00    247698.50
  118.92        2963.75           1594       62051.00    272764.90
  118.95        2964.00           1598       71271.00    313695.80
  118.98        2964.25           1601       77832.00    342886.10
  119.02        2964.50           1605       86470.00    381398.30
  119.05        2964.75           1608       92298.00    407434.60
  119.08        2965.00           1611       98554.00    435430.10
  119.11        2965.25           1615      106256.00    469963.70
  119.15        2965.50           1618      111618.00    494049.60
  119.18        2965.75           1621      117118.00    518792.90
  119.21        2966.00           1625      124845.00    553620.00
  119.25        2966.25           1628      130704.00    580078.20
  119.28        2966.50           1632      137795.00    612158.70
  119.31        2966.75           1635      140579.00    624771.40
  119.34        2967.00           1638      141630.00    629535.50
  119.38        2967.25           1642      141023.00    626783.90
  119.41        2967.50           1645      140962.00    626507.40
  119.44        2967.75           1649      139161.00    618346.00
  119.47        2968.00           1652      134813.00    598660.00
  119.51        2968.25           1655      128236.00    568927.80
  119.54        2968.50           1659      120863.00    535662.80
  119.57        2968.75           1662      115005.00    509282.50
  119.61        2969.00           1666      107646.00    476204.10
  119.64        2969.25           1669      101115.00    446904.70
  119.67        2969.50           1672       95429.00    421439.70
  119.70        2969.75           1676       86999.00    383759.80
  119.74        2970.00           1679       80360.00    354147.50
  119.77        2970.25           1683       71800.00    316047.40
  119.80        2970.50           1686       65238.00    286901.30
  119.83        2970.75           1689       59011.00    259292.10
  119.87        2971.00           1693       50195.00    220284.70
  119.90        2971.25           1696       43629.00    191294.10
  119.93        2971.50           1700       35804.00    156812.80
  119.97        2971.75           1703       28722.00    125669.10
  120.00        2972.00           1706       22968.00    100409.70
  120.03        2972.25           1710       15406.00     67273.56
  120.06        2972.50           1713        9943.00     43377.39
  120.10        2972.75           1717        3914.00     17046.49
  120.13        2973.00           1720        1139.00      4941.47
  120.16        2973.25           1723         466.00      2007.10
  120.20        2973.50           1727         377.00      1619.09
  120.23        2973.75           1730         355.00      1523.18
  120.26        2974.00           1734         336.00      1440.34
  120.29        2974.25           1737         305.00      1305.20
  120.33        2974.50           1740         303.00      1296.48
  120.36        2974.75           1744         306.00      1309.56
  120.39        2975.00           1747         296.00      1265.96
  120.43        2975.25           1751         289.00      1235.44
  120.46        2975.50           1754         293.00      1252.88
  120.49        2975.75           1757         258.00      1100.30
  120.52        2976.00           1761         263.00      1122.10
  120.56        2976.25           1764         281.00      1200.57
  120.59        2976.50           1768         234.00       995.67
  120.62        2976.75           1771         237.00      1008.75
  120.65        2977.00           1774         232.00       986.95
  120.69        2977.25           1778         252.00      1074.14
  120.72        2977.50           1781         227.00       965.16
  120.75        2977.75           1785         218.00       925.92
  120.79        2978.00           1788         219.00       930.28
  120.82        2978.25           1791         231.00       982.59
  120.85        2978.50           1795         225.00       956.44
  120.88        2978.75           1798         216.00       917.20
  120.92        2979.00           1802         206.00       873.61
  120.95        2979.25           1805         194.00       821.29
  120.98        2979.50           1808         205.00       869.25
  121.02        2979.75           1812         206.00       873.61
  121.05        2980.00           1815         197.00       834.37
  121.08        2980.25           1819         215.00       912.84
  121.11        2980.50           1822         199.00       843.09
  121.15        2980.75           1825         200.00       847.45
  121.18        2981.00           1829         212.00       899.76
  121.21        2981.25           1832         187.00       790.78
  121.24        2981.50           1836         191.00       808.22
  121.28        2981.75           1839         182.00       768.98
  121.31        2982.00           1842         189.00       799.50
  121.34        2982.25           1846         180.00       760.26
  121.38        2982.50           1849         175.00       738.47
  121.41        2982.75           1853         168.00       707.95
  121.44        2983.00           1856         185.00       782.06
  121.47        2983.25           1859         181.00       764.62
  121.51        2983.50           1863         197.00       834.37
  121.54        2983.75           1866         169.00       712.31
  121.57        2984.00           1870         170.00       716.67
HS scan finished at 02:01:48
end
************************************************************
  HS Scan of (1) Internal mercury lamp
************************************************************
Integration time is 0.2294 seconds per sample
dh300517Arenosillo 37.1 6.73 3.33pr1000
************************************************************
Dead Time -------------------------  3.1E-08 
Number of Cycles Used -------------  4 
Starting Wavelength (Angstroms) ---  2950 
Final Wavelength (Angstoms) -------  2984 
Wavelength Increment (Angstroms) --  .25 
Filter Wheel #1 Position ---------- (1) Ground quartz diffuser (ND=2.32)
Filter Wheel #2 Position ---------- (1) Neutral Density 0.494



************************************************************
HS scan start time = 20:29:15
Dark Count =  13 


Time (GMT)  Wavelength (Ang)  Step Number  Raw Counts  Counts/Second

 1229.98        2950.00           1408         152.00       605.94
 1230.12        2950.25           1412         157.00       627.74
 1230.15        2950.50           1415         158.00       632.10
 1230.19        2950.75           1418         167.00       671.33
 1230.22        2951.00           1422         160.00       640.81
 1230.25        2951.25           1425         156.00       623.38
 1230.29        2951.50           1428         170.00       684.41
 1230.32        2951.75           1432         166.00       666.97
 1230.35        2952.00           1435         172.00       693.13
 1230.38        2952.25           1439         160.00       640.81
 1230.42        2952.50           1442         170.00       684.41
 1230.45        2952.75           1445         168.00       675.69
 1230.48        2953.00           1449         175.00       706.21
 1230.52        2953.25           1452         175.00       706.21
 1230.55        2953.50           1456         175.00       706.21
 1230.58        2953.75           1459         185.00       749.80
 1230.61        2954.00           1462         208.00       850.07
 1230.65        2954.25           1466         180.00       728.00
 1230.68        2954.50           1469         181.00       732.36
 1230.71        2954.75           1472         197.00       802.11
 1230.74        2955.00           1476         191.00       775.96
 1230.78        2955.25           1479         198.00       806.47
 1230.81        2955.50           1483         192.00       780.32
 1230.84        2955.75           1486         198.00       806.47
 1230.88        2956.00           1489         202.00       823.91
 1230.91        2956.25           1493         199.00       810.83
 1230.94        2956.50           1496         210.00       858.78
 1230.97        2956.75           1499         220.00       902.38
 1231.01        2957.00           1503         207.00       845.71
 1231.04        2957.25           1506         215.00       880.58
 1231.07        2957.50           1510         220.00       902.38
 1231.11        2957.75           1513         224.00       919.82
 1231.14        2958.00           1516         242.00       998.29
 1231.17        2958.25           1520         230.00       945.97
 1231.20        2958.50           1523         237.00       976.49
 1231.24        2958.75           1527         237.00       976.49
 1231.27        2959.00           1530         268.00      1111.63
 1231.30        2959.25           1533         264.00      1094.20
 1231.33        2959.50           1537         270.00      1120.35
 1231.37        2959.75           1540         270.00      1120.35
 1231.40        2960.00           1544         277.00      1150.87
 1231.43        2960.25           1547         313.00      1307.81
 1231.47        2960.50           1550         306.00      1277.30
 1231.50        2960.75           1554         329.00      1377.57
 1231.53        2961.00           1557         386.00      1626.06
 1231.56        2961.25           1560         785.00      3365.65
 1231.60        2961.50           1564        2242.00      9719.58
 1231.63        2961.75           1567        5463.00     23775.15
 1231.66        2962.00           1571       12276.00     53545.65
 1231.70        2962.25           1574       17777.00     77623.36
 1231.73        2962.50           1577       23581.00    103066.40
 1231.76        2962.75           1581       31252.00    136755.50
 1231.79        2963.00           1584       37113.00    162543.20
 1231.83        2963.25           1588       44405.00    194684.90
 1231.86        2963.50           1591       50185.00    220207.80
 1231.89        2963.75           1594       55990.00    245881.90
 1231.92        2964.00           1598       64692.00    284445.70
 1231.96        2964.25           1601       70645.00    310880.50
 1231.99        2964.50           1605       78514.00    345890.50
 1232.02        2964.75           1608       85070.00    375117.10
 1232.06        2965.00           1611       89876.00    396576.30
 1232.09        2965.25           1615       96362.00    425582.30
 1232.12        2965.50           1618      101900.00    450390.30
 1232.15        2965.75           1621      107472.00    475389.60
 1232.19        2966.00           1625      114414.00    506590.20
 1232.22        2966.25           1628      119669.00    530249.00
 1232.25        2966.50           1632      126020.00    558889.10
 1232.29        2966.75           1635      129585.00    574988.10
 1232.32        2967.00           1638      130851.00    580709.10
 1232.35        2967.25           1642      130608.00    579610.80
 1232.38        2967.50           1645      130425.00    578783.80
 1232.42        2967.75           1649      129093.00    572765.40
 1232.45        2968.00           1652      126237.00    559868.60
 1232.48        2968.25           1655      120465.00    533835.80
 1232.51        2968.50           1659      113366.00    501876.10
 1232.55        2968.75           1662      108282.00    479026.90
 1232.58        2969.00           1666      101047.00    446566.70
 1232.61        2969.25           1669       95252.00    420614.50
 1232.65        2969.50           1672       89678.00    395691.60
 1232.68        2969.75           1676       81899.00    360974.10
 1232.71        2970.00           1679       75801.00    333811.40
 1232.74        2970.25           1683       67862.00    298517.00
 1232.78        2970.50           1686       62293.00    273805.10
 1232.81        2970.75           1689       56007.00    245957.20
 1232.84        2971.00           1693       48789.00    214039.70
 1232.87        2971.25           1696       43015.00    188553.10
 1232.91        2971.50           1700       34883.00    152726.60
 1232.94        2971.75           1703       28718.00    125619.00
 1232.97        2972.00           1706       23380.00    102184.60
 1233.01        2972.25           1710       16302.00     71163.80
 1233.04        2972.50           1713       10475.00     45670.55
 1233.07        2972.75           1717        3899.00     16948.75
 1233.10        2973.00           1720        1459.00      6304.63
 1233.14        2973.25           1723         532.00      2262.58
 1233.17        2973.50           1727         364.00      1530.15
 1233.20        2973.75           1730         332.00      1390.64
 1233.24        2974.00           1734         305.00      1272.94
 1233.27        2974.25           1737         305.00      1272.94
 1233.30        2974.50           1740         286.00      1190.10
 1233.33        2974.75           1744         285.00      1185.75
 1233.37        2975.00           1747         282.00      1172.67
 1233.40        2975.25           1751         249.00      1028.80
 1233.43        2975.50           1754         302.00      1259.86
 1233.47        2975.75           1757         246.00      1015.73
 1233.50        2976.00           1761         254.00      1050.60
 1233.53        2976.25           1764         254.00      1050.60
 1233.56        2976.50           1768         229.00       941.61
 1233.60        2976.75           1771         224.00       919.82
 1233.63        2977.00           1774         222.00       911.10
 1233.66        2977.25           1778         215.00       880.58
 1233.69        2977.50           1781         223.00       915.46
 1233.73        2977.75           1785         216.00       884.94
 1233.76        2978.00           1788         214.00       876.22
 1233.79        2978.25           1791         210.00       858.78
 1233.83        2978.50           1795         224.00       919.82
 1233.86        2978.75           1798         198.00       806.47
 1233.89        2979.00           1802         196.00       797.75
 1233.92        2979.25           1805         196.00       797.75
 1233.96        2979.50           1808         198.00       806.47
 1233.99        2979.75           1812         207.00       845.71
 1234.02        2980.00           1815         184.00       745.44
 1234.05        2980.25           1819         191.00       775.96
 1234.09        2980.50           1822         180.00       728.00
 1234.12        2980.75           1825         176.00       710.56
 1234.15        2981.00           1829         177.00       714.92
 1234.19        2981.25           1832         185.00       749.80
 1234.22        2981.50           1836         173.00       697.49
 1234.25        2981.75           1839         183.00       741.08
 1234.28        2982.00           1842         176.00       710.56
 1234.32        2982.25           1846         176.00       710.56
 1234.35        2982.50           1849         176.00       710.56
 1234.38        2982.75           1853         183.00       741.08
 1234.42        2983.00           1856         171.00       688.77
 1234.45        2983.25           1859         167.00       671.33
 1234.48        2983.50           1863         175.00       706.21
 1234.51        2983.75           1866         181.00       732.36
 1234.55        2984.00           1870         168.00       675.69
HS scan finished at 20:34:46
end
