************************************************************
  HS Scan of (1) Internal mercury lamp
************************************************************
Integration time is 0.2294 seconds per sample
dh310517Arenosillo 37.1 6.73 3.17pr1000
************************************************************
Dead Time -------------------------  3.1E-08 
Number of Cycles Used -------------  4 
Starting Wavelength (Angstroms) ---  2950 
Final Wavelength (Angstoms) -------  2984 
Wavelength Increment (Angstroms) --  .25 
Filter Wheel #1 Position ---------- (1) Ground quartz diffuser (ND=2.32)
Filter Wheel #2 Position ---------- (1) Neutral Density 0.494



************************************************************
HS scan start time = 01:56:19
Dark Count =  8.2 


Time (GMT)  Wavelength (Ang)  Step Number  Raw Counts  Counts/Second

  117.05        2950.00           1408         156.00       644.30
  117.19        2950.25           1412         156.00       644.30
  117.22        2950.50           1415         164.00       679.18
  117.26        2950.75           1418         162.00       670.46
  117.29        2951.00           1422         168.00       696.61
  117.32        2951.25           1425         169.00       700.97
  117.36        2951.50           1428         168.00       696.61
  117.39        2951.75           1432         175.00       727.13
  117.42        2952.00           1435         175.00       727.13
  117.45        2952.25           1439         170.00       705.33
  117.49        2952.50           1442         179.00       744.57
  117.52        2952.75           1445         168.00       696.61
  117.55        2953.00           1449         169.00       700.97
  117.58        2953.25           1452         168.00       696.61
  117.62        2953.50           1456         180.00       748.93
  117.65        2953.75           1459         180.00       748.93
  117.68        2954.00           1462         191.00       796.88
  117.72        2954.25           1466         193.00       805.60
  117.75        2954.50           1469         198.00       827.40
  117.78        2954.75           1472         189.00       788.16
  117.81        2955.00           1476         209.00       875.35
  117.85        2955.25           1479         202.00       844.83
  117.88        2955.50           1483         224.00       940.74
  117.91        2955.75           1486         198.00       827.40
  117.94        2956.00           1489         204.00       853.55
  117.98        2956.25           1493         239.00      1006.13
  118.01        2956.50           1496         205.00       857.91
  118.04        2956.75           1499         202.00       844.83
  118.08        2957.00           1503         216.00       905.87
  118.11        2957.25           1506         230.00       966.90
  118.14        2957.50           1510         244.00      1027.93
  118.17        2957.75           1513         239.00      1006.13
  118.21        2958.00           1516         237.00       997.42
  118.24        2958.25           1520         269.00      1136.92
  118.27        2958.50           1523         247.00      1041.01
  118.31        2958.75           1527         268.00      1132.56
  118.34        2959.00           1530         283.00      1197.95
  118.37        2959.25           1533         264.00      1115.12
  118.40        2959.50           1537         284.00      1202.31
  118.44        2959.75           1540         288.00      1219.75
  118.47        2960.00           1544         282.00      1193.59
  118.50        2960.25           1547         304.00      1289.50
  118.53        2960.50           1550         322.00      1367.97
  118.57        2960.75           1554         364.00      1551.08
  118.60        2961.00           1557         482.00      2065.52
  118.63        2961.25           1560         991.00      4284.79
  118.67        2961.50           1564        2833.00     12318.57
  118.70        2961.75           1567        6386.00     27826.09
  118.73        2962.00           1571       14053.00     61340.60
  118.76        2962.25           1574       19979.00     87292.57
  118.80        2962.50           1577       25950.00    113484.00
  118.83        2962.75           1581       34236.00    149900.70
  118.86        2963.00           1584       40343.00    176793.70
  118.89        2963.25           1588       49322.00    216415.70
  118.93        2963.50           1591       55842.00    245248.10
  118.96        2963.75           1594       61635.00    270909.10
  118.99        2964.00           1598       70272.00    309244.30
  119.03        2964.25           1601       77180.00    339971.40
  119.06        2964.50           1605       85449.00    376829.80
  119.09        2964.75           1608       91088.00    402013.90
  119.12        2965.00           1611       96826.00    427680.80
  119.16        2965.25           1615      104930.00    464001.30
  119.19        2965.50           1618      110533.00    489161.20
  119.22        2965.75           1621      116123.00    514302.10
  119.26        2966.00           1625      123252.00    546422.10
  119.29        2966.25           1628      129342.00    573912.00
  119.32        2966.50           1632      136361.00    605654.00
  119.35        2966.75           1635      139624.00    620431.90
  119.39        2967.00           1638      140455.00    624197.60
  119.42        2967.25           1642      140154.00    622833.50
  119.45        2967.50           1645      139981.00    622049.60
  119.48        2967.75           1649      137914.00    612685.80
  119.52        2968.00           1652      134873.00    598919.60
  119.55        2968.25           1655      128306.00    569232.20
  119.58        2968.50           1659      121175.00    537057.40
  119.62        2968.75           1662      115367.00    510899.70
  119.65        2969.00           1666      107772.00    476758.20
  119.68        2969.25           1669      101372.00    448045.00
  119.71        2969.50           1672       94844.00    418810.40
  119.75        2969.75           1676       86875.00    383194.60
  119.78        2970.00           1679       80576.00    355098.50
  119.81        2970.25           1683       72533.00    319294.80
  119.85        2970.50           1686       66264.00    291443.40
  119.88        2970.75           1689       60105.00    264127.70
  119.91        2971.00           1693       51021.00    223923.90
  119.94        2971.25           1696       44721.00    196100.50
  119.98        2971.50           1700       36711.00    160794.30
  120.01        2971.75           1703       29962.00    131106.30
  120.04        2972.00           1706       24162.00    105636.60
  120.07        2972.25           1710       15315.00     66863.83
  120.11        2972.50           1713        9557.00     41678.92
  120.14        2972.75           1717        3597.00     15651.88
  120.17        2973.00           1720        1196.00      5178.69
  120.21        2973.25           1723         485.00      2078.60
  120.24        2973.50           1727         348.00      1481.32
  120.27        2973.75           1730         349.00      1485.68
  120.30        2974.00           1734         308.00      1306.94
  120.34        2974.25           1737         314.00      1333.10
  120.37        2974.50           1740         302.00      1280.78
  120.40        2974.75           1744         283.00      1197.95
  120.44        2975.00           1747         278.00      1176.15
  120.47        2975.25           1751         289.00      1224.11
  120.50        2975.50           1754         271.00      1145.64
  120.53        2975.75           1757         262.00      1106.40
  120.57        2976.00           1761         245.00      1032.29
  120.60        2976.25           1764         256.00      1080.25
  120.63        2976.50           1768         275.00      1163.08
  120.66        2976.75           1771         269.00      1136.92
  120.70        2977.00           1774         266.00      1123.84
  120.73        2977.25           1778         224.00       940.74
  120.76        2977.50           1781         251.00      1058.45
  120.80        2977.75           1785         228.00       958.18
  120.83        2978.00           1788         219.00       918.95
  120.86        2978.25           1791         224.00       940.74
  120.89        2978.50           1795         207.00       866.63
  120.93        2978.75           1798         209.00       875.35
  120.96        2979.00           1802         202.00       844.83
  120.99        2979.25           1805         203.00       849.19
  121.03        2979.50           1808         202.00       844.83
  121.06        2979.75           1812         201.00       840.48
  121.09        2980.00           1815         190.00       792.52
  121.12        2980.25           1819         203.00       849.19
  121.16        2980.50           1822         197.00       823.04
  121.19        2980.75           1825         195.00       814.32
  121.22        2981.00           1829         185.00       770.72
  121.25        2981.25           1832         192.00       801.24
  121.29        2981.50           1836         185.00       770.72
  121.32        2981.75           1839         190.00       792.52
  121.35        2982.00           1842         188.00       783.80
  121.39        2982.25           1846         188.00       783.80
  121.42        2982.50           1849         167.00       692.26
  121.45        2982.75           1853         171.00       709.69
  121.48        2983.00           1856         182.00       757.65
  121.52        2983.25           1859         166.00       687.90
  121.55        2983.50           1863         165.00       683.54
  121.58        2983.75           1866         169.00       700.97
  121.61        2984.00           1870         167.00       692.26
HS scan finished at 02:01:51
end
************************************************************
  HS Scan of (1) Internal mercury lamp
************************************************************
Integration time is 0.2294 seconds per sample
dh310517Arenosillo 37.1 6.73 3.27pr1000
************************************************************
Dead Time -------------------------  3.1E-08 
Number of Cycles Used -------------  4 
Starting Wavelength (Angstroms) ---  2950 
Final Wavelength (Angstoms) -------  2984 
Wavelength Increment (Angstroms) --  .25 
Filter Wheel #1 Position ---------- (1) Ground quartz diffuser (ND=2.32)
Filter Wheel #2 Position ---------- (1) Neutral Density 0.494



************************************************************
HS scan start time = 21:49:36
Dark Count =  11 


Time (GMT)  Wavelength (Ang)  Step Number  Raw Counts  Counts/Second

 1310.34        2950.00           1408         158.00       640.81
 1310.47        2950.25           1412         168.00       684.41
 1310.51        2950.50           1415         161.00       653.89
 1310.54        2950.75           1418         167.00       680.05
 1310.57        2951.00           1422         166.00       675.69
 1310.61        2951.25           1425         164.00       666.97
 1310.64        2951.50           1428         169.00       688.77
 1310.67        2951.75           1432         172.00       701.85
 1310.70        2952.00           1435         175.00       714.92
 1310.74        2952.25           1439         157.00       636.46
 1310.77        2952.50           1442         162.00       658.25
 1310.80        2952.75           1445         173.00       706.21
 1310.83        2953.00           1449         190.00       780.32
 1310.87        2953.25           1452         178.00       728.00
 1310.90        2953.50           1456         173.00       706.21
 1310.93        2953.75           1459         179.00       732.36
 1310.97        2954.00           1462         184.00       754.16
 1311.00        2954.25           1466         193.00       793.39
 1311.03        2954.50           1469         201.00       828.27
 1311.06        2954.75           1472         195.00       802.11
 1311.10        2955.00           1476         196.00       806.47
 1311.13        2955.25           1479         201.00       828.27
 1311.16        2955.50           1483         199.00       819.55
 1311.19        2955.75           1486         188.00       771.60
 1311.23        2956.00           1489         202.00       832.63
 1311.26        2956.25           1493         210.00       867.50
 1311.29        2956.50           1496         218.00       902.38
 1311.33        2956.75           1499         206.00       850.07
 1311.36        2957.00           1503         221.00       915.46
 1311.39        2957.25           1506         254.00      1059.32
 1311.42        2957.50           1510         221.00       915.46
 1311.46        2957.75           1513         235.00       976.49
 1311.49        2958.00           1516         248.00      1033.16
 1311.52        2958.25           1520         236.00       980.85
 1311.56        2958.50           1523         255.00      1063.68
 1311.59        2958.75           1527         257.00      1072.40
 1311.62        2959.00           1530         267.00      1115.99
 1311.65        2959.25           1533         264.00      1102.91
 1311.69        2959.50           1537         314.00      1320.89
 1311.72        2959.75           1540         288.00      1207.54
 1311.75        2960.00           1544         290.00      1216.26
 1311.78        2960.25           1547         295.00      1238.06
 1311.82        2960.50           1550         303.00      1272.94
 1311.85        2960.75           1554         322.00      1355.77
 1311.88        2961.00           1557         375.00      1586.83
 1311.92        2961.25           1560         574.00      2454.42
 1311.95        2961.50           1564        1282.00      5541.49
 1311.98        2961.75           1567        2992.00     13000.01
 1312.01        2962.00           1571        9541.00     41596.76
 1312.05        2962.25           1574       15676.00     68431.85
 1312.08        2962.50           1577       21235.00     92786.12
 1312.11        2962.75           1581       29515.00    129129.70
 1312.14        2963.00           1584       36048.00    157863.10
 1312.18        2963.25           1588       44165.00    193634.90
 1312.21        2963.50           1591       49747.00    218281.20
 1312.24        2963.75           1594       56355.00    247506.50
 1312.27        2964.00           1598       64498.00    283593.90
 1312.31        2964.25           1601       70559.00    310507.20
 1312.34        2964.50           1605       78913.00    347676.60
 1312.37        2964.75           1608       85531.00    377183.20
 1312.41        2965.00           1611       91581.00    404205.00
 1312.44        2965.25           1615       99130.00    437986.00
 1312.47        2965.50           1618      104605.00    462530.70
 1312.50        2965.75           1621      110384.00    488479.00
 1312.54        2966.00           1625      117991.00    522699.70
 1312.57        2966.25           1628      124517.00    552115.70
 1312.60        2966.50           1632      131617.00    584180.70
 1312.64        2966.75           1635      135648.00    602414.20
 1312.67        2967.00           1638      137987.00    613003.70
 1312.70        2967.25           1642      138457.00    615132.40
 1312.73        2967.50           1645      137788.00    612102.50
 1312.77        2967.75           1649      137259.00    609707.00
 1312.80        2968.00           1652      135130.00    600070.00
 1312.83        2968.25           1655      130172.00    577649.60
 1312.86        2968.50           1659      121817.00    539938.80
 1312.90        2968.75           1662      116139.00    514361.50
 1312.93        2969.00           1666      108434.00    479718.60
 1312.96        2969.25           1669      102723.00    454089.30
 1313.00        2969.50           1672       97121.00    428988.90
 1313.03        2969.75           1676       89095.00    393096.00
 1313.06        2970.00           1679       83037.00    366057.20
 1313.09        2970.25           1683       74241.00    326878.90
 1313.13        2970.50           1686       68023.00    299240.90
 1313.16        2970.75           1689       61416.00    269925.80
 1313.19        2971.00           1693       53398.00    234421.90
 1313.22        2971.25           1696       47083.00    206514.10
 1313.26        2971.50           1700       38591.00    169061.60
 1313.29        2971.75           1703       32400.00    141812.10
 1313.32        2972.00           1706       26564.00    116167.40
 1313.36        2972.25           1710       18747.00     81881.52
 1313.39        2972.50           1713       13356.00     58278.69
 1313.42        2972.75           1717        6545.00     28508.18
 1313.45        2973.00           1720        2874.00     12485.22
 1313.49        2973.25           1723         833.00      3583.66
 1313.52        2973.50           1727         373.00      1578.11
 1313.55        2973.75           1730         339.00      1429.88
 1313.58        2974.00           1734         338.00      1425.52
 1313.62        2974.25           1737         315.00      1325.25
 1313.65        2974.50           1740         296.00      1242.42
 1313.68        2974.75           1744         291.00      1220.62
 1313.72        2975.00           1747         289.00      1211.90
 1313.75        2975.25           1751         302.00      1268.58
 1313.78        2975.50           1754         291.00      1220.62
 1313.81        2975.75           1757         246.00      1024.44
 1313.85        2976.00           1761         252.00      1050.60
 1313.88        2976.25           1764         280.00      1172.67
 1313.91        2976.50           1768         252.00      1050.60
 1313.95        2976.75           1771         235.00       976.49
 1313.98        2977.00           1774         227.00       941.61
 1314.01        2977.25           1778         217.00       898.02
 1314.04        2977.50           1781         235.00       976.49
 1314.08        2977.75           1785         218.00       902.38
 1314.11        2978.00           1788         208.00       858.78
 1314.14        2978.25           1791         210.00       867.50
 1314.17        2978.50           1795         249.00      1037.52
 1314.21        2978.75           1798         206.00       850.07
 1314.24        2979.00           1802         200.00       823.91
 1314.27        2979.25           1805         196.00       806.47
 1314.31        2979.50           1808         196.00       806.47
 1314.34        2979.75           1812         201.00       828.27
 1314.37        2980.00           1815         187.00       767.24
 1314.40        2980.25           1819         192.00       789.03
 1314.44        2980.50           1822         188.00       771.60
 1314.47        2980.75           1825         192.00       789.03
 1314.50        2981.00           1829         190.00       780.32
 1314.53        2981.25           1832         189.00       775.96
 1314.57        2981.50           1836         186.00       762.88
 1314.60        2981.75           1839         182.00       745.44
 1314.63        2982.00           1842         179.00       732.36
 1314.67        2982.25           1846         172.00       701.85
 1314.70        2982.50           1849         170.00       693.13
 1314.73        2982.75           1853         171.00       697.49
 1314.76        2983.00           1856         186.00       762.88
 1314.80        2983.25           1859         174.00       710.56
 1314.83        2983.50           1863         172.00       701.85
 1314.86        2983.75           1866         162.00       658.25
 1314.89        2984.00           1870         166.00       675.69
HS scan finished at 21:55:07
end
