************************************************************
  HS Scan of (1) Internal mercury lamp
************************************************************
Integration time is 0.2294 seconds per sample
dh030617Arenosillo 37.1 6.73 3.19pr1000
************************************************************
Dead Time -------------------------  3.1E-08 
Number of Cycles Used -------------  4 
Starting Wavelength (Angstroms) ---  2950 
Final Wavelength (Angstoms) -------  2984 
Wavelength Increment (Angstroms) --  .25 
Filter Wheel #1 Position ---------- (1) Ground quartz diffuser (ND=2.32)
Filter Wheel #2 Position ---------- (1) Neutral Density 0.494



************************************************************
HS scan start time = 01:59:44
Dark Count =  27.6 


Time (GMT)  Wavelength (Ang)  Step Number  Raw Counts  Counts/Second

  120.46        2950.00           1408         732.00      3070.91
  120.60        2950.25           1412         785.00      3301.99
  120.64        2950.50           1415         735.00      3083.99
  120.67        2950.75           1418         749.00      3145.03
  120.70        2951.00           1422         767.00      3223.51
  120.73        2951.25           1425         770.00      3236.59
  120.77        2951.50           1428         777.00      3267.11
  120.80        2951.75           1432         788.00      3315.08
  120.83        2952.00           1435         802.00      3376.12
  120.87        2952.25           1439         795.00      3345.60
  120.90        2952.50           1442         793.00      3336.88
  120.93        2952.75           1445         812.00      3419.72
  120.96        2953.00           1449         824.00      3472.04
  121.00        2953.25           1452         820.00      3454.60
  121.03        2953.50           1456         815.00      3432.80
  121.06        2953.75           1459         844.00      3559.24
  121.10        2954.00           1462         860.00      3629.01
  121.13        2954.25           1466         847.00      3572.32
  121.16        2954.50           1469         849.00      3581.04
  121.19        2954.75           1472         902.00      3812.13
  121.23        2955.00           1476         888.00      3751.09
  121.26        2955.25           1479         896.00      3785.97
  121.29        2955.50           1483         930.00      3934.22
  121.32        2955.75           1486         910.00      3847.02
  121.36        2956.00           1489         934.00      3951.66
  121.39        2956.25           1493         920.00      3890.62
  121.42        2956.50           1496         965.00      4086.83
  121.46        2956.75           1499         999.00      4235.08
  121.49        2957.00           1503         991.00      4200.20
  121.52        2957.25           1506        1016.00      4309.21
  121.55        2957.50           1510        1012.00      4291.77
  121.59        2957.75           1513        1051.00      4461.82
  121.62        2958.00           1516        1078.00      4579.55
  121.65        2958.25           1520        1094.00      4649.32
  121.69        2958.50           1523        1141.00      4854.26
  121.72        2958.75           1527        1169.00      4976.36
  121.75        2959.00           1530        1172.00      4989.44
  121.78        2959.25           1533        1197.00      5098.45
  121.82        2959.50           1537        1270.00      5416.78
  121.85        2959.75           1540        1276.00      5442.94
  121.88        2960.00           1544        1305.00      5569.40
  121.91        2960.25           1547        1364.00      5826.68
  121.95        2960.50           1550        1397.00      5970.59
  121.98        2960.75           1554        1652.00      7082.64
  122.01        2961.00           1557        2547.00     10986.30
  122.05        2961.25           1560        4700.00     20380.79
  122.08        2961.50           1564       13166.00     57374.85
  122.11        2961.75           1567       28995.00    126771.90
  122.14        2962.00           1571       60853.00    267356.70
  122.18        2962.25           1574       84881.00    374208.70
  122.21        2962.50           1577      111170.00    491936.90
  122.24        2962.75           1581      145086.00    645111.40
  122.28        2963.00           1584      171592.00    765851.50
  122.31        2963.25           1588      206013.00    924024.10
  122.34        2963.50           1591      234736.00   1057229.00
  122.37        2963.75           1594      261767.00   1183616.00
  122.41        2964.00           1598      294372.00   1337421.00
  122.44        2964.25           1601      322285.00   1470294.00
  122.47        2964.50           1605      351361.00   1609906.00
  122.50        2964.75           1608      376106.00   1729706.00
  122.54        2965.00           1611      400114.00   1846819.00
  122.57        2965.25           1615      429268.00   1990223.00
  122.60        2965.50           1618      451205.00   2099003.00
  122.64        2965.75           1621      474070.00   2213199.00
  122.67        2966.00           1625      506734.00   2377802.00
  122.70        2966.25           1628      531304.00   2502778.00
  122.73        2966.50           1632      556513.00   2632062.00
  122.77        2966.75           1635      567267.00   2687545.00
  122.80        2967.00           1638      569890.00   2701108.00
  122.83        2967.25           1642      569796.00   2700622.00
  122.87        2967.50           1645      569184.00   2697456.00
  122.90        2967.75           1649      562633.00   2663613.00
  122.93        2968.00           1652      550901.00   2603188.00
  122.96        2968.25           1655      530647.00   2499423.00
  123.00        2968.50           1659      499958.00   2343512.00
  123.03        2968.75           1662      477961.00   2232715.00
  123.06        2969.00           1666      445507.00   2070675.00
  123.09        2969.25           1669      422308.00   1955868.00
  123.13        2969.50           1672      397913.00   1836046.00
  123.16        2969.75           1676      365831.00   1679850.00
  123.19        2970.00           1679      341618.00   1562986.00
  123.23        2970.25           1683      307939.00   1401864.00
  123.26        2970.50           1686      280960.00   1273973.00
  123.29        2970.75           1689      256864.00   1160616.00
  123.32        2971.00           1693      221530.00    995846.10
  123.36        2971.25           1696      193503.00    866355.80
  123.39        2971.50           1700      155645.00    693100.30
  123.42        2971.75           1703      124952.00    554003.50
  123.45        2972.00           1706       97952.00    432635.50
  123.49        2972.25           1710       65789.00    289249.00
  123.52        2972.50           1713       42435.00    185930.90
  123.55        2972.75           1717       16656.00     72649.93
  123.59        2973.00           1720        6197.00     26916.09
  123.62        2973.25           1723        2251.00      9695.15
  123.65        2973.50           1727        1594.00      6829.69
  123.68        2973.75           1730        1505.00      6441.57
  123.72        2974.00           1734        1421.00      6075.25
  123.75        2974.25           1737        1358.00      5800.52
  123.78        2974.50           1740        1308.00      5582.48
  123.82        2974.75           1744        1255.00      5351.37
  123.85        2975.00           1747        1217.00      5185.66
  123.88        2975.25           1751        1178.00      5015.60
  123.91        2975.50           1754        1210.00      5155.14
  123.95        2975.75           1757        1137.00      4836.82
  123.98        2976.00           1761        1098.00      4666.76
  124.01        2976.25           1764        1105.00      4697.28
  124.05        2976.50           1768        1056.00      4483.62
  124.08        2976.75           1771        1047.00      4444.38
  124.11        2977.00           1774        1067.00      4531.59
  124.14        2977.25           1778        1008.00      4274.32
  124.18        2977.50           1781         992.00      4204.56
  124.21        2977.75           1785         984.00      4169.68
  124.24        2978.00           1788         968.00      4099.91
  124.27        2978.25           1791         904.00      3820.85
  124.31        2978.50           1795         951.00      4025.79
  124.34        2978.75           1798         922.00      3899.34
  124.37        2979.00           1802         890.00      3759.81
  124.40        2979.25           1805         888.00      3751.09
  124.44        2979.50           1808         882.00      3724.93
  124.47        2979.75           1812         898.00      3794.69
  124.50        2980.00           1815         850.00      3585.40
  124.54        2980.25           1819         848.00      3576.68
  124.57        2980.50           1822         832.00      3506.92
  124.60        2980.75           1825         806.00      3393.56
  124.63        2981.00           1829         849.00      3581.04
  124.67        2981.25           1832         810.00      3411.00
  124.70        2981.50           1836         806.00      3393.56
  124.73        2981.75           1839         819.00      3450.24
  124.77        2982.00           1842         794.00      3341.24
  124.80        2982.25           1846         776.00      3262.75
  124.83        2982.50           1849         803.00      3380.48
  124.86        2982.75           1853         768.00      3227.87
  124.90        2983.00           1856         752.00      3158.11
  124.93        2983.25           1859         782.00      3288.91
  124.96        2983.50           1863         730.00      3062.19
  125.00        2983.75           1866         748.00      3140.67
  125.03        2984.00           1870         720.00      3018.59
HS scan finished at 02:05:15
end
************************************************************
  HS Scan of (1) Internal mercury lamp
************************************************************
Integration time is 0.2294 seconds per sample
dh030617Arenosillo 37.1 6.73 3.37pr1000
************************************************************
Dead Time -------------------------  3.1E-08 
Number of Cycles Used -------------  4 
Starting Wavelength (Angstroms) ---  2950 
Final Wavelength (Angstoms) -------  2984 
Wavelength Increment (Angstroms) --  .25 
Filter Wheel #1 Position ---------- (1) Ground quartz diffuser (ND=2.32)
Filter Wheel #2 Position ---------- (1) Neutral Density 0.494



************************************************************
HS scan start time = 20:52:27
Dark Count =  28.1 


Time (GMT)  Wavelength (Ang)  Step Number  Raw Counts  Counts/Second

 1253.17        2950.00           1408         657.00      2741.73
 1253.31        2950.25           1412         658.00      2746.09
 1253.35        2950.50           1415         656.00      2737.37
 1253.38        2950.75           1418         656.00      2737.37
 1253.41        2951.00           1422         723.00      3029.49
 1253.44        2951.25           1425         675.00      2820.21
 1253.48        2951.50           1428         691.00      2889.97
 1253.51        2951.75           1432         673.00      2811.49
 1253.54        2952.00           1435         688.00      2876.89
 1253.58        2952.25           1439         717.00      3003.33
 1253.61        2952.50           1442         683.00      2855.09
 1253.64        2952.75           1445         717.00      3003.33
 1253.67        2953.00           1449         716.00      2998.97
 1253.71        2953.25           1452         749.00      3142.85
 1253.74        2953.50           1456         743.00      3116.69
 1253.77        2953.75           1459         743.00      3116.69
 1253.80        2954.00           1462         795.00      3343.42
 1253.84        2954.25           1466         764.00      3208.25
 1253.87        2954.50           1469         755.00      3169.01
 1253.90        2954.75           1472         765.00      3212.61
 1253.93        2955.00           1476         785.00      3299.81
 1253.97        2955.25           1479         811.00      3413.18
 1254.00        2955.50           1483         810.00      3408.82
 1254.03        2955.75           1486         832.00      3504.74
 1254.07        2956.00           1489         837.00      3526.54
 1254.10        2956.25           1493         835.00      3517.82
 1254.13        2956.50           1496         875.00      3692.23
 1254.16        2956.75           1499         875.00      3692.23
 1254.20        2957.00           1503         905.00      3823.03
 1254.23        2957.25           1506         913.00      3857.92
 1254.26        2957.50           1510         937.00      3962.56
 1254.30        2957.75           1513         943.00      3988.72
 1254.33        2958.00           1516         978.00      4141.33
 1254.36        2958.25           1520         978.00      4141.33
 1254.39        2958.50           1523         983.00      4163.14
 1254.43        2958.75           1527        1008.00      4272.14
 1254.46        2959.00           1530        1041.00      4416.04
 1254.49        2959.25           1533        1047.00      4442.20
 1254.52        2959.50           1537        1115.00      4738.71
 1254.56        2959.75           1540        1138.00      4839.00
 1254.59        2960.00           1544        1172.00      4987.26
 1254.62        2960.25           1547        1214.00      5170.40
 1254.66        2960.50           1550        1250.00      5327.38
 1254.69        2960.75           1554        1481.00      6334.72
 1254.72        2961.00           1557        2234.00      9618.82
 1254.75        2961.25           1560        4189.00     18148.40
 1254.79        2961.50           1564       11543.00     50274.03
 1254.82        2961.75           1567       25612.00    111912.90
 1254.85        2962.00           1571       53472.00    234673.60
 1254.88        2962.25           1574       74859.00    329552.30
 1254.92        2962.50           1577       97330.00    429848.20
 1254.95        2962.75           1581      129226.00    573298.00
 1254.98        2963.00           1584      153103.00    681531.90
 1255.02        2963.25           1588      185935.00    831567.70
 1255.05        2963.50           1591      210356.00    944091.10
 1255.08        2963.75           1594      233005.00   1049167.00
 1255.11        2964.00           1598      265589.00   1201566.00
 1255.15        2964.25           1601      290268.00   1317977.00
 1255.18        2964.50           1605      318882.00   1454033.00
 1255.21        2964.75           1608      339187.00   1551298.00
 1255.24        2965.00           1611      359500.00   1649207.00
 1255.28        2965.25           1615      355163.00   1628251.00
 1255.31        2965.50           1618      407859.00   1884785.00
 1255.34        2965.75           1621      426764.00   1977852.00
 1255.38        2966.00           1625      454582.00   2115814.00
 1255.41        2966.25           1628      475690.00   2221319.00
 1255.44        2966.50           1632      501805.00   2352849.00
 1255.47        2966.75           1635      513947.00   2414384.00
 1255.51        2967.00           1638      517880.00   2434369.00
 1255.54        2967.25           1642      518671.00   2438392.00
 1255.57        2967.50           1645      517138.00   2430597.00
 1255.60        2967.75           1649      513588.00   2412561.00
 1255.64        2968.00           1652      505590.00   2372005.00
 1255.67        2968.25           1655      485139.00   2268781.00
 1255.70        2968.50           1659      460421.00   2144928.00
 1255.74        2968.75           1662      439944.00   2043066.00
 1255.77        2969.00           1666      410796.00   1899207.00
 1255.80        2969.25           1669      388619.00   1790634.00
 1255.83        2969.50           1672      367224.00   1686597.00
 1255.87        2969.75           1676      337691.00   1544111.00
 1255.90        2970.00           1679      314281.00   1432076.00
 1255.93        2970.25           1683      284646.00   1291382.00
 1255.96        2970.50           1686      261251.00   1181192.00
 1256.00        2970.75           1689      236514.00   1065509.00
 1256.03        2971.00           1693      203363.00    911788.40
 1256.06        2971.25           1696      179319.00    801220.00
 1256.10        2971.50           1700      148679.00    661422.50
 1256.13        2971.75           1703      119260.00    528338.40
 1256.16        2972.00           1706       93701.00    413608.10
 1256.19        2972.25           1710       61156.00    268697.50
 1256.23        2972.50           1713       41556.00    182052.90
 1256.26        2972.75           1717       17863.00     77933.91
 1256.29        2973.00           1720        6523.00     28337.44
 1256.33        2973.25           1723        2349.00     10120.44
 1256.36        2973.50           1727        1455.00      6221.34
 1256.39        2973.75           1730        1388.00      5929.16
 1256.42        2974.00           1734        1315.00      5610.83
 1256.46        2974.25           1737        1244.00      5301.22
 1256.49        2974.50           1740        1218.00      5187.84
 1256.52        2974.75           1744        1150.00      4891.33
 1256.55        2975.00           1747        1122.00      4769.23
 1256.59        2975.25           1751        1116.00      4743.07
 1256.62        2975.50           1754        1038.00      4402.96
 1256.65        2975.75           1757        1011.00      4285.22
 1256.69        2976.00           1761        1045.00      4433.48
 1256.72        2976.25           1764         987.00      4180.58
 1256.75        2976.50           1768         965.00      4084.65
 1256.78        2976.75           1771         976.00      4132.61
 1256.82        2977.00           1774         944.00      3993.08
 1256.85        2977.25           1778         952.00      4027.97
 1256.88        2977.50           1781         896.00      3783.79
 1256.91        2977.75           1785         901.00      3805.59
 1256.95        2978.00           1788         847.00      3570.14
 1256.98        2978.25           1791         874.00      3687.87
 1257.01        2978.50           1795         843.00      3552.70
 1257.05        2978.75           1798         836.00      3522.18
 1257.08        2979.00           1802         812.00      3417.54
 1257.11        2979.25           1805         799.00      3360.86
 1257.14        2979.50           1808         791.00      3325.98
 1257.18        2979.75           1812         786.00      3304.17
 1257.21        2980.00           1815         788.00      3312.90
 1257.24        2980.25           1819         765.00      3212.61
 1257.27        2980.50           1822         762.00      3199.53
 1257.31        2980.75           1825         767.00      3221.33
 1257.34        2981.00           1829         768.00      3225.69
 1257.37        2981.25           1832         737.00      3090.53
 1257.41        2981.50           1836         760.00      3190.81
 1257.44        2981.75           1839         708.00      2964.09
 1257.47        2982.00           1842         712.00      2981.53
 1257.50        2982.25           1846         734.00      3077.45
 1257.54        2982.50           1849         706.00      2955.37
 1257.57        2982.75           1853         700.00      2929.21
 1257.60        2983.00           1856         724.00      3033.85
 1257.63        2983.25           1859         692.00      2894.33
 1257.67        2983.50           1863         676.00      2824.57
 1257.70        2983.75           1866         690.00      2885.61
 1257.73        2984.00           1870         676.00      2824.57
HS scan finished at 20:57:58
end
