************************************************************
  HS Scan of (1) Internal mercury lamp
************************************************************
Integration time is 0.2294 seconds per sample
dh010617Arenosillo 37.1 6.73 3.21pr1000
************************************************************
Dead Time -------------------------  3.1E-08 
Number of Cycles Used -------------  4 
Starting Wavelength (Angstroms) ---  2950 
Final Wavelength (Angstoms) -------  2984 
Wavelength Increment (Angstroms) --  .25 
Filter Wheel #1 Position ---------- (1) Ground quartz diffuser (ND=2.32)
Filter Wheel #2 Position ---------- (1) Neutral Density 0.494



************************************************************
HS scan start time = 02:06:35
Dark Count =  7.2 


Time (GMT)  Wavelength (Ang)  Step Number  Raw Counts  Counts/Second

  127.32        2950.00           1408         163.00       679.18
  127.46        2950.25           1412         166.00       692.26
  127.49        2950.50           1415         168.00       700.97
  127.53        2950.75           1418         164.00       683.54
  127.56        2951.00           1422         159.00       661.74
  127.59        2951.25           1425         171.00       714.05
  127.63        2951.50           1428         180.00       753.29
  127.66        2951.75           1432         170.00       709.69
  127.69        2952.00           1435         177.00       740.21
  127.72        2952.25           1439         167.00       696.61
  127.76        2952.50           1442         184.00       770.72
  127.79        2952.75           1445         165.00       687.90
  127.82        2953.00           1449         187.00       783.80
  127.86        2953.25           1452         169.00       705.33
  127.89        2953.50           1456         173.00       722.77
  127.92        2953.75           1459         182.00       762.01
  127.95        2954.00           1462         186.00       779.44
  127.98        2954.25           1466         178.00       744.57
  128.02        2954.50           1469         200.00       840.48
  128.05        2954.75           1472         187.00       783.80
  128.08        2955.00           1476         210.00       884.07
  128.12        2955.25           1479         200.00       840.48
  128.15        2955.50           1483         195.00       818.68
  128.18        2955.75           1486         202.00       849.19
  128.21        2956.00           1489         211.00       888.43
  128.25        2956.25           1493         211.00       888.43
  128.28        2956.50           1496         220.00       927.66
  128.31        2956.75           1499         233.00       984.34
  128.34        2957.00           1503         233.00       984.34
  128.38        2957.25           1506         229.00       966.90
  128.41        2957.50           1510         228.00       962.54
  128.44        2957.75           1513         230.00       971.26
  128.48        2958.00           1516         238.00      1006.13
  128.51        2958.25           1520         262.00      1110.76
  128.54        2958.50           1523         286.00      1215.39
  128.57        2958.75           1527         278.00      1180.51
  128.61        2959.00           1530         271.00      1150.00
  128.64        2959.25           1533         293.00      1245.91
  128.67        2959.50           1537         291.00      1237.19
  128.71        2959.75           1540         288.00      1224.11
  128.74        2960.00           1544         293.00      1245.91
  128.77        2960.25           1547         298.00      1267.70
  128.80        2960.50           1550         316.00      1346.18
  128.84        2960.75           1554         354.00      1511.84
  128.87        2961.00           1557         467.00      2004.48
  128.90        2961.25           1560         830.00      3587.15
  128.94        2961.50           1564        2465.00     10717.60
  128.97        2961.75           1567        5802.00     25280.49
  129.00        2962.00           1571       13885.00     60609.85
  129.03        2962.25           1574       19630.00     85767.41
  129.07        2962.50           1577       25603.00    111965.10
  129.10        2962.75           1581       33807.00    148017.70
  129.13        2963.00           1584       40125.00    175837.30
  129.16        2963.25           1588       48471.00    212660.70
  129.20        2963.50           1591       54397.00    238858.00
  129.23        2963.75           1594       60294.00    264969.70
  129.26        2964.00           1598       69450.00    305596.30
  129.29        2964.25           1601       76229.00    335742.20
  129.33        2964.50           1605       84663.00    373327.00
  129.36        2964.75           1608       90572.00    399712.20
  129.39        2965.00           1611       96601.00    426678.00
  129.43        2965.25           1615      104399.00    461623.50
  129.46        2965.50           1618      109789.00    485822.50
  129.49        2965.75           1621      115519.00    511588.20
  129.52        2966.00           1625      123146.00    545948.50
  129.56        2966.25           1628      128979.00    572276.60
  129.59        2966.50           1632      135758.00    602929.20
  129.62        2966.75           1635      139358.00    619231.20
  129.65        2967.00           1638      140301.00    623504.20
  129.69        2967.25           1642      140416.00    624025.40
  129.72        2967.50           1645      140046.00    622348.60
  129.75        2967.75           1649      138320.00    614529.10
  129.79        2968.00           1652      134695.00    598118.70
  129.82        2968.25           1655      128106.00    568333.40
  129.85        2968.50           1659      120780.00    535281.60
  129.88        2968.75           1662      114689.00    507853.50
  129.92        2969.00           1666      106868.00    472703.80
  129.95        2969.25           1669      101415.00    448242.20
  129.98        2969.50           1672       95281.00    420770.20
  130.02        2969.75           1676       87151.00    384431.30
  130.05        2970.00           1679       80136.00    353142.20
  130.08        2970.25           1683       71684.00    315524.50
  130.11        2970.50           1686       65478.00    287959.30
  130.15        2970.75           1689       58856.00    258598.40
  130.18        2971.00           1693       50315.00    220808.00
  130.21        2971.25           1696       43846.00    192244.30
  130.24        2971.50           1700       36089.00    158060.30
  130.28        2971.75           1703       28990.00    126839.50
  130.31        2972.00           1706       23237.00    101582.70
  130.34        2972.25           1710       16069.00     70169.03
  130.38        2972.50           1713       10366.00     45219.40
  130.41        2972.75           1717        4295.00     18702.21
  130.44        2973.00           1720        1338.00      5802.26
  130.47        2973.25           1723         486.00      2087.32
  130.51        2973.50           1727         386.00      1651.35
  130.54        2973.75           1730         347.00      1481.32
  130.57        2974.00           1734         335.00      1429.01
  130.60        2974.25           1737         308.00      1311.30
  130.64        2974.50           1740         291.00      1237.19
  130.67        2974.75           1744         290.00      1232.83
  130.70        2975.00           1747         282.00      1197.95
  130.74        2975.25           1751         276.00      1171.79
  130.77        2975.50           1754         286.00      1215.39
  130.80        2975.75           1757         258.00      1093.32
  130.83        2976.00           1761         254.00      1075.89
  130.87        2976.25           1764         249.00      1054.09
  130.90        2976.50           1768         266.00      1128.20
  130.93        2976.75           1771         229.00       966.90
  130.96        2977.00           1774         254.00      1075.89
  131.00        2977.25           1778         245.00      1036.65
  131.03        2977.50           1781         216.00       910.23
  131.06        2977.75           1785         218.00       918.95
  131.10        2978.00           1788         210.00       884.07
  131.13        2978.25           1791         211.00       888.43
  131.16        2978.50           1795         204.00       857.91
  131.19        2978.75           1798         203.00       853.55
  131.23        2979.00           1802         203.00       853.55
  131.26        2979.25           1805         199.00       836.12
  131.29        2979.50           1808         199.00       836.12
  131.32        2979.75           1812         194.00       814.32
  131.36        2980.00           1815         194.00       814.32
  131.39        2980.25           1819         188.00       788.16
  131.42        2980.50           1822         194.00       814.32
  131.46        2980.75           1825         191.00       801.24
  131.49        2981.00           1829         186.00       779.44
  131.52        2981.25           1832         180.00       753.29
  131.55        2981.50           1836         187.00       783.80
  131.59        2981.75           1839         174.00       727.13
  131.62        2982.00           1842         177.00       740.21
  131.65        2982.25           1846         184.00       770.72
  131.69        2982.50           1849         189.00       792.52
  131.72        2982.75           1853         170.00       709.69
  131.75        2983.00           1856         169.00       705.33
  131.78        2983.25           1859         183.00       766.37
  131.82        2983.50           1863         163.00       679.18
  131.85        2983.75           1866         176.00       735.85
  131.88        2984.00           1870         176.00       735.85
HS scan finished at 02:12:07
end
************************************************************
  HS Scan of (1) Internal mercury lamp
************************************************************
Integration time is 0.2294 seconds per sample
dh010617Arenosillo 37.1 6.73 3.33pr1000
************************************************************
Dead Time -------------------------  3.1E-08 
Number of Cycles Used -------------  4 
Starting Wavelength (Angstroms) ---  2950 
Final Wavelength (Angstoms) -------  2984 
Wavelength Increment (Angstroms) --  .25 
Filter Wheel #1 Position ---------- (1) Ground quartz diffuser (ND=2.32)
Filter Wheel #2 Position ---------- (1) Neutral Density 0.494



************************************************************
HS scan start time = 21:49:34
Dark Count =  12 


Time (GMT)  Wavelength (Ang)  Step Number  Raw Counts  Counts/Second

 1310.30        2950.00           1408         158.00       636.46
 1310.44        2950.25           1412         164.00       662.61
 1310.47        2950.50           1415         166.00       671.33
 1310.50        2950.75           1418         158.00       636.46
 1310.54        2951.00           1422         160.00       645.17
 1310.57        2951.25           1425         154.00       619.02
 1310.60        2951.50           1428         156.00       627.74
 1310.63        2951.75           1432         156.00       627.74
 1310.67        2952.00           1435         161.00       649.53
 1310.70        2952.25           1439         158.00       636.46
 1310.73        2952.50           1442         169.00       684.41
 1310.76        2952.75           1445         171.00       693.13
 1310.80        2953.00           1449         157.00       632.10
 1310.83        2953.25           1452         174.00       706.21
 1310.86        2953.50           1456         169.00       684.41
 1310.89        2953.75           1459         174.00       706.21
 1310.93        2954.00           1462         173.00       701.85
 1310.96        2954.25           1466         171.00       693.13
 1310.99        2954.50           1469         179.00       728.00
 1311.03        2954.75           1472         168.00       680.05
 1311.06        2955.00           1476         188.00       767.24
 1311.09        2955.25           1479         196.00       802.11
 1311.12        2955.50           1483         198.00       810.83
 1311.16        2955.75           1486         197.00       806.47
 1311.19        2956.00           1489         197.00       806.47
 1311.22        2956.25           1493         200.00       819.55
 1311.26        2956.50           1496         195.00       797.75
 1311.29        2956.75           1499         198.00       810.83
 1311.32        2957.00           1503         206.00       845.71
 1311.35        2957.25           1506         210.00       863.14
 1311.39        2957.50           1510         222.00       915.46
 1311.42        2957.75           1513         215.00       884.94
 1311.45        2958.00           1516         207.00       850.07
 1311.48        2958.25           1520         231.00       954.69
 1311.52        2958.50           1523         281.00      1172.67
 1311.55        2958.75           1527         243.00      1007.01
 1311.58        2959.00           1530         248.00      1028.80
 1311.62        2959.25           1533         278.00      1159.59
 1311.65        2959.50           1537         253.00      1050.60
 1311.68        2959.75           1540         280.00      1168.31
 1311.71        2960.00           1544         298.00      1246.78
 1311.75        2960.25           1547         282.00      1177.03
 1311.78        2960.50           1550         316.00      1325.25
 1311.81        2960.75           1554         333.00      1399.36
 1311.84        2961.00           1557         412.00      1743.77
 1311.88        2961.25           1560         802.00      3444.13
 1311.91        2961.50           1564        2105.00      9126.38
 1311.94        2961.75           1567        4757.00     20697.67
 1311.98        2962.00           1571       11182.00     48765.91
 1312.01        2962.25           1574       16570.00     72341.65
 1312.04        2962.50           1577       21744.00     95013.53
 1312.07        2962.75           1581       29005.00    126884.30
 1312.11        2963.00           1584       35173.00    154007.30
 1312.14        2963.25           1588       42477.00    186184.90
 1312.17        2963.50           1591       47735.00    209388.80
 1312.20        2963.75           1594       53747.00    235961.20
 1312.24        2964.00           1598       61419.00    269934.70
 1312.27        2964.25           1601       65599.00    288475.00
 1312.30        2964.50           1605       71941.00    316645.80
 1312.34        2964.75           1608       79614.00    350795.00
 1312.37        2965.00           1611       85146.00    375460.80
 1312.40        2965.25           1615       92637.00    408921.80
 1312.43        2965.50           1618       98457.00    434967.00
 1312.47        2965.75           1621      103530.00    457703.90
 1312.50        2966.00           1625      111043.00    491436.20
 1312.53        2966.25           1628      117336.00    519745.70
 1312.57        2966.50           1632      124296.00    551114.10
 1312.60        2966.75           1635      127779.00    566835.00
 1312.63        2967.00           1638      128325.00    569300.80
 1312.66        2967.25           1642      128079.00    568189.90
 1312.70        2967.50           1645      127796.00    566911.80
 1312.73        2967.75           1649      126750.00    562189.00
 1312.76        2968.00           1652      124369.00    551443.50
 1312.79        2968.25           1655      119167.00    527992.00
 1312.83        2968.50           1659      112071.00    496057.30
 1312.86        2968.75           1662      107097.00    473710.40
 1312.89        2969.00           1666       99840.00    441162.30
 1312.93        2969.25           1669       94347.00    416569.80
 1312.96        2969.50           1672       89095.00    393091.50
 1312.99        2969.75           1676       81046.00    357176.30
 1313.02        2970.00           1679       74454.00    327822.00
 1313.06        2970.25           1683       66651.00    293144.50
 1313.09        2970.50           1686       59450.00    261208.60
 1313.12        2970.75           1689       53661.00    235580.80
 1313.15        2971.00           1693       47422.00    208006.50
 1313.19        2971.25           1696       42358.00    185660.10
 1313.22        2971.50           1700       34152.00    149514.40
 1313.25        2971.75           1703       27383.00    119759.40
 1313.28        2972.00           1706       21666.00     94671.50
 1313.32        2972.25           1710       15192.00     66308.79
 1313.35        2972.50           1713       10435.00     45500.05
 1313.38        2972.75           1717        4579.00     19920.76
 1313.42        2973.00           1720        1803.00      7809.21
 1313.45        2973.25           1723         572.00      2441.34
 1313.48        2973.50           1727         343.00      1442.96
 1313.51        2973.75           1730         338.00      1421.16
 1313.55        2974.00           1734         287.00      1198.82
 1313.58        2974.25           1737         291.00      1216.26
 1313.61        2974.50           1740         291.00      1216.26
 1313.65        2974.75           1744         274.00      1142.15
 1313.68        2975.00           1747         262.00      1089.84
 1313.71        2975.25           1751         272.00      1133.43
 1313.74        2975.50           1754         239.00       989.57
 1313.78        2975.75           1757         238.00       985.21
 1313.81        2976.00           1761         235.00       972.13
 1313.84        2976.25           1764         224.00       924.18
 1313.87        2976.50           1768         215.00       884.94
 1313.91        2976.75           1771         223.00       919.82
 1313.94        2977.00           1774         238.00       985.21
 1313.97        2977.25           1778         228.00       941.61
 1314.01        2977.50           1781         215.00       884.94
 1314.04        2977.75           1785         208.00       854.43
 1314.07        2978.00           1788         195.00       797.75
 1314.10        2978.25           1791         193.00       789.03
 1314.14        2978.50           1795         193.00       789.03
 1314.17        2978.75           1798         202.00       828.27
 1314.20        2979.00           1802         206.00       845.71
 1314.23        2979.25           1805         200.00       819.55
 1314.27        2979.50           1808         204.00       836.99
 1314.30        2979.75           1812         186.00       758.52
 1314.33        2980.00           1815         191.00       780.32
 1314.37        2980.25           1819         185.00       754.16
 1314.40        2980.50           1822         173.00       701.85
 1314.43        2980.75           1825         172.00       697.49
 1314.46        2981.00           1829         173.00       701.85
 1314.50        2981.25           1832         192.00       784.67
 1314.53        2981.50           1836         166.00       671.33
 1314.56        2981.75           1839         169.00       684.41
 1314.59        2982.00           1842         160.00       645.17
 1314.63        2982.25           1846         176.00       714.92
 1314.66        2982.50           1849         170.00       688.77
 1314.69        2982.75           1853         168.00       680.05
 1314.73        2983.00           1856         171.00       693.13
 1314.76        2983.25           1859         170.00       688.77
 1314.79        2983.50           1863         164.00       662.61
 1314.82        2983.75           1866         157.00       632.10
 1314.86        2984.00           1870         168.00       680.05
HS scan finished at 21:55:05
end
