************************************************************
  HS Scan of (1) Internal mercury lamp
************************************************************
Integration time is 0.2294 seconds per sample
dh020617Arenosillo 37.1 6.73 3.21pr1000
************************************************************
Dead Time -------------------------  3.1E-08 
Number of Cycles Used -------------  4 
Starting Wavelength (Angstroms) ---  2950 
Final Wavelength (Angstoms) -------  2984 
Wavelength Increment (Angstroms) --  .25 
Filter Wheel #1 Position ---------- (1) Ground quartz diffuser (ND=2.32)
Filter Wheel #2 Position ---------- (1) Neutral Density 0.494



************************************************************
HS scan start time = 01:01:36
Dark Count =  8.7 


Time (GMT)  Wavelength (Ang)  Step Number  Raw Counts  Counts/Second

   62.33        2950.00           1408         162.00       668.28
   62.47        2950.25           1412         161.00       663.92
   62.50        2950.50           1415         162.00       668.28
   62.53        2950.75           1418         163.00       672.64
   62.57        2951.00           1422         153.00       629.04
   62.60        2951.25           1425         172.00       711.87
   62.63        2951.50           1428         171.00       707.51
   62.67        2951.75           1432         175.00       724.95
   62.70        2952.00           1435         171.00       707.51
   62.73        2952.25           1439         166.00       685.72
   62.76        2952.50           1442         164.00       677.00
   62.80        2952.75           1445         177.00       733.67
   62.83        2953.00           1449         170.00       703.15
   62.86        2953.25           1452         169.00       698.79
   62.90        2953.50           1456         177.00       733.67
   62.93        2953.75           1459         180.00       746.75
   62.96        2954.00           1462         173.00       716.23
   62.99        2954.25           1466         183.00       759.83
   63.03        2954.50           1469         186.00       772.90
   63.06        2954.75           1472         179.00       742.39
   63.09        2955.00           1476         188.00       781.62
   63.12        2955.25           1479         196.00       816.50
   63.16        2955.50           1483         192.00       799.06
   63.19        2955.75           1486         197.00       820.86
   63.22        2956.00           1489         201.00       838.30
   63.26        2956.25           1493         194.00       807.78
   63.29        2956.50           1496         216.00       903.69
   63.32        2956.75           1499         211.00       881.89
   63.35        2957.00           1503         217.00       908.05
   63.39        2957.25           1506         208.00       868.81
   63.42        2957.50           1510         215.00       899.33
   63.45        2957.75           1513         223.00       934.20
   63.48        2958.00           1516         222.00       929.84
   63.52        2958.25           1520         213.00       890.61
   63.55        2958.50           1523         230.00       964.72
   63.58        2958.75           1527         240.00      1008.31
   63.62        2959.00           1530         266.00      1121.66
   63.65        2959.25           1533         268.00      1130.38
   63.68        2959.50           1537         265.00      1117.30
   63.71        2959.75           1540         269.00      1134.74
   63.75        2960.00           1544         277.00      1169.62
   63.78        2960.25           1547         275.00      1160.90
   63.81        2960.50           1550         287.00      1213.21
   63.84        2960.75           1554         340.00      1444.27
   63.88        2961.00           1557         444.00      1897.67
   63.91        2961.25           1560         800.00      3449.80
   63.94        2961.50           1564        2338.00     10157.08
   63.98        2961.75           1567        5299.00     23077.97
   64.01        2962.00           1571       11909.00     51959.39
   64.04        2962.25           1574       17030.00     74370.48
   64.07        2962.50           1577       22278.00     97369.75
   64.11        2962.75           1581       29896.00    130814.10
   64.14        2963.00           1584       35409.00    155060.50
   64.17        2963.25           1588       43374.00    190155.60
   64.21        2963.50           1591       49337.00    216479.70
   64.24        2963.75           1594       54366.00    238714.20
   64.27        2964.00           1598       61897.00    272068.40
   64.30        2964.25           1601       67983.00    299073.40
   64.34        2964.50           1605       74698.00    328922.30
   64.37        2964.75           1608       79850.00    351861.20
   64.40        2965.00           1611       85244.00    375912.80
   64.43        2965.25           1615       92483.00    408247.90
   64.47        2965.50           1618       97750.00    431815.60
   64.50        2965.75           1621      102623.00    453651.20
   64.53        2966.00           1625      110003.00    486777.30
   64.56        2966.25           1628      115225.00    510258.50
   64.60        2966.50           1632      122212.00    541730.10
   64.63        2966.75           1635      124704.00    552969.80
   64.66        2967.00           1638      125138.00    554928.10
   64.70        2967.25           1642      125122.00    554855.90
   64.73        2967.50           1645      124704.00    552969.80
   64.76        2967.75           1649      123692.00    548404.40
   64.79        2968.00           1652      120469.00    533873.30
   64.83        2968.25           1655      115311.00    510645.40
   64.86        2968.50           1659      108701.00    480928.20
   64.89        2968.75           1662      103745.00    458683.00
   64.93        2969.00           1666       96060.00    424249.70
   64.96        2969.25           1669       90992.00    401582.60
   64.99        2969.50           1672       85521.00    377148.90
   65.02        2969.75           1676       78206.00    344537.80
   65.06        2970.00           1679       72573.00    319470.40
   65.09        2970.25           1683       65472.00    287926.00
   65.12        2970.50           1686       60027.00    263779.80
   65.15        2970.75           1689       54321.00    238515.20
   65.19        2971.00           1693       46296.00    203049.60
   65.22        2971.25           1696       40599.00    177919.80
   65.25        2971.50           1700       33369.00    146084.20
   65.29        2971.75           1703       27278.00    119312.80
   65.32        2972.00           1706       21353.00     93313.57
   65.35        2972.25           1710       13613.00     59413.16
   65.38        2972.50           1713        8864.00     38648.28
   65.42        2972.75           1717        3506.00     15252.63
   65.45        2973.00           1720        1153.00      4989.00
   65.48        2973.25           1723         474.00      2028.46
   65.51        2973.50           1727         338.00      1435.55
   65.55        2973.75           1730         307.00      1300.40
   65.58        2974.00           1734         303.00      1282.96
   65.61        2974.25           1737         289.00      1221.93
   65.65        2974.50           1740         281.00      1187.05
   65.68        2974.75           1744         264.00      1112.94
   65.71        2975.00           1747         276.00      1165.26
   65.74        2975.25           1751         265.00      1117.30
   65.78        2975.50           1754         258.00      1086.78
   65.81        2975.75           1757         253.00      1064.99
   65.84        2976.00           1761         247.00      1038.83
   65.87        2976.25           1764         252.00      1060.63
   65.91        2976.50           1768         242.00      1017.03
   65.94        2976.75           1771         226.00       947.28
   65.97        2977.00           1774         218.00       912.41
   66.01        2977.25           1778         205.00       855.73
   66.04        2977.50           1781         206.00       860.09
   66.07        2977.75           1785         228.00       956.00
   66.10        2978.00           1788         216.00       903.69
   66.14        2978.25           1791         200.00       833.94
   66.17        2978.50           1795         206.00       860.09
   66.20        2978.75           1798         197.00       820.86
   66.24        2979.00           1802         180.00       746.75
   66.27        2979.25           1805         197.00       820.86
   66.30        2979.50           1808         194.00       807.78
   66.33        2979.75           1812         178.00       738.03
   66.37        2980.00           1815         184.00       764.19
   66.40        2980.25           1819         187.00       777.26
   66.43        2980.50           1822         180.00       746.75
   66.46        2980.75           1825         179.00       742.39
   66.50        2981.00           1829         184.00       764.19
   66.53        2981.25           1832         170.00       703.15
   66.56        2981.50           1836         172.00       711.87
   66.59        2981.75           1839         179.00       742.39
   66.63        2982.00           1842         164.00       677.00
   66.66        2982.25           1846         162.00       668.28
   66.69        2982.50           1849         168.00       694.44
   66.73        2982.75           1853         158.00       650.84
   66.76        2983.00           1856         166.00       685.72
   66.79        2983.25           1859         165.00       681.36
   66.82        2983.50           1863         159.00       655.20
   66.86        2983.75           1866         153.00       629.04
   66.89        2984.00           1870         158.00       650.84
HS scan finished at 01:07:07
end
************************************************************
  HS Scan of (1) Internal mercury lamp
************************************************************
Integration time is 0.2294 seconds per sample
dh020617Arenosillo 37.1 6.73 3.29pr1000
************************************************************
Dead Time -------------------------  3.1E-08 
Number of Cycles Used -------------  4 
Starting Wavelength (Angstroms) ---  2950 
Final Wavelength (Angstoms) -------  2984 
Wavelength Increment (Angstroms) --  .25 
Filter Wheel #1 Position ---------- (1) Ground quartz diffuser (ND=2.32)
Filter Wheel #2 Position ---------- (1) Neutral Density 0.494



************************************************************
HS scan start time = 02:04:15
Dark Count =  10.1 


Time (GMT)  Wavelength (Ang)  Step Number  Raw Counts  Counts/Second

  124.98        2950.00           1408         174.00       714.49
  125.12        2950.25           1412         157.00       640.38
  125.15        2950.50           1415         165.00       675.25
  125.18        2950.75           1418         161.00       657.82
  125.21        2951.00           1422         178.00       731.93
  125.25        2951.25           1425         175.00       718.85
  125.28        2951.50           1428         166.00       679.61
  125.31        2951.75           1432         171.00       701.41
  125.35        2952.00           1435         175.00       718.85
  125.38        2952.25           1439         170.00       697.05
  125.41        2952.50           1442         178.00       731.93
  125.44        2952.75           1445         189.00       779.88
  125.48        2953.00           1449         169.00       692.69
  125.51        2953.25           1452         186.00       766.80
  125.54        2953.50           1456         184.00       758.08
  125.57        2953.75           1459         183.00       753.72
  125.61        2954.00           1462         183.00       753.72
  125.64        2954.25           1466         200.00       827.83
  125.67        2954.50           1469         181.00       745.00
  125.70        2954.75           1472         191.00       788.60
  125.74        2955.00           1476         187.00       771.16
  125.77        2955.25           1479         208.00       862.71
  125.80        2955.50           1483         209.00       867.07
  125.84        2955.75           1486         202.00       836.55
  125.87        2956.00           1489         208.00       862.71
  125.90        2956.25           1493         210.00       871.43
  125.93        2956.50           1496         226.00       941.18
  125.97        2956.75           1499         215.00       893.22
  126.00        2957.00           1503         234.00       976.05
  126.03        2957.25           1506         230.00       958.62
  126.06        2957.50           1510         245.00      1024.01
  126.10        2957.75           1513         277.00      1163.51
  126.13        2958.00           1516         249.00      1041.45
  126.16        2958.25           1520         262.00      1098.12
  126.20        2958.50           1523         263.00      1102.48
  126.23        2958.75           1527         259.00      1085.04
  126.26        2959.00           1530         302.00      1272.50
  126.29        2959.25           1533         259.00      1085.04
  126.33        2959.50           1537         291.00      1224.55
  126.36        2959.75           1540         290.00      1220.19
  126.39        2960.00           1544         299.00      1259.42
  126.43        2960.25           1547         303.00      1276.86
  126.46        2960.50           1550         313.00      1320.46
  126.49        2960.75           1554         405.00      1721.54
  126.52        2961.00           1557         536.00      2292.67
  126.56        2961.25           1560         981.00      4232.90
  126.59        2961.50           1564        2754.00     11965.64
  126.62        2961.75           1567        6231.00     27140.96
  126.66        2962.00           1571       13823.00     60325.88
  126.69        2962.25           1574       19639.00     85794.14
  126.72        2962.50           1577       26085.00    114068.30
  126.75        2962.75           1581       34278.00    150077.20
  126.79        2963.00           1584       40633.00    178063.50
  126.82        2963.25           1588       48979.00    214891.90
  126.85        2963.50           1591       55225.00    242509.00
  126.89        2963.75           1594       61142.00    268715.20
  126.92        2964.00           1598       69339.00    305090.30
  126.95        2964.25           1601       75970.00    334576.50
  126.98        2964.50           1605       83917.00    369986.10
  127.02        2964.75           1608       89873.00    396575.80
  127.05        2965.00           1611       96771.00    427426.00
  127.08        2965.25           1615      103832.00    459067.00
  127.11        2965.50           1618      111424.00    493157.20
  127.15        2965.75           1621      117639.00    521118.60
  127.18        2966.00           1625      125722.00    557557.20
  127.21        2966.25           1628      130998.00    581386.60
  127.25        2966.50           1632      137868.00    612468.90
  127.28        2966.75           1635      140403.00    623953.30
  127.31        2967.00           1638      139986.00    622063.60
  127.34        2967.25           1642      141352.00    628254.80
  127.38        2967.50           1645      139573.00    620192.30
  127.41        2967.75           1649      138324.00    614534.10
  127.44        2968.00           1652      135289.00    600793.50
  127.48        2968.25           1655      128376.00    569539.80
  127.51        2968.50           1659      122095.00    541196.30
  127.54        2968.75           1662      115067.00    509541.20
  127.57        2969.00           1666      108499.00    480014.60
  127.61        2969.25           1669      101465.00    448453.30
  127.64        2969.50           1672       95349.00    421061.50
  127.67        2969.75           1676       86379.00    380972.00
  127.70        2970.00           1679       80566.00    355045.50
  127.74        2970.25           1683       72531.00    319277.50
  127.77        2970.50           1686       66083.00    290631.50
  127.80        2970.75           1689       59690.00    262280.40
  127.83        2971.00           1693       48626.00    213332.50
  127.87        2971.25           1696       41846.00    183410.80
  127.90        2971.50           1700       34368.00    150473.20
  127.93        2971.75           1703       27658.00    120975.50
  127.97        2972.00           1706       22265.00     97306.59
  128.00        2972.25           1710       15005.00     65498.60
  128.03        2972.50           1713        9390.00     40940.77
  128.06        2972.75           1717        3450.00     15002.18
  128.10        2973.00           1720        1213.00      5244.53
  128.13        2973.25           1723         485.00      2070.32
  128.16        2973.50           1727         361.00      1529.72
  128.20        2973.75           1730         338.00      1429.44
  128.23        2974.00           1734         334.00      1412.01
  128.26        2974.25           1737         309.00      1303.02
  128.29        2974.50           1740         300.00      1263.78
  128.33        2974.75           1744         270.00      1133.00
  128.36        2975.00           1747         284.00      1194.03
  128.39        2975.25           1751         275.00      1154.79
  128.42        2975.50           1754         268.00      1124.28
  128.46        2975.75           1757         271.00      1137.35
  128.49        2976.00           1761         264.00      1106.84
  128.52        2976.25           1764         250.00      1045.81
  128.56        2976.50           1768         230.00       958.62
  128.59        2976.75           1771         255.00      1067.60
  128.62        2977.00           1774         248.00      1037.09
  128.65        2977.25           1778         235.00       980.41
  128.69        2977.50           1781         219.00       910.66
  128.72        2977.75           1785         232.00       967.34
  128.75        2978.00           1788         210.00       871.43
  128.79        2978.25           1791         210.00       871.43
  128.82        2978.50           1795         204.00       845.27
  128.85        2978.75           1798         215.00       893.22
  128.88        2979.00           1802         206.00       853.99
  128.92        2979.25           1805         208.00       862.71
  128.95        2979.50           1808         205.00       849.63
  128.98        2979.75           1812         203.00       840.91
  129.02        2980.00           1815         186.00       766.80
  129.05        2980.25           1819         204.00       845.27
  129.08        2980.50           1822         193.00       797.32
  129.11        2980.75           1825         191.00       788.60
  129.15        2981.00           1829         178.00       731.93
  129.18        2981.25           1832         187.00       771.16
  129.21        2981.50           1836         180.00       740.64
  129.24        2981.75           1839         177.00       727.57
  129.28        2982.00           1842         190.00       784.24
  129.31        2982.25           1846         180.00       740.64
  129.34        2982.50           1849         170.00       697.05
  129.38        2982.75           1853         177.00       727.57
  129.41        2983.00           1856         178.00       731.93
  129.44        2983.25           1859         164.00       670.89
  129.47        2983.50           1863         168.00       688.33
  129.51        2983.75           1866         176.00       723.21
  129.54        2984.00           1870         161.00       657.82
HS scan finished at 02:09:46
end
************************************************************
  HS Scan of (1) Internal mercury lamp
************************************************************
Integration time is 0.2294 seconds per sample
dh020617Arenosillo 37.1 6.73 3.33pr1000
************************************************************
Dead Time -------------------------  3.1E-08 
Number of Cycles Used -------------  4 
Starting Wavelength (Angstroms) ---  2950 
Final Wavelength (Angstoms) -------  2984 
Wavelength Increment (Angstroms) --  .25 
Filter Wheel #1 Position ---------- (1) Ground quartz diffuser (ND=2.32)
Filter Wheel #2 Position ---------- (1) Neutral Density 0.494



************************************************************
HS scan start time = 21:48:45
Dark Count =  35.3 


Time (GMT)  Wavelength (Ang)  Step Number  Raw Counts  Counts/Second

 1309.48        2950.00           1408          61.00       112.03
 1309.62        2950.25           1412          73.00       164.34
 1309.66        2950.50           1415          69.00       146.91
 1309.69        2950.75           1418          81.00       199.22
 1309.72        2951.00           1422          76.00       177.42
 1309.75        2951.25           1425          71.00       155.62
 1309.79        2951.50           1428          64.00       125.11
 1309.82        2951.75           1432          70.00       151.26
 1309.85        2952.00           1435          77.00       181.78
 1309.89        2952.25           1439          78.00       186.14
 1309.92        2952.50           1442          68.00       142.55
 1309.95        2952.75           1445          69.00       146.91
 1309.98        2953.00           1449          79.00       190.50
 1310.02        2953.25           1452          75.00       173.06
 1310.05        2953.50           1456          75.00       173.06
 1310.08        2953.75           1459          72.00       159.98
 1310.12        2954.00           1462          82.00       203.58
 1310.15        2954.25           1466          80.00       194.86
 1310.18        2954.50           1469          75.00       173.06
 1310.21        2954.75           1472          75.00       173.06
 1310.25        2955.00           1476          75.00       173.06
 1310.28        2955.25           1479          84.00       212.29
 1310.31        2955.50           1483          81.00       199.22
 1310.34        2955.75           1486          75.00       173.06
 1310.38        2956.00           1489          86.00       221.01
 1310.41        2956.25           1493          86.00       221.01
 1310.44        2956.50           1496          73.00       164.34
 1310.48        2956.75           1499          78.00       186.14
 1310.51        2957.00           1503          79.00       190.50
 1310.54        2957.25           1506          80.00       194.86
 1310.57        2957.50           1510          80.00       194.86
 1310.61        2957.75           1513          86.00       221.01
 1310.64        2958.00           1516          78.00       186.14
 1310.67        2958.25           1520          91.00       242.81
 1310.70        2958.50           1523         140.00       456.41
 1310.74        2958.75           1527          79.00       190.50
 1310.77        2959.00           1530          79.00       190.50
 1310.80        2959.25           1533          83.00       207.94
 1310.84        2959.50           1537          81.00       199.22
 1310.87        2959.75           1540          95.00       260.25
 1310.90        2960.00           1544          93.00       251.53
 1310.93        2960.25           1547         100.00       282.04
 1310.97        2960.50           1550         152.00       508.73
 1311.00        2960.75           1554          96.00       264.61
 1311.03        2961.00           1557         134.00       430.26
 1311.07        2961.25           1560         187.00       661.30
 1311.10        2961.50           1564         453.00      1820.94
 1311.13        2961.75           1567         920.00      3857.04
 1311.16        2962.00           1571        2137.00      9164.33
 1311.20        2962.25           1574        2991.00     12889.63
 1311.23        2962.50           1577        3937.00     17017.26
 1311.26        2962.75           1581        5179.00     22438.01
 1311.29        2963.00           1584        6062.00     26293.00
 1311.33        2963.25           1588        7415.00     32201.70
 1311.36        2963.50           1591        8443.00     36692.54
 1311.39        2963.75           1594        9360.00     40699.53
 1311.43        2964.00           1598       10693.00     46526.09
 1311.46        2964.25           1601       11607.00     50522.40
 1311.49        2964.50           1605       12852.00     55967.56
 1311.52        2964.75           1608       13908.00     60587.54
 1311.56        2965.00           1611       14651.00     63838.95
 1311.59        2965.25           1615       16017.00     69818.35
 1311.62        2965.50           1618       16844.00     73439.45
 1311.66        2965.75           1621       17717.00     77262.87
 1311.69        2966.00           1625       18910.00     82489.23
 1311.72        2966.25           1628       19818.00     86468.18
 1311.75        2966.50           1632       21121.00     92179.78
 1311.79        2966.75           1635       21600.00     94279.94
 1311.82        2967.00           1638       21789.00     95108.68
 1311.85        2967.25           1642       22041.00     96213.74
 1311.88        2967.50           1645       21699.00     94714.03
 1311.92        2967.75           1649       21740.00     94893.81
 1311.95        2968.00           1652       21192.00     92491.06
 1311.98        2968.25           1655       20373.00     88900.72
 1312.02        2968.50           1659       18984.00     82813.46
 1312.05        2968.75           1662       18285.00     79750.99
 1312.08        2969.00           1666       17125.00     74670.03
 1312.11        2969.25           1669       16170.00     70488.21
 1312.15        2969.50           1672       15053.00     65598.40
 1312.18        2969.75           1676       13715.00     59743.07
 1312.21        2970.00           1679       12608.00     54900.25
 1312.25        2970.25           1683       11492.00     50019.53
 1312.28        2970.50           1686       10458.00     45498.74
 1312.31        2970.75           1689        9510.00     41355.08
 1312.34        2971.00           1693        8317.00     36142.04
 1312.38        2971.25           1696        7329.00     31826.07
 1312.41        2971.50           1700        6104.00     26476.39
 1312.44        2971.75           1703        4996.00     21639.18
 1312.47        2972.00           1706        4033.00     17436.19
 1312.51        2972.25           1710        2727.00     11737.92
 1312.54        2972.50           1713        1817.00      7768.65
 1312.57        2972.75           1717         833.00      3477.71
 1312.61        2973.00           1720         325.00      1262.91
 1312.64        2973.25           1723         134.00       430.26
 1312.67        2973.50           1727         123.00       382.31
 1312.70        2973.75           1730          90.00       238.45
 1312.74        2974.00           1734          90.00       238.45
 1312.77        2974.25           1737          95.00       260.25
 1312.80        2974.50           1740          83.00       207.94
 1312.84        2974.75           1744          89.00       234.09
 1312.87        2975.00           1747         110.00       325.64
 1312.90        2975.25           1751          88.00       229.73
 1312.93        2975.50           1754          82.00       203.58
 1312.97        2975.75           1757          84.00       212.29
 1313.00        2976.00           1761          90.00       238.45
 1313.03        2976.25           1764          79.00       190.50
 1313.06        2976.50           1768          89.00       234.09
 1313.10        2976.75           1771          87.00       225.37
 1313.13        2977.00           1774         143.00       469.49
 1313.16        2977.25           1778          83.00       207.94
 1313.20        2977.50           1781          74.00       168.70
 1313.23        2977.75           1785          68.00       142.55
 1313.26        2978.00           1788          80.00       194.86
 1313.29        2978.25           1791          76.00       177.42
 1313.33        2978.50           1795          78.00       186.14
 1313.36        2978.75           1798          70.00       151.26
 1313.39        2979.00           1802          71.00       155.62
 1313.43        2979.25           1805          79.00       190.50
 1313.46        2979.50           1808          76.00       177.42
 1313.49        2979.75           1812          75.00       173.06
 1313.52        2980.00           1815          78.00       186.14
 1313.56        2980.25           1819          63.00       120.75
 1313.59        2980.50           1822          85.00       216.65
 1313.62        2980.75           1825          78.00       186.14
 1313.65        2981.00           1829          74.00       168.70
 1313.69        2981.25           1832          75.00       173.06
 1313.72        2981.50           1836          66.00       133.83
 1313.75        2981.75           1839          80.00       194.86
 1313.79        2982.00           1842          71.00       155.62
 1313.82        2982.25           1846          71.00       155.62
 1313.85        2982.50           1849         130.00       412.82
 1313.88        2982.75           1853          71.00       155.62
 1313.92        2983.00           1856          78.00       186.14
 1313.95        2983.25           1859          67.00       138.19
 1313.98        2983.50           1863          72.00       159.98
 1314.02        2983.75           1866          72.00       159.98
 1314.05        2984.00           1870          72.00       159.98
HS scan finished at 21:54:17
end
