************************************************************
  HS Scan of (1) Internal mercury lamp
************************************************************
Integration time is 0.2294 seconds per sample
dh040617Arenosillo 37.1 6.73 3.09pr1000
************************************************************
Dead Time -------------------------  3.1E-08 
Number of Cycles Used -------------  4 
Starting Wavelength (Angstroms) ---  2950 
Final Wavelength (Angstoms) -------  2984 
Wavelength Increment (Angstroms) --  .25 
Filter Wheel #1 Position ---------- (1) Ground quartz diffuser (ND=2.32)
Filter Wheel #2 Position ---------- (1) Neutral Density 0.494



************************************************************
HS scan start time = 02:03:41
Dark Count =  23.1 


Time (GMT)  Wavelength (Ang)  Step Number  Raw Counts  Counts/Second

  124.42        2950.00           1408         681.00      2868.17
  124.56        2950.25           1412         674.00      2837.65
  124.59        2950.50           1415         668.00      2811.49
  124.63        2950.75           1418         689.00      2903.05
  124.66        2951.00           1422         715.00      3016.41
  124.69        2951.25           1425         694.00      2924.85
  124.72        2951.50           1428         727.00      3068.73
  124.76        2951.75           1432         711.00      2998.97
  124.79        2952.00           1435         765.00      3234.41
  124.82        2952.25           1439         718.00      3029.49
  124.86        2952.50           1442         706.00      2977.17
  124.89        2952.75           1445         730.00      3081.81
  124.92        2953.00           1449         776.00      3282.37
  124.95        2953.25           1452         773.00      3269.29
  124.99        2953.50           1456         736.00      3107.97
  125.02        2953.75           1459         752.00      3177.73
  125.05        2954.00           1462         760.00      3212.61
  125.08        2954.25           1466         798.00      3378.30
  125.12        2954.50           1469         791.00      3347.78
  125.15        2954.75           1472         804.00      3404.46
  125.18        2955.00           1476         819.00      3469.86
  125.21        2955.25           1479         823.00      3487.30
  125.25        2955.50           1483         805.00      3408.82
  125.28        2955.75           1486         825.00      3496.02
  125.31        2956.00           1489         827.00      3504.74
  125.35        2956.25           1493         850.00      3605.02
  125.38        2956.50           1496         881.00      3740.19
  125.41        2956.75           1499         904.00      3840.47
  125.44        2957.00           1503         903.00      3836.11
  125.48        2957.25           1506         901.00      3827.39
  125.51        2957.50           1510         940.00      3997.44
  125.54        2957.75           1513         980.00      4171.86
  125.57        2958.00           1516        1009.00      4298.31
  125.61        2958.25           1520         999.00      4254.70
  125.64        2958.50           1523        1017.00      4333.19
  125.67        2958.75           1527        1047.00      4464.00
  125.71        2959.00           1530        1066.00      4546.85
  125.74        2959.25           1533        1069.00      4559.93
  125.77        2959.50           1537        1142.00      4878.24
  125.80        2959.75           1540        1149.00      4908.77
  125.84        2960.00           1544        1208.00      5166.04
  125.87        2960.25           1547        1210.00      5174.76
  125.90        2960.50           1550        1288.00      5514.89
  125.94        2960.75           1554        1458.00      6256.23
  125.97        2961.00           1557        1856.00      7991.95
  126.00        2961.25           1560        3258.00     14107.74
  126.03        2961.50           1564        9489.00     41316.62
  126.07        2961.75           1567       19921.00     86973.07
  126.10        2962.00           1571       45200.00    198148.50
  126.13        2962.25           1574       66955.00    294444.80
  126.16        2962.50           1577       89395.00    394382.10
  126.20        2962.75           1581      122244.00    541809.50
  126.23        2963.00           1584      144502.00    642481.90
  126.26        2963.25           1588      175022.00    781563.40
  126.30        2963.50           1591      198691.00    890266.60
  126.33        2963.75           1594      220407.00    990658.10
  126.36        2964.00           1598      255079.00   1152273.00
  126.39        2964.25           1601      283543.00   1286194.00
  126.43        2964.50           1605      316252.00   1441502.00
  126.46        2964.75           1608      339040.00   1550615.00
  126.49        2965.00           1611      361186.00   1657385.00
  126.52        2965.25           1615      389552.00   1795211.00
  126.56        2965.50           1618      409480.00   1892768.00
  126.59        2965.75           1621      428378.00   1985848.00
  126.62        2966.00           1625      453898.00   2112432.00
  126.66        2966.25           1628      473604.00   2210886.00
  126.69        2966.50           1632      495815.00   2322606.00
  126.72        2966.75           1635      506467.00   2376472.00
  126.75        2967.00           1638      509947.00   2394110.00
  126.79        2967.25           1642      510871.00   2398797.00
  126.82        2967.50           1645      509611.00   2392407.00
  126.85        2967.75           1649      503767.00   2362801.00
  126.88        2968.00           1652      494503.00   2315984.00
  126.92        2968.25           1655      473441.00   2210068.00
  126.95        2968.50           1659      447779.00   2081987.00
  126.98        2968.75           1662      428309.00   1985508.00
  127.02        2969.00           1666      401206.00   1852189.00
  127.05        2969.25           1669      379049.00   1744037.00
  127.08        2969.50           1672      354029.00   1622800.00
  127.11        2969.75           1676      322144.00   1469642.00
  127.15        2970.00           1679      298751.00   1358214.00
  127.18        2970.25           1683      268235.00   1214030.00
  127.21        2970.50           1686      244975.00   1105005.00
  127.24        2970.75           1689      222753.00   1001542.00
  127.28        2971.00           1693      190550.00    852794.10
  127.31        2971.25           1696      165910.00    739912.30
  127.34        2971.50           1700      136583.00    606591.70
  127.38        2971.75           1703      110494.00    488919.00
  127.41        2972.00           1706       88516.00    390455.70
  127.44        2972.25           1710       59072.00    259484.80
  127.47        2972.50           1713       39599.00    173449.30
  127.51        2972.75           1717       16011.00     69845.50
  127.54        2973.00           1720        5300.00     23019.47
  127.57        2973.25           1723        2049.00      8833.72
  127.61        2973.50           1727        1483.00      6365.25
  127.64        2973.75           1730        1377.00      5903.00
  127.67        2974.00           1734        1263.00      5405.88
  127.70        2974.25           1737        1224.00      5235.81
  127.74        2974.50           1740        1210.00      5174.76
  127.77        2974.75           1744        1158.00      4948.01
  127.80        2975.00           1747        1117.00      4769.23
  127.83        2975.25           1751        1038.00      4424.76
  127.87        2975.50           1754        1035.00      4411.68
  127.90        2975.75           1757        1015.00      4324.47
  127.93        2976.00           1761         998.00      4250.34
  127.97        2976.25           1764         998.00      4250.34
  128.00        2976.50           1768         932.00      3962.56
  128.03        2976.75           1771         945.00      4019.25
  128.06        2977.00           1774         953.00      4054.13
  128.10        2977.25           1778         913.00      3879.72
  128.13        2977.50           1781         906.00      3849.20
  128.16        2977.75           1785         858.00      3639.91
  128.19        2978.00           1788         886.00      3761.99
  128.23        2978.25           1791         902.00      3831.75
  128.26        2978.50           1795         834.00      3535.26
  128.29        2978.75           1798         847.00      3591.94
  128.32        2979.00           1802         814.00      3448.06
  128.36        2979.25           1805         837.00      3548.34
  128.39        2979.50           1808         829.00      3513.46
  128.42        2979.75           1812         806.00      3413.18
  128.46        2980.00           1815         819.00      3469.86
  128.49        2980.25           1819         799.00      3382.66
  128.52        2980.50           1822         770.00      3256.21
  128.55        2980.75           1825         761.00      3216.97
  128.59        2981.00           1829         765.00      3234.41
  128.62        2981.25           1832         746.00      3151.57
  128.65        2981.50           1836         760.00      3212.61
  128.69        2981.75           1839         753.00      3182.09
  128.72        2982.00           1842         758.00      3203.89
  128.75        2982.25           1846         736.00      3107.97
  128.78        2982.50           1849         707.00      2981.53
  128.82        2982.75           1853         720.00      3038.21
  128.85        2983.00           1856         705.00      2972.81
  128.88        2983.25           1859         711.00      2998.97
  128.91        2983.50           1863         687.00      2894.33
  128.95        2983.75           1866         707.00      2981.53
  128.98        2984.00           1870         680.00      2863.81
HS scan finished at 02:09:13
end
