************************************************************
  HS Scan of (1) Internal mercury lamp
************************************************************
Integration time is 0.2294 seconds per sample
dh090619Zaragoza Canal 41.634 .881 3.05pr987
************************************************************
Dead Time -------------------------  3.4E-08 
Number of Cycles Used -------------  4 
Starting Wavelength (Angstroms) ---  2950 
Final Wavelength (Angstoms) -------  2984 
Wavelength Increment (Angstroms) --  .25 
Filter Wheel #1 Position ---------- (1) Ground quartz diffuser (ND=2.32)
Filter Wheel #2 Position ---------- (1) Neutral Density 0.494



************************************************************
HS scan start time = 00:40:52
Dark Count =  6.1 


Time (GMT)  Wavelength (Ang)  Step Number  Raw Counts  Counts/Second

   41.60        2950.00           1408         158.00       662.18
   41.73        2950.25           1412         150.00       627.30
   41.76        2950.50           1415         159.00       666.54
   41.80        2950.75           1418         168.00       705.77
   41.83        2951.00           1422         171.00       718.85
   41.86        2951.25           1425         188.00       792.96
   41.89        2951.50           1428         160.00       670.90
   41.92        2951.75           1432         169.00       710.13
   41.95        2952.00           1435         184.00       775.52
   41.98        2952.25           1439         174.00       731.93
   42.01        2952.50           1442         178.00       749.37
   42.04        2952.75           1445         179.00       753.72
   42.07        2953.00           1449         181.00       762.44
   42.10        2953.25           1452         180.00       758.08
   42.13        2953.50           1456         181.00       762.44
   42.16        2953.75           1459         177.00       745.01
   42.19        2954.00           1462         184.00       775.52
   42.22        2954.25           1466         195.00       823.48
   42.25        2954.50           1469         187.00       788.60
   42.28        2954.75           1472         191.00       806.04
   42.32        2955.00           1476         198.00       836.55
   42.35        2955.25           1479         187.00       788.60
   42.38        2955.50           1483         205.00       867.07
   42.41        2955.75           1486         190.00       801.68
   42.44        2956.00           1489         201.00       849.63
   42.47        2956.25           1493         215.00       910.66
   42.50        2956.50           1496         206.00       871.43
   42.53        2956.75           1499         208.00       880.15
   42.56        2957.00           1503         218.00       923.74
   42.59        2957.25           1506         211.00       893.23
   42.62        2957.50           1510         221.00       936.82
   42.65        2957.75           1513         230.00       976.06
   42.68        2958.00           1516         219.00       928.10
   42.71        2958.25           1520         233.00       989.14
   42.74        2958.50           1523         240.00      1019.65
   42.77        2958.75           1527         250.00      1063.25
   42.80        2959.00           1530         244.00      1037.09
   42.83        2959.25           1533         247.00      1050.17
   42.87        2959.50           1537         269.00      1146.08
   42.90        2959.75           1540         289.00      1233.27
   42.93        2960.00           1544         283.00      1207.11
   42.96        2960.25           1547         270.00      1150.44
   42.99        2960.50           1550         298.00      1272.50
   43.02        2960.75           1554         326.00      1394.57
   43.05        2961.00           1557         430.00      1847.98
   43.08        2961.25           1560         761.00      3291.13
   43.11        2961.50           1564        2134.00      9278.86
   43.14        2961.75           1567        4517.00     19677.07
   43.17        2962.00           1571        9670.00     42187.33
   43.20        2962.25           1574       14134.00     61715.69
   43.23        2962.50           1577       18913.00     82650.85
   43.26        2962.75           1581       25315.00    110742.70
   43.29        2963.00           1584       30529.00    133661.40
   43.32        2963.25           1588       37291.00    163437.90
   43.35        2963.50           1591       42263.00    185370.80
   43.39        2963.75           1594       47505.00    208530.40
   43.42        2964.00           1598       54128.00    237843.70
   43.45        2964.25           1601       58501.00    257230.70
   43.48        2964.50           1605       64578.00    284215.00
   43.51        2964.75           1608       69388.00    305608.50
   43.54        2965.00           1611       74107.00    326627.80
   43.57        2965.25           1615       80032.00    353061.60
   43.60        2965.50           1618       84782.00    374287.90
   43.63        2965.75           1621       89481.00    395316.60
   43.66        2966.00           1625       95305.00    421422.00
   43.69        2966.25           1628      100308.00    443884.70
   43.72        2966.50           1632      105882.00    468951.90
   43.75        2966.75           1635      108172.00    479262.90
   43.78        2967.00           1638      109447.00    485006.90
   43.81        2967.25           1642      109583.00    485619.70
   43.84        2967.50           1645      109291.00    484303.90
   43.87        2967.75           1649      108528.00    480866.40
   43.91        2968.00           1652      106219.00    470468.80
   43.94        2968.25           1655      102021.00    451583.70
   43.97        2968.50           1659       95534.00    422449.40
   44.00        2968.75           1662       90422.00    399531.40
   44.03        2969.00           1666       83933.00    370491.70
   44.06        2969.25           1669       79009.00    348494.20
   44.09        2969.50           1672       74044.00    326347.00
   44.12        2969.75           1676       67202.00    295881.90
   44.15        2970.00           1679       62335.00    274249.40
   44.18        2970.25           1683       55616.00    244437.60
   44.21        2970.50           1686       50687.00    222606.60
   44.24        2970.75           1689       45552.00    199897.60
   44.27        2971.00           1693       39401.00    172741.70
   44.30        2971.25           1696       34928.00    153025.60
   44.33        2971.50           1700       28159.00    123239.40
   44.36        2971.75           1703       23266.00    101745.90
   44.39        2972.00           1706       18624.00     81384.00
   44.43        2972.25           1710       11820.00     51589.55
   44.46        2972.50           1713        7578.00     33044.52
   44.49        2972.75           1717        3134.00     13641.46
   44.52        2973.00           1720        1185.00      5139.96
   44.55        2973.25           1723         498.00      2144.45
   44.58        2973.50           1727         368.00      1577.68
   44.61        2973.75           1730         311.00      1329.18
   44.64        2974.00           1734         300.00      1281.22
   44.67        2974.25           1737         278.00      1185.31
   44.70        2974.50           1740         279.00      1189.67
   44.73        2974.75           1744         275.00      1172.24
   44.76        2975.00           1747         290.00      1237.63
   44.79        2975.25           1751         247.00      1050.17
   44.82        2975.50           1754         242.00      1028.37
   44.85        2975.75           1757         246.00      1045.81
   44.88        2976.00           1761         243.00      1032.73
   44.91        2976.25           1764         245.00      1041.45
   44.95        2976.50           1768         230.00       976.06
   44.98        2976.75           1771         225.00       954.26
   45.01        2977.00           1774         210.00       888.87
   45.04        2977.25           1778         222.00       941.18
   45.07        2977.50           1781         201.00       849.63
   45.10        2977.75           1785         194.00       819.12
   45.13        2978.00           1788         207.00       875.79
   45.16        2978.25           1791         208.00       880.15
   45.19        2978.50           1795         196.00       827.83
   45.22        2978.75           1798         202.00       853.99
   45.25        2979.00           1802         202.00       853.99
   45.28        2979.25           1805         187.00       788.60
   45.31        2979.50           1808         198.00       836.55
   45.34        2979.75           1812         198.00       836.55
   45.37        2980.00           1815         192.00       810.40
   45.40        2980.25           1819         186.00       784.24
   45.43        2980.50           1822         172.00       723.21
   45.47        2980.75           1825         186.00       784.24
   45.50        2981.00           1829         191.00       806.04
   45.53        2981.25           1832         174.00       731.93
   45.56        2981.50           1836         173.00       727.57
   45.59        2981.75           1839         181.00       762.44
   45.62        2982.00           1842         166.00       697.05
   45.65        2982.25           1846         176.00       740.65
   45.68        2982.50           1849         180.00       758.08
   45.71        2982.75           1853         170.00       714.49
   45.74        2983.00           1856         156.00       653.46
   45.77        2983.25           1859         174.00       731.93
   45.80        2983.50           1863         171.00       718.85
   45.83        2983.75           1866         166.00       697.05
   45.86        2984.00           1870         160.00       670.90
HS scan finished at 00:46:05
end
