************************************************************
  HS Scan of (1) Internal mercury lamp
************************************************************
Integration time is 0.2294 seconds per sample
dh180619Arenosillo 37.1 6.73 2.98pr1000
************************************************************
Dead Time -------------------------  3.4E-08 
Number of Cycles Used -------------  4 
Starting Wavelength (Angstroms) ---  2950 
Final Wavelength (Angstoms) -------  2984 
Wavelength Increment (Angstroms) --  .25 
Filter Wheel #1 Position ---------- (1) Ground quartz diffuser (ND=2.32)
Filter Wheel #2 Position ---------- (1) Neutral Density 0.494



************************************************************
HS scan start time = 02:13:17
Dark Count =  4.6 


Time (GMT)  Wavelength (Ang)  Step Number  Raw Counts  Counts/Second

  134.01        2950.00           1408         185.00       786.42
  134.15        2950.25           1412         194.00       825.66
  134.19        2950.50           1415         188.00       799.50
  134.22        2950.75           1418         204.00       869.25
  134.25        2951.00           1422         203.00       864.89
  134.29        2951.25           1425         203.00       864.89
  134.32        2951.50           1428         214.00       912.84
  134.35        2951.75           1432         204.00       869.25
  134.38        2952.00           1435         188.00       799.50
  134.42        2952.25           1439         200.00       851.81
  134.45        2952.50           1442         200.00       851.81
  134.48        2952.75           1445         214.00       912.84
  134.51        2953.00           1449         199.00       847.45
  134.55        2953.25           1452         207.00       882.33
  134.58        2953.50           1456         223.00       952.08
  134.61        2953.75           1459         211.00       899.77
  134.65        2954.00           1462         216.00       921.56
  134.68        2954.25           1466         218.00       930.28
  134.71        2954.50           1469         209.00       891.05
  134.74        2954.75           1472         211.00       899.77
  134.78        2955.00           1476         214.00       912.84
  134.81        2955.25           1479         242.00      1034.91
  134.84        2955.50           1483         228.00       973.88
  134.88        2955.75           1486         232.00       991.32
  134.91        2956.00           1489         259.00      1109.02
  134.94        2956.25           1493         264.00      1130.82
  134.97        2956.50           1496         233.00       995.67
  135.01        2956.75           1499         229.00       978.24
  135.04        2957.00           1503         244.00      1043.63
  135.07        2957.25           1506         266.00      1139.54
  135.11        2957.50           1510         286.00      1226.73
  135.14        2957.75           1513         262.00      1122.10
  135.17        2958.00           1516         265.00      1135.18
  135.20        2958.25           1520         270.00      1156.98
  135.24        2958.50           1523         281.00      1204.93
  135.27        2958.75           1527         283.00      1213.65
  135.30        2959.00           1530         287.00      1231.09
  135.33        2959.25           1533         287.00      1231.09
  135.37        2959.50           1537         307.00      1318.28
  135.40        2959.75           1540         317.00      1361.88
  135.43        2960.00           1544         331.00      1422.91
  135.47        2960.25           1547         323.00      1388.03
  135.50        2960.50           1550         361.00      1553.70
  135.53        2960.75           1554         367.00      1579.86
  135.56        2961.00           1557         515.00      2225.10
  135.60        2961.25           1560         890.00      3860.14
  135.63        2961.50           1564        2395.00     10423.92
  135.66        2961.75           1567        5087.00     22171.90
  135.70        2962.00           1571       11906.00     51972.32
  135.73        2962.25           1574       17663.00     77178.72
  135.76        2962.50           1577       23464.00    102621.60
  135.79        2962.75           1581       31310.00    137104.10
  135.83        2963.00           1584       37330.00    163616.50
  135.86        2963.25           1588       45438.00    199400.50
  135.89        2963.50           1591       51081.00    224357.10
  135.93        2963.75           1594       57941.00    254753.30
  135.96        2964.00           1598       65965.00    290387.40
  135.99        2964.25           1601       71356.00    314377.30
  136.02        2964.50           1605       79192.00    349317.80
  136.06        2964.75           1608       85348.00    376825.90
  136.09        2965.00           1611       90571.00    400205.60
  136.12        2965.25           1615       97790.00    432581.70
  136.15        2965.50           1618      103446.00    457998.20
  136.19        2965.75           1621      110080.00    487866.20
  136.22        2966.00           1625      117227.00    520112.40
  136.25        2966.25           1628      123157.00    546921.90
  136.28        2966.50           1632      129312.00    574801.00
  136.32        2966.75           1635      132401.00    588812.80
  136.35        2967.00           1638      133130.00    592121.50
  136.38        2967.25           1642      133109.00    592026.10
  136.42        2967.50           1645      133030.00    591667.60
  136.45        2967.75           1649      131781.00    585999.40
  136.48        2968.00           1652      128716.00    572099.10
  136.51        2968.25           1655      123705.00    549402.00
  136.55        2968.50           1659      117130.00    519674.30
  136.58        2968.75           1662      111545.00    494470.20
  136.61        2969.00           1666      104144.00    461137.90
  136.65        2969.25           1669       98077.00    433870.30
  136.68        2969.50           1672       91882.00    406079.90
  136.71        2969.75           1676       84094.00    371218.20
  136.74        2970.00           1679       78460.00    346050.30
  136.78        2970.25           1683       70791.00    311861.20
  136.81        2970.50           1686       64180.00    282452.80
  136.84        2970.75           1689       56949.00    250353.90
  136.87        2971.00           1693       48162.00    211442.30
  136.91        2971.25           1696       42280.00    185452.50
  136.94        2971.50           1700       34139.00    149557.20
  136.97        2971.75           1703       28279.00    123773.50
  137.01        2972.00           1706       23206.00    101489.10
  137.04        2972.25           1710       15865.00     69301.73
  137.07        2972.50           1713       10627.00     46378.23
  137.10        2972.75           1717        4656.00     20290.37
  137.14        2973.00           1720        1767.00      7684.66
  137.17        2973.25           1723         666.00      2883.46
  137.20        2973.50           1727         409.00      1762.97
  137.24        2973.75           1730         370.00      1592.94
  137.27        2974.00           1734         343.00      1475.23
  137.30        2974.25           1737         339.00      1457.79
  137.33        2974.50           1740         333.00      1431.63
  137.37        2974.75           1744         334.00      1435.99
  137.40        2975.00           1747         305.00      1309.56
  137.43        2975.25           1751         295.00      1265.97
  137.47        2975.50           1754         308.00      1322.64
  137.50        2975.75           1757         291.00      1248.53
  137.53        2976.00           1761         282.00      1209.29
  137.56        2976.25           1764         267.00      1143.90
  137.60        2976.50           1768         275.00      1178.77
  137.63        2976.75           1771         308.00      1322.64
  137.66        2977.00           1774         265.00      1135.18
  137.70        2977.25           1778         259.00      1109.02
  137.73        2977.50           1781         270.00      1156.98
  137.76        2977.75           1785         264.00      1130.82
  137.79        2978.00           1788         235.00      1004.39
  137.83        2978.25           1791         239.00      1021.83
  137.86        2978.50           1795         252.00      1078.51
  137.89        2978.75           1798         226.00       965.16
  137.92        2979.00           1802         230.00       982.60
  137.96        2979.25           1805         251.00      1074.15
  137.99        2979.50           1808         237.00      1013.11
  138.02        2979.75           1812         215.00       917.20
  138.06        2980.00           1815         212.00       904.13
  138.09        2980.25           1819         199.00       847.45
  138.12        2980.50           1822         218.00       930.28
  138.15        2980.75           1825         209.00       891.05
  138.19        2981.00           1829         211.00       899.77
  138.22        2981.25           1832         217.00       925.92
  138.25        2981.50           1836         232.00       991.32
  138.28        2981.75           1839         231.00       986.96
  138.32        2982.00           1842         208.00       886.69
  138.35        2982.25           1846         201.00       856.17
  138.38        2982.50           1849         205.00       873.61
  138.42        2982.75           1853         198.00       843.09
  138.45        2983.00           1856         205.00       873.61
  138.48        2983.25           1859         201.00       856.17
  138.51        2983.50           1863         195.00       830.01
  138.55        2983.75           1866         189.00       803.86
  138.58        2984.00           1870         202.00       860.53
HS scan finished at 02:18:48
end
************************************************************
  HS Scan of (1) Internal mercury lamp
************************************************************
Integration time is 0.2294 seconds per sample
dh180619Arenosillo 37.1 6.73 3.23pr1000
************************************************************
Dead Time -------------------------  3.4E-08 
Number of Cycles Used -------------  4 
Starting Wavelength (Angstroms) ---  2950 
Final Wavelength (Angstoms) -------  2984 
Wavelength Increment (Angstroms) --  .25 
Filter Wheel #1 Position ---------- (1) Ground quartz diffuser (ND=2.32)
Filter Wheel #2 Position ---------- (1) Neutral Density 0.494



************************************************************
HS scan start time = 21:07:39
Dark Count =  11.9 


Time (GMT)  Wavelength (Ang)  Step Number  Raw Counts  Counts/Second

 1268.38        2950.00           1408         185.00       754.60
 1268.52        2950.25           1412         181.00       737.16
 1268.55        2950.50           1415         191.00       780.75
 1268.59        2950.75           1418         200.00       819.99
 1268.62        2951.00           1422         200.00       819.99
 1268.65        2951.25           1425         206.00       846.14
 1268.68        2951.50           1428         201.00       824.35
 1268.72        2951.75           1432         202.00       828.71
 1268.75        2952.00           1435         196.00       802.55
 1268.78        2952.25           1439         212.00       872.30
 1268.81        2952.50           1442         216.00       889.74
 1268.85        2952.75           1445         203.00       833.07
 1268.88        2953.00           1449         196.00       802.55
 1268.91        2953.25           1452         204.00       837.43
 1268.95        2953.50           1456         235.00       972.57
 1268.98        2953.75           1459         215.00       885.38
 1269.01        2954.00           1462         203.00       833.07
 1269.04        2954.25           1466         243.00      1007.45
 1269.08        2954.50           1469         227.00       937.69
 1269.11        2954.75           1472         250.00      1037.96
 1269.14        2955.00           1476         224.00       924.62
 1269.17        2955.25           1479         218.00       898.46
 1269.21        2955.50           1483         246.00      1020.52
 1269.24        2955.75           1486         226.00       933.33
 1269.27        2956.00           1489         240.00       994.37
 1269.31        2956.25           1493         254.00      1055.40
 1269.34        2956.50           1496         237.00       981.29
 1269.37        2956.75           1499         245.00      1016.16
 1269.40        2957.00           1503         264.00      1098.99
 1269.44        2957.25           1506         277.00      1155.67
 1269.47        2957.50           1510         277.00      1155.67
 1269.50        2957.75           1513         271.00      1129.51
 1269.53        2958.00           1516         284.00      1186.19
 1269.57        2958.25           1520         296.00      1238.50
 1269.60        2958.50           1523         284.00      1186.19
 1269.63        2958.75           1527         290.00      1212.34
 1269.67        2959.00           1530         300.00      1255.94
 1269.70        2959.25           1533         319.00      1338.77
 1269.73        2959.50           1537         314.00      1316.97
 1269.76        2959.75           1540         314.00      1316.97
 1269.80        2960.00           1544         315.00      1321.33
 1269.83        2960.25           1547         348.00      1465.20
 1269.86        2960.50           1550         351.00      1478.28
 1269.90        2960.75           1554         400.00      1691.90
 1269.93        2961.00           1557         569.00      2428.71
 1269.96        2961.25           1560        1075.00      4634.99
 1269.99        2961.50           1564        3031.00     13166.75
 1270.03        2961.75           1567        6143.00     26751.00
 1270.06        2962.00           1571       12866.00     56140.62
 1270.09        2962.25           1574       18513.00     80872.02
 1270.12        2962.50           1577       24418.00    106778.00
 1270.16        2962.75           1581       32969.00    144373.50
 1270.19        2963.00           1584       39471.00    173024.90
 1270.22        2963.25           1588       47167.00    207010.30
 1270.25        2963.50           1591       53087.00    233206.70
 1270.29        2963.75           1594       59593.00    262050.20
 1270.32        2964.00           1598       67777.00    298414.00
 1270.35        2964.25           1601       73533.00    324043.60
 1270.39        2964.50           1605       81145.00    358006.60
 1270.42        2964.75           1608       86938.00    383906.60
 1270.45        2965.00           1611       92381.00    408283.70
 1270.48        2965.25           1615      100677.00    445516.80
 1270.52        2965.50           1618      105737.00    468273.20
 1270.55        2965.75           1621      111520.00    494324.60
 1270.58        2966.00           1625      118935.00    527796.20
 1270.61        2966.25           1628      124509.00    553008.20
 1270.65        2966.50           1632      130444.00    579901.10
 1270.68        2966.75           1635      133616.00    594294.50
 1270.71        2967.00           1638      135088.00    600978.80
 1270.75        2967.25           1642      135051.00    600810.70
 1270.78        2967.50           1645      134800.00    599670.80
 1270.81        2967.75           1649      133301.00    592864.50
 1270.84        2968.00           1652      129768.00    576835.50
 1270.88        2968.25           1655      123746.00    549554.50
 1270.91        2968.50           1659      116011.00    514588.00
 1270.94        2968.75           1662      109967.00    487324.10
 1270.98        2969.00           1666      102099.00    451908.40
 1271.01        2969.25           1669       96228.00    425537.50
 1271.04        2969.50           1672       90477.00    399751.80
 1271.07        2969.75           1676       82540.00    364239.40
 1271.11        2970.00           1679       76236.00    336094.70
 1271.14        2970.25           1683       68212.00    300349.30
 1271.17        2970.50           1686       62088.00    273126.60
 1271.21        2970.75           1689       55624.00    244447.40
 1271.24        2971.00           1693       47593.00    208893.80
 1271.27        2971.25           1696       41800.00    183301.40
 1271.30        2971.50           1700       32980.00    144421.90
 1271.34        2971.75           1703       27170.00    118867.00
 1271.37        2972.00           1706       21732.00     94988.50
 1271.40        2972.25           1710       14334.00     62565.82
 1271.43        2972.50           1713        9280.00     40457.10
 1271.47        2972.75           1717        3813.00     16579.09
 1271.50        2973.00           1720        1459.00      6309.55
 1271.53        2973.25           1723         565.00      2411.27
 1271.56        2973.50           1727         402.00      1700.62
 1271.60        2973.75           1730         373.00      1574.19
 1271.63        2974.00           1734         333.00      1399.81
 1271.66        2974.25           1737         363.00      1530.59
 1271.70        2974.50           1740         320.00      1343.13
 1271.73        2974.75           1744         327.00      1373.65
 1271.76        2975.00           1747         309.00      1295.17
 1271.79        2975.25           1751         287.00      1199.26
 1271.83        2975.50           1754         304.00      1273.38
 1271.86        2975.75           1757         300.00      1255.94
 1271.89        2976.00           1761         283.00      1181.83
 1271.92        2976.25           1764         271.00      1129.51
 1271.96        2976.50           1768         283.00      1181.83
 1271.99        2976.75           1771         278.00      1160.03
 1272.02        2977.00           1774         267.00      1112.07
 1272.06        2977.25           1778         248.00      1029.24
 1272.09        2977.50           1781         262.00      1090.28
 1272.12        2977.75           1785         247.00      1024.88
 1272.15        2978.00           1788         286.00      1194.90
 1272.19        2978.25           1791         232.00       959.49
 1272.22        2978.50           1795         251.00      1042.32
 1272.25        2978.75           1798         261.00      1085.92
 1272.29        2979.00           1802         229.00       946.41
 1272.32        2979.25           1805         238.00       985.65
 1272.35        2979.50           1808         225.00       928.97
 1272.38        2979.75           1812         247.00      1024.88
 1272.42        2980.00           1815         215.00       885.38
 1272.45        2980.25           1819         225.00       928.97
 1272.48        2980.50           1822         228.00       942.05
 1272.51        2980.75           1825         226.00       933.33
 1272.55        2981.00           1829         210.00       863.58
 1272.58        2981.25           1832         202.00       828.71
 1272.61        2981.50           1836         228.00       942.05
 1272.65        2981.75           1839         210.00       863.58
 1272.68        2982.00           1842         205.00       841.79
 1272.71        2982.25           1846         214.00       881.02
 1272.74        2982.50           1849         206.00       846.14
 1272.78        2982.75           1853         199.00       815.63
 1272.81        2983.00           1856         199.00       815.63
 1272.84        2983.25           1859         205.00       841.79
 1272.87        2983.50           1863         204.00       837.43
 1272.91        2983.75           1866         198.00       811.27
 1272.94        2984.00           1870         187.00       763.32
HS scan finished at 21:13:10
end
