************************************************************
  HS Scan of (1) Internal mercury lamp
************************************************************
Integration time is 0.2294 seconds per sample
dh170619Arenosillo 37.1 6.73 2.98pr1000
************************************************************
Dead Time -------------------------  3.4E-08 
Number of Cycles Used -------------  4 
Starting Wavelength (Angstroms) ---  2950 
Final Wavelength (Angstoms) -------  2984 
Wavelength Increment (Angstroms) --  .25 
Filter Wheel #1 Position ---------- (1) Ground quartz diffuser (ND=2.32)
Filter Wheel #2 Position ---------- (1) Neutral Density 0.494



************************************************************
HS scan start time = 22:05:24
Dark Count =  5.9 


Time (GMT)  Wavelength (Ang)  Step Number  Raw Counts  Counts/Second

 1326.12        2950.00           1408         167.00       702.28
 1326.26        2950.25           1412         170.00       715.36
 1326.30        2950.50           1415         172.00       724.08
 1326.33        2950.75           1418         164.00       689.21
 1326.36        2951.00           1422         168.00       706.64
 1326.39        2951.25           1425         182.00       767.67
 1326.43        2951.50           1428         167.00       702.28
 1326.46        2951.75           1432         161.00       676.13
 1326.49        2952.00           1435         172.00       724.08
 1326.52        2952.25           1439         179.00       754.60
 1326.56        2952.50           1442         176.00       741.52
 1326.59        2952.75           1445         167.00       702.28
 1326.62        2953.00           1449         176.00       741.52
 1326.66        2953.25           1452         183.00       772.03
 1326.69        2953.50           1456         179.00       754.60
 1326.72        2953.75           1459         183.00       772.03
 1326.75        2954.00           1462         184.00       776.39
 1326.79        2954.25           1466         188.00       793.83
 1326.82        2954.50           1469         178.00       750.24
 1326.85        2954.75           1472         186.00       785.11
 1326.89        2955.00           1476         184.00       776.39
 1326.92        2955.25           1479         190.00       802.55
 1326.95        2955.50           1483         194.00       819.99
 1326.98        2955.75           1486         216.00       915.90
 1327.02        2956.00           1489         197.00       833.07
 1327.05        2956.25           1493         202.00       854.86
 1327.08        2956.50           1496         203.00       859.22
 1327.11        2956.75           1499         201.00       850.50
 1327.15        2957.00           1503         237.00      1007.45
 1327.18        2957.25           1506         215.00       911.54
 1327.21        2957.50           1510         213.00       902.82
 1327.24        2957.75           1513         220.00       933.33
 1327.28        2958.00           1516         211.00       894.10
 1327.31        2958.25           1520         256.00      1090.28
 1327.34        2958.50           1523         239.00      1016.16
 1327.38        2958.75           1527         236.00      1003.09
 1327.41        2959.00           1530         244.00      1037.96
 1327.44        2959.25           1533         266.00      1133.87
 1327.47        2959.50           1537         253.00      1077.20
 1327.51        2959.75           1540         272.00      1160.03
 1327.54        2960.00           1544         281.00      1199.26
 1327.57        2960.25           1547         277.00      1181.83
 1327.61        2960.50           1550         302.00      1290.82
 1327.64        2960.75           1554         309.00      1321.33
 1327.67        2961.00           1557         433.00      1861.93
 1327.70        2961.25           1560         750.00      3244.04
 1327.74        2961.50           1564        2147.00      9336.44
 1327.77        2961.75           1567        4396.00     19149.78
 1327.80        2962.00           1571        9788.00     42704.07
 1327.83        2962.25           1574       14091.00     61528.32
 1327.87        2962.50           1577       18567.00     81135.03
 1327.90        2962.75           1581       24715.00    108108.50
 1327.93        2963.00           1584       29318.00    128336.00
 1327.97        2963.25           1588       35929.00    157436.40
 1328.00        2963.50           1591       40737.00    178636.60
 1328.03        2963.75           1594       46322.00    203301.50
 1328.06        2964.00           1598       52823.00    232064.00
 1328.10        2964.25           1601       57342.00    252090.90
 1328.13        2964.50           1605       63570.00    279736.50
 1328.16        2964.75           1608       67847.00    298752.00
 1328.19        2965.00           1611       72103.00    317698.80
 1328.23        2965.25           1615       78497.00    346209.60
 1328.26        2965.50           1618       82650.00    364757.70
 1328.29        2965.75           1621       87729.00    387473.50
 1328.33        2966.00           1625       93655.00    414022.20
 1328.36        2966.25           1628       98038.00    433689.40
 1328.39        2966.50           1632      103550.00    458460.20
 1328.42        2966.75           1635      105603.00    467697.10
 1328.46        2967.00           1638      106911.00    473585.10
 1328.49        2967.25           1642      106878.00    473436.50
 1328.52        2967.50           1645      106577.00    472081.30
 1328.55        2967.75           1649      105375.00    466671.00
 1328.59        2968.00           1652      102309.00    452879.50
 1328.62        2968.25           1655       98770.00    436976.60
 1328.65        2968.50           1659       93194.00    411955.20
 1328.69        2968.75           1662       88605.00    391395.00
 1328.72        2969.00           1666       82053.00    362090.00
 1328.75        2969.25           1669       76859.00    338900.50
 1328.78        2969.50           1672       72090.00    317640.90
 1328.82        2969.75           1676       65386.00    287807.40
 1328.85        2970.00           1679       60574.00    266431.00
 1328.88        2970.25           1683       54090.00    237676.20
 1328.91        2970.50           1686       49433.00    217058.50
 1328.95        2970.75           1689       44460.00    195073.80
 1328.98        2971.00           1693       37686.00    165180.10
 1329.01        2971.25           1696       33032.00    144677.20
 1329.05        2971.50           1700       26178.00    114534.50
 1329.08        2971.75           1703       21677.00     94773.52
 1329.11        2972.00           1706       17284.00     75512.28
 1329.14        2972.25           1710       11072.00     48318.64
 1329.18        2972.50           1713        7107.00     30987.74
 1329.21        2972.75           1717        2959.00     12878.79
 1329.24        2973.00           1720        1125.00      4879.19
 1329.27        2973.25           1723         479.00      2062.48
 1329.31        2973.50           1727         319.00      1364.93
 1329.34        2973.75           1730         297.00      1269.02
 1329.37        2974.00           1734         286.00      1221.06
 1329.41        2974.25           1737         272.00      1160.03
 1329.44        2974.50           1740         266.00      1133.87
 1329.47        2974.75           1744         286.00      1221.06
 1329.50        2975.00           1747         250.00      1064.12
 1329.54        2975.25           1751         232.00       985.65
 1329.57        2975.50           1754         229.00       972.57
 1329.60        2975.75           1757         226.00       959.49
 1329.63        2976.00           1761         215.00       911.54
 1329.67        2976.25           1764         228.00       968.21
 1329.70        2976.50           1768         211.00       894.10
 1329.73        2976.75           1771         255.00      1085.92
 1329.77        2977.00           1774         212.00       898.46
 1329.80        2977.25           1778         229.00       972.57
 1329.83        2977.50           1781         207.00       876.66
 1329.86        2977.75           1785         223.00       946.41
 1329.90        2978.00           1788         203.00       859.22
 1329.93        2978.25           1791         203.00       859.22
 1329.96        2978.50           1795         193.00       815.63
 1330.00        2978.75           1798         221.00       937.69
 1330.03        2979.00           1802         191.00       806.91
 1330.06        2979.25           1805         183.00       772.03
 1330.09        2979.50           1808         191.00       806.91
 1330.13        2979.75           1812         204.00       863.58
 1330.16        2980.00           1815         184.00       776.39
 1330.19        2980.25           1819         176.00       741.52
 1330.22        2980.50           1822         180.00       758.96
 1330.26        2980.75           1825         183.00       772.03
 1330.29        2981.00           1829         194.00       819.99
 1330.32        2981.25           1832         188.00       793.83
 1330.36        2981.50           1836         188.00       793.83
 1330.39        2981.75           1839         170.00       715.36
 1330.42        2982.00           1842         194.00       819.99
 1330.46        2982.25           1846         182.00       767.67
 1330.49        2982.50           1849         168.00       706.64
 1330.52        2982.75           1853         159.00       667.41
 1330.55        2983.00           1856         168.00       706.64
 1330.59        2983.25           1859         163.00       684.85
 1330.62        2983.50           1863         166.00       697.92
 1330.65        2983.75           1866         178.00       750.24
 1330.68        2984.00           1870         169.00       711.00
HS scan finished at 22:10:55
end
