************************************************************
  HS Scan of (1) Internal mercury lamp
************************************************************
Integration time is 0.2294 seconds per sample
dh180619Arenosillo 37.1 6.73 2.98pr1000
************************************************************
Dead Time -------------------------  3.4E-08 
Number of Cycles Used -------------  4 
Starting Wavelength (Angstroms) ---  2950 
Final Wavelength (Angstoms) -------  2984 
Wavelength Increment (Angstroms) --  .25 
Filter Wheel #1 Position ---------- (1) Ground quartz diffuser (ND=2.32)
Filter Wheel #2 Position ---------- (1) Neutral Density 0.494



************************************************************
HS scan start time = 02:13:17
Dark Count =  4.6 


Time (GMT)  Wavelength (Ang)  Step Number  Raw Counts  Counts/Second

  134.01        2950.00           1408         185.00       786.42
  134.15        2950.25           1412         194.00       825.66
  134.19        2950.50           1415         188.00       799.50
  134.22        2950.75           1418         204.00       869.25
  134.25        2951.00           1422         203.00       864.89
  134.29        2951.25           1425         203.00       864.89
  134.32        2951.50           1428         214.00       912.84
  134.35        2951.75           1432         204.00       869.25
  134.38        2952.00           1435         188.00       799.50
  134.42        2952.25           1439         200.00       851.81
  134.45        2952.50           1442         200.00       851.81
  134.48        2952.75           1445         214.00       912.84
  134.51        2953.00           1449         199.00       847.45
  134.55        2953.25           1452         207.00       882.33
  134.58        2953.50           1456         223.00       952.08
  134.61        2953.75           1459         211.00       899.77
  134.65        2954.00           1462         216.00       921.56
  134.68        2954.25           1466         218.00       930.28
  134.71        2954.50           1469         209.00       891.05
  134.74        2954.75           1472         211.00       899.77
  134.78        2955.00           1476         214.00       912.84
  134.81        2955.25           1479         242.00      1034.91
  134.84        2955.50           1483         228.00       973.88
  134.88        2955.75           1486         232.00       991.32
  134.91        2956.00           1489         259.00      1109.02
  134.94        2956.25           1493         264.00      1130.82
  134.97        2956.50           1496         233.00       995.67
  135.01        2956.75           1499         229.00       978.24
  135.04        2957.00           1503         244.00      1043.63
  135.07        2957.25           1506         266.00      1139.54
  135.11        2957.50           1510         286.00      1226.73
  135.14        2957.75           1513         262.00      1122.10
  135.17        2958.00           1516         265.00      1135.18
  135.20        2958.25           1520         270.00      1156.98
  135.24        2958.50           1523         281.00      1204.93
  135.27        2958.75           1527         283.00      1213.65
  135.30        2959.00           1530         287.00      1231.09
  135.33        2959.25           1533         287.00      1231.09
  135.37        2959.50           1537         307.00      1318.28
  135.40        2959.75           1540         317.00      1361.88
  135.43        2960.00           1544         331.00      1422.91
  135.47        2960.25           1547         323.00      1388.03
  135.50        2960.50           1550         361.00      1553.70
  135.53        2960.75           1554         367.00      1579.86
  135.56        2961.00           1557         515.00      2225.10
  135.60        2961.25           1560         890.00      3860.14
  135.63        2961.50           1564        2395.00     10423.92
  135.66        2961.75           1567        5087.00     22171.90
  135.70        2962.00           1571       11906.00     51972.32
  135.73        2962.25           1574       17663.00     77178.72
  135.76        2962.50           1577       23464.00    102621.60
  135.79        2962.75           1581       31310.00    137104.10
  135.83        2963.00           1584       37330.00    163616.50
  135.86        2963.25           1588       45438.00    199400.50
  135.89        2963.50           1591       51081.00    224357.10
  135.93        2963.75           1594       57941.00    254753.30
  135.96        2964.00           1598       65965.00    290387.40
  135.99        2964.25           1601       71356.00    314377.30
  136.02        2964.50           1605       79192.00    349317.80
  136.06        2964.75           1608       85348.00    376825.90
  136.09        2965.00           1611       90571.00    400205.60
  136.12        2965.25           1615       97790.00    432581.70
  136.15        2965.50           1618      103446.00    457998.20
  136.19        2965.75           1621      110080.00    487866.20
  136.22        2966.00           1625      117227.00    520112.40
  136.25        2966.25           1628      123157.00    546921.90
  136.28        2966.50           1632      129312.00    574801.00
  136.32        2966.75           1635      132401.00    588812.80
  136.35        2967.00           1638      133130.00    592121.50
  136.38        2967.25           1642      133109.00    592026.10
  136.42        2967.50           1645      133030.00    591667.60
  136.45        2967.75           1649      131781.00    585999.40
  136.48        2968.00           1652      128716.00    572099.10
  136.51        2968.25           1655      123705.00    549402.00
  136.55        2968.50           1659      117130.00    519674.30
  136.58        2968.75           1662      111545.00    494470.20
  136.61        2969.00           1666      104144.00    461137.90
  136.65        2969.25           1669       98077.00    433870.30
  136.68        2969.50           1672       91882.00    406079.90
  136.71        2969.75           1676       84094.00    371218.20
  136.74        2970.00           1679       78460.00    346050.30
  136.78        2970.25           1683       70791.00    311861.20
  136.81        2970.50           1686       64180.00    282452.80
  136.84        2970.75           1689       56949.00    250353.90
  136.87        2971.00           1693       48162.00    211442.30
  136.91        2971.25           1696       42280.00    185452.50
  136.94        2971.50           1700       34139.00    149557.20
  136.97        2971.75           1703       28279.00    123773.50
  137.01        2972.00           1706       23206.00    101489.10
  137.04        2972.25           1710       15865.00     69301.73
  137.07        2972.50           1713       10627.00     46378.23
  137.10        2972.75           1717        4656.00     20290.37
  137.14        2973.00           1720        1767.00      7684.66
  137.17        2973.25           1723         666.00      2883.46
  137.20        2973.50           1727         409.00      1762.97
  137.24        2973.75           1730         370.00      1592.94
  137.27        2974.00           1734         343.00      1475.23
  137.30        2974.25           1737         339.00      1457.79
  137.33        2974.50           1740         333.00      1431.63
  137.37        2974.75           1744         334.00      1435.99
  137.40        2975.00           1747         305.00      1309.56
  137.43        2975.25           1751         295.00      1265.97
  137.47        2975.50           1754         308.00      1322.64
  137.50        2975.75           1757         291.00      1248.53
  137.53        2976.00           1761         282.00      1209.29
  137.56        2976.25           1764         267.00      1143.90
  137.60        2976.50           1768         275.00      1178.77
  137.63        2976.75           1771         308.00      1322.64
  137.66        2977.00           1774         265.00      1135.18
  137.70        2977.25           1778         259.00      1109.02
  137.73        2977.50           1781         270.00      1156.98
  137.76        2977.75           1785         264.00      1130.82
  137.79        2978.00           1788         235.00      1004.39
  137.83        2978.25           1791         239.00      1021.83
  137.86        2978.50           1795         252.00      1078.51
  137.89        2978.75           1798         226.00       965.16
  137.92        2979.00           1802         230.00       982.60
  137.96        2979.25           1805         251.00      1074.15
  137.99        2979.50           1808         237.00      1013.11
  138.02        2979.75           1812         215.00       917.20
  138.06        2980.00           1815         212.00       904.13
  138.09        2980.25           1819         199.00       847.45
  138.12        2980.50           1822         218.00       930.28
  138.15        2980.75           1825         209.00       891.05
  138.19        2981.00           1829         211.00       899.77
  138.22        2981.25           1832         217.00       925.92
  138.25        2981.50           1836         232.00       991.32
  138.28        2981.75           1839         231.00       986.96
  138.32        2982.00           1842         208.00       886.69
  138.35        2982.25           1846         201.00       856.17
  138.38        2982.50           1849         205.00       873.61
  138.42        2982.75           1853         198.00       843.09
  138.45        2983.00           1856         205.00       873.61
  138.48        2983.25           1859         201.00       856.17
  138.51        2983.50           1863         195.00       830.01
  138.55        2983.75           1866         189.00       803.86
  138.58        2984.00           1870         202.00       860.53
HS scan finished at 02:18:48
end
