************************************************************
  HS Scan of (1) Internal mercury lamp
************************************************************
Integration time is 0.2294 seconds per sample
dh220619Arenosillo 37.1 6.73 3.25pr1000
************************************************************
Dead Time -------------------------  3.4E-08 
Number of Cycles Used -------------  4 
Starting Wavelength (Angstroms) ---  2950 
Final Wavelength (Angstoms) -------  2984 
Wavelength Increment (Angstroms) --  .25 
Filter Wheel #1 Position ---------- (1) Ground quartz diffuser (ND=2.32)
Filter Wheel #2 Position ---------- (1) Neutral Density 0.494



************************************************************
HS scan start time = 02:15:16
Dark Count =  12.3 


Time (GMT)  Wavelength (Ang)  Step Number  Raw Counts  Counts/Second

  136.00        2950.00           1408         155.00       622.07
  136.14        2950.25           1412         162.00       652.59
  136.17        2950.50           1415         164.00       661.31
  136.21        2950.75           1418         162.00       652.59
  136.24        2951.00           1422         157.00       630.79
  136.27        2951.25           1425         172.00       696.18
  136.30        2951.50           1428         153.00       613.35
  136.34        2951.75           1432         166.00       670.02
  136.37        2952.00           1435         169.00       683.10
  136.40        2952.25           1439         173.00       700.54
  136.43        2952.50           1442         157.00       630.79
  136.47        2952.75           1445         162.00       652.59
  136.50        2953.00           1449         154.00       617.71
  136.53        2953.25           1452         169.00       683.10
  136.57        2953.50           1456         175.00       709.26
  136.60        2953.75           1459         165.00       665.66
  136.63        2954.00           1462         178.00       722.34
  136.66        2954.25           1466         176.00       713.62
  136.70        2954.50           1469         177.00       717.98
  136.73        2954.75           1472         182.00       739.77
  136.76        2955.00           1476         179.00       726.70
  136.80        2955.25           1479         188.00       765.93
  136.83        2955.50           1483         197.00       805.17
  136.86        2955.75           1486         200.00       818.24
  136.89        2956.00           1489         191.00       779.01
  136.93        2956.25           1493         194.00       792.09
  136.96        2956.50           1496         195.00       796.45
  136.99        2956.75           1499         202.00       826.96
  137.02        2957.00           1503         190.00       774.65
  137.06        2957.25           1506         200.00       818.24
  137.09        2957.50           1510         204.00       835.68
  137.12        2957.75           1513         204.00       835.68
  137.16        2958.00           1516         203.00       831.32
  137.19        2958.25           1520         213.00       874.92
  137.22        2958.50           1523         209.00       857.48
  137.25        2958.75           1527         224.00       922.87
  137.29        2959.00           1530         245.00      1014.42
  137.32        2959.25           1533         240.00       992.62
  137.35        2959.50           1537         274.00      1140.85
  137.38        2959.75           1540         240.00       992.62
  137.42        2960.00           1544         271.00      1127.77
  137.45        2960.25           1547         269.00      1119.05
  137.48        2960.50           1550         285.00      1188.80
  137.51        2960.75           1554         350.00      1472.17
  137.55        2961.00           1557         587.00      2505.44
  137.58        2961.25           1560        1103.00      4755.35
  137.61        2961.50           1564        3267.00     14194.73
  137.65        2961.75           1567        6580.00     28657.82
  137.68        2962.00           1571       12204.00     53242.33
  137.71        2962.25           1574       16450.00     71830.40
  137.74        2962.50           1577       20689.00     90411.32
  137.78        2962.75           1581       26342.00    115226.90
  137.81        2963.00           1584       30503.00    133519.80
  137.84        2963.25           1588       36560.00    160188.70
  137.88        2963.50           1591       41101.00    180214.60
  137.91        2963.75           1594       45388.00    199145.50
  137.94        2964.00           1598       51539.00    226350.40
  137.97        2964.25           1601       56087.00    246498.00
  138.01        2964.50           1605       61486.00    270451.50
  138.04        2964.75           1608       65774.00    289504.00
  138.07        2965.00           1611       69480.00    305990.40
  138.11        2965.25           1615       74735.00    329399.60
  138.14        2965.50           1618       78642.00    346828.30
  138.17        2965.75           1621       83222.00    367285.60
  138.20        2966.00           1625       88262.00    389830.80
  138.24        2966.25           1628       91663.00    405064.00
  138.27        2966.50           1632       96083.00    424885.00
  138.30        2966.75           1635       98296.00    434819.20
  138.33        2967.00           1638       98411.00    435335.60
  138.37        2967.25           1642       98421.00    435380.50
  138.40        2967.50           1645       98071.00    433808.90
  138.43        2967.75           1649       96520.00    426846.20
  138.47        2968.00           1652       93455.00    413096.80
  138.50        2968.25           1655       89612.00    395875.50
  138.53        2968.50           1659       84172.00    371532.50
  138.56        2968.75           1662       79675.00    351439.90
  138.60        2969.00           1666       74427.00    328026.60
  138.63        2969.25           1669       70313.00    309698.60
  138.66        2969.50           1672       65774.00    289504.00
  138.69        2969.75           1676       59636.00    262239.30
  138.73        2970.00           1679       54926.00    241352.10
  138.76        2970.25           1683       48896.00    214654.60
  138.79        2970.50           1686       44546.00    195425.40
  138.82        2970.75           1689       39947.00    175122.90
  138.86        2971.00           1693       33669.00    147453.60
  138.89        2971.25           1696       29971.00    131179.70
  138.92        2971.50           1700       23984.00    104870.70
  138.96        2971.75           1703       19659.00     85894.33
  138.99        2972.00           1706       15504.00     67686.98
  139.02        2972.25           1710        9988.00     43550.49
  139.05        2972.50           1713        6520.00     28395.76
  139.09        2972.75           1717        2467.00     10704.42
  139.12        2973.00           1720         858.00      3687.04
  139.15        2973.25           1723         378.00      1594.25
  139.19        2973.50           1727         299.00      1249.84
  139.22        2973.75           1730         292.00      1219.32
  139.25        2974.00           1734         271.00      1127.77
  139.28        2974.25           1737         271.00      1127.77
  139.32        2974.50           1740         249.00      1031.86
  139.35        2974.75           1744         277.00      1153.93
  139.38        2975.00           1747         259.00      1075.45
  139.41        2975.25           1751         223.00       918.51
  139.45        2975.50           1754         219.00       901.07
  139.48        2975.75           1757         227.00       935.95
  139.51        2976.00           1761         220.00       905.43
  139.55        2976.25           1764         211.00       866.20
  139.58        2976.50           1768         207.00       848.76
  139.61        2976.75           1771         193.00       787.73
  139.64        2977.00           1774         214.00       879.28
  139.68        2977.25           1778         208.00       853.12
  139.71        2977.50           1781         202.00       826.96
  139.74        2977.75           1785         181.00       735.42
  139.77        2978.00           1788         188.00       765.93
  139.81        2978.25           1791         188.00       765.93
  139.84        2978.50           1795         192.00       783.37
  139.87        2978.75           1798         173.00       700.54
  139.91        2979.00           1802         178.00       722.34
  139.94        2979.25           1805         167.00       674.38
  139.97        2979.50           1808         171.00       691.82
  140.00        2979.75           1812         184.00       748.49
  140.04        2980.00           1815         179.00       726.70
  140.07        2980.25           1819         184.00       748.49
  140.10        2980.50           1822         170.00       687.46
  140.13        2980.75           1825         161.00       648.23
  140.17        2981.00           1829         171.00       691.82
  140.20        2981.25           1832         168.00       678.74
  140.23        2981.50           1836         170.00       687.46
  140.27        2981.75           1839         154.00       617.71
  140.30        2982.00           1842         162.00       652.59
  140.33        2982.25           1846         169.00       683.10
  140.36        2982.50           1849         156.00       626.43
  140.40        2982.75           1853         164.00       661.31
  140.43        2983.00           1856         166.00       670.02
  140.46        2983.25           1859         153.00       613.35
  140.50        2983.50           1863         153.00       613.35
  140.53        2983.75           1866         173.00       700.54
  140.56        2984.00           1870         150.00       600.27
HS scan finished at 02:20:47
end
************************************************************
  HS Scan of (1) Internal mercury lamp
************************************************************
Integration time is 0.2294 seconds per sample
dh220619Arenosillo 37.1 6.73 3.15pr1000
************************************************************
Dead Time -------------------------  3.4E-08 
Number of Cycles Used -------------  4 
Starting Wavelength (Angstroms) ---  2950 
Final Wavelength (Angstoms) -------  2984 
Wavelength Increment (Angstroms) --  .25 
Filter Wheel #1 Position ---------- (1) Ground quartz diffuser (ND=2.32)
Filter Wheel #2 Position ---------- (1) Neutral Density 0.494



************************************************************
HS scan start time = 21:51:12
Dark Count =  10.6 


Time (GMT)  Wavelength (Ang)  Step Number  Raw Counts  Counts/Second

 1311.94        2950.00           1408         156.00       633.84
 1312.08        2950.25           1412         175.00       716.67
 1312.11        2950.50           1415         167.00       681.79
 1312.14        2950.75           1418         154.00       625.12
 1312.18        2951.00           1422         166.00       677.43
 1312.21        2951.25           1425         165.00       673.08
 1312.24        2951.50           1428         172.00       703.59
 1312.27        2951.75           1432         173.00       707.95
 1312.31        2952.00           1435         158.00       642.56
 1312.34        2952.25           1439         173.00       707.95
 1312.37        2952.50           1442         174.00       712.31
 1312.41        2952.75           1445         175.00       716.67
 1312.44        2953.00           1449         157.00       638.20
 1312.47        2953.25           1452         168.00       686.15
 1312.50        2953.50           1456         181.00       742.83
 1312.54        2953.75           1459         171.00       699.23
 1312.57        2954.00           1462         188.00       773.34
 1312.60        2954.25           1466         173.00       707.95
 1312.63        2954.50           1469         184.00       755.90
 1312.67        2954.75           1472         191.00       786.42
 1312.70        2955.00           1476         194.00       799.50
 1312.73        2955.25           1479         184.00       755.90
 1312.77        2955.50           1483         179.00       734.11
 1312.80        2955.75           1486         197.00       812.58
 1312.83        2956.00           1489         189.00       777.70
 1312.86        2956.25           1493         206.00       851.81
 1312.90        2956.50           1496         214.00       886.69
 1312.93        2956.75           1499         197.00       812.58
 1312.96        2957.00           1503         208.00       860.53
 1312.99        2957.25           1506         201.00       830.01
 1313.03        2957.50           1510         209.00       864.89
 1313.06        2957.75           1513         232.00       965.16
 1313.09        2958.00           1516         218.00       904.13
 1313.13        2958.25           1520         214.00       886.69
 1313.16        2958.50           1523         245.00      1021.83
 1313.19        2958.75           1527         239.00       995.67
 1313.22        2959.00           1530         271.00      1135.18
 1313.26        2959.25           1533         233.00       969.52
 1313.29        2959.50           1537         255.00      1065.43
 1313.32        2959.75           1540         261.00      1091.58
 1313.36        2960.00           1544         274.00      1148.26
 1313.39        2960.25           1547         254.00      1061.07
 1313.42        2960.50           1550         297.00      1248.53
 1313.45        2960.75           1554         308.00      1296.48
 1313.49        2961.00           1557         426.00      1810.92
 1313.52        2961.25           1560         830.00      3572.36
 1313.55        2961.50           1564        2518.00     10934.32
 1313.58        2961.75           1567        5208.00     22673.97
 1313.62        2962.00           1571       10718.00     46749.93
 1313.65        2962.25           1574       15248.00     66573.36
 1313.68        2962.50           1577       19591.00     85603.63
 1313.71        2962.75           1581       25594.00    111948.40
 1313.75        2963.00           1584       29503.00    129128.90
 1313.78        2963.25           1588       35351.00    154869.10
 1313.81        2963.50           1591       39545.00    173357.10
 1313.85        2963.75           1594       44570.00    195538.90
 1313.88        2964.00           1598       50836.00    223246.10
 1313.91        2964.25           1601       55312.00    243070.30
 1313.94        2964.50           1605       62133.00    273332.20
 1313.98        2964.75           1608       66956.00    294767.70
 1314.01        2965.00           1611       71702.00    315891.60
 1314.04        2965.25           1615       77300.00    340847.00
 1314.07        2965.50           1618       82154.00    362520.20
 1314.11        2965.75           1621       86308.00    381093.50
 1314.14        2966.00           1625       92124.00    407137.60
 1314.17        2966.25           1628       95761.00    423447.70
 1314.21        2966.50           1632      100021.00    442574.90
 1314.24        2966.75           1635      101641.00    449855.30
 1314.27        2967.00           1638      101962.00    451298.30
 1314.30        2967.25           1642      101745.00    450322.80
 1314.34        2967.50           1645      101532.00    449365.30
 1314.37        2967.75           1649      100220.00    443469.10
 1314.40        2968.00           1652       97943.00    433241.70
 1314.44        2968.25           1655       93537.00    413472.00
 1314.47        2968.50           1659       87154.00    384879.00
 1314.50        2968.75           1662       83000.00    366301.00
 1314.53        2969.00           1666       76551.00    337505.50
 1314.57        2969.25           1669       72405.00    319023.20
 1314.60        2969.50           1672       67575.00    297521.00
 1314.63        2969.75           1676       61395.00    270055.00
 1314.66        2970.00           1679       56360.00    247715.80
 1314.70        2970.25           1683       50639.00    222374.20
 1314.73        2970.50           1686       45885.00    201349.30
 1314.76        2970.75           1689       41513.00    182040.40
 1314.80        2971.00           1693       35608.00    156001.40
 1314.83        2971.25           1696       31447.00    137680.50
 1314.86        2971.50           1700       25195.00    110195.90
 1314.89        2971.75           1703       20354.00     88949.52
 1314.93        2972.00           1706       15872.00     69306.10
 1314.96        2972.25           1710        9812.00     42788.46
 1314.99        2972.50           1713        5772.00     25136.56
 1315.02        2972.75           1717        2299.00      9978.97
 1315.06        2973.00           1720         857.00      3690.09
 1315.09        2973.25           1723         389.00      1649.61
 1315.12        2973.50           1727         287.00      1204.93
 1315.16        2973.75           1730         306.00      1287.76
 1315.19        2974.00           1734         294.00      1235.45
 1315.22        2974.25           1737         267.00      1117.74
 1315.25        2974.50           1740         274.00      1148.26
 1315.29        2974.75           1744         273.00      1143.90
 1315.32        2975.00           1747         254.00      1061.07
 1315.35        2975.25           1751         233.00       969.52
 1315.38        2975.50           1754         225.00       934.64
 1315.42        2975.75           1757         259.00      1082.86
 1315.45        2976.00           1761         219.00       908.48
 1315.48        2976.25           1764         216.00       895.41
 1315.52        2976.50           1768         245.00      1021.83
 1315.55        2976.75           1771         206.00       851.81
 1315.58        2977.00           1774         204.00       843.09
 1315.61        2977.25           1778         211.00       873.61
 1315.65        2977.50           1781         201.00       830.01
 1315.68        2977.75           1785         202.00       834.37
 1315.71        2978.00           1788         203.00       838.73
 1315.75        2978.25           1791         196.00       808.22
 1315.78        2978.50           1795         188.00       773.34
 1315.81        2978.75           1798         196.00       808.22
 1315.84        2979.00           1802         194.00       799.50
 1315.88        2979.25           1805         185.00       760.26
 1315.91        2979.50           1808         180.00       738.47
 1315.94        2979.75           1812         187.00       768.98
 1315.97        2980.00           1815         179.00       734.11
 1316.01        2980.25           1819         188.00       773.34
 1316.04        2980.50           1822         175.00       716.67
 1316.07        2980.75           1825         176.00       721.03
 1316.10        2981.00           1829         168.00       686.15
 1316.14        2981.25           1832         171.00       699.23
 1316.17        2981.50           1836         178.00       729.75
 1316.20        2981.75           1839         175.00       716.67
 1316.24        2982.00           1842         152.00       616.40
 1316.27        2982.25           1846         165.00       673.08
 1316.30        2982.50           1849         169.00       690.51
 1316.33        2982.75           1853         174.00       712.31
 1316.37        2983.00           1856         171.00       699.23
 1316.40        2983.25           1859         170.00       694.87
 1316.43        2983.50           1863         170.00       694.87
 1316.47        2983.75           1866         158.00       642.56
 1316.50        2984.00           1870         164.00       668.72
HS scan finished at 21:56:44
end
