************************************************************
  HS Scan of (1) Internal mercury lamp
************************************************************
Integration time is 0.2294 seconds per sample
dh250619Arenosillo 37.1 6.73 3.21pr1000
************************************************************
Dead Time -------------------------  3.4E-08 
Number of Cycles Used -------------  4 
Starting Wavelength (Angstroms) ---  2950 
Final Wavelength (Angstoms) -------  2984 
Wavelength Increment (Angstroms) --  .25 
Filter Wheel #1 Position ---------- (1) Ground quartz diffuser (ND=2.32)
Filter Wheel #2 Position ---------- (1) Neutral Density 0.494



************************************************************
HS scan start time = 02:25:16
Dark Count =  10.2 


Time (GMT)  Wavelength (Ang)  Step Number  Raw Counts  Counts/Second

  146.00        2950.00           1408         175.00       718.41
  146.14        2950.25           1412         167.00       683.54
  146.17        2950.50           1415         185.00       762.01
  146.20        2950.75           1418         160.00       653.02
  146.24        2951.00           1422         180.00       740.21
  146.27        2951.25           1425         173.00       709.69
  146.30        2951.50           1428         162.00       661.74
  146.34        2951.75           1432         174.00       714.05
  146.37        2952.00           1435         176.00       722.77
  146.40        2952.25           1439         171.00       700.98
  146.43        2952.50           1442         179.00       735.85
  146.47        2952.75           1445         196.00       809.96
  146.50        2953.00           1449         192.00       792.52
  146.53        2953.25           1452         185.00       762.01
  146.56        2953.50           1456         190.00       783.80
  146.60        2953.75           1459         183.00       753.29
  146.63        2954.00           1462         189.00       779.45
  146.66        2954.25           1466         195.00       805.60
  146.69        2954.50           1469         195.00       805.60
  146.73        2954.75           1472         195.00       805.60
  146.76        2955.00           1476         202.00       836.12
  146.79        2955.25           1479         200.00       827.40
  146.83        2955.50           1483         192.00       792.52
  146.86        2955.75           1486         200.00       827.40
  146.89        2956.00           1489         201.00       831.76
  146.92        2956.25           1493         202.00       836.12
  146.96        2956.50           1496         197.00       814.32
  146.99        2956.75           1499         201.00       831.76
  147.02        2957.00           1503         221.00       918.95
  147.06        2957.25           1506         209.00       866.63
  147.09        2957.50           1510         213.00       884.07
  147.12        2957.75           1513         228.00       949.46
  147.15        2958.00           1516         225.00       936.39
  147.19        2958.25           1520         254.00      1062.81
  147.22        2958.50           1523         264.00      1106.41
  147.25        2958.75           1527         276.00      1158.72
  147.29        2959.00           1530         240.00      1001.78
  147.32        2959.25           1533         266.00      1115.13
  147.35        2959.50           1537         251.00      1049.73
  147.38        2959.75           1540         283.00      1189.24
  147.42        2960.00           1544         293.00      1232.83
  147.45        2960.25           1547         291.00      1224.11
  147.48        2960.50           1550         294.00      1237.19
  147.51        2960.75           1554         333.00      1407.22
  147.55        2961.00           1557         512.00      2187.61
  147.58        2961.25           1560         972.00      4193.27
  147.61        2961.50           1564        2966.00     12890.57
  147.65        2961.75           1567        5901.00     25701.61
  147.68        2962.00           1571       11558.00     50425.52
  147.71        2962.25           1574       16672.00     72812.12
  147.74        2962.50           1577       21447.00     93745.58
  147.78        2962.75           1581       27320.00    119533.70
  147.81        2963.00           1584       31779.00    139143.20
  147.84        2963.25           1588       38290.00    167824.10
  147.87        2963.50           1591       42794.00    187697.10
  147.91        2963.75           1594       48209.00    211625.40
  147.94        2964.00           1598       54911.00    241295.00
  147.97        2964.25           1601       60161.00    264578.70
  148.00        2964.50           1605       67527.00    297309.30
  148.04        2964.75           1608       72836.00    320945.20
  148.07        2965.00           1611       78102.00    344427.50
  148.10        2965.25           1615       84225.00    371778.90
  148.14        2965.50           1618       88824.00    392356.30
  148.17        2965.75           1621       93472.00    413182.40
  148.20        2966.00           1625       99359.00    439602.80
  148.23        2966.25           1628      103247.00    457078.10
  148.27        2966.50           1632      108071.00    478789.50
  148.30        2966.75           1635      109374.00    484659.40
  148.33        2967.00           1638      110013.00    487539.00
  148.37        2967.25           1642      109886.00    486966.60
  148.40        2967.50           1645      109677.00    486024.80
  148.43        2967.75           1649      107994.00    478442.70
  148.46        2968.00           1652      105117.00    465490.60
  148.50        2968.25           1655      100161.00    443205.80
  148.53        2968.50           1659       93685.00    414137.50
  148.56        2968.75           1662       89219.00    394125.00
  148.59        2969.00           1666       82761.00    365234.60
  148.63        2969.25           1669       77808.00    343115.50
  148.66        2969.50           1672       72361.00    318829.00
  148.69        2969.75           1676       65411.00    287899.40
  148.73        2970.00           1679       60246.00    264955.90
  148.76        2970.25           1683       53856.00    236620.50
  148.79        2970.50           1686       48992.00    215088.60
  148.82        2970.75           1689       44177.00    193804.70
  148.86        2971.00           1693       37829.00    165791.60
  148.89        2971.25           1696       33068.00    144816.80
  148.92        2971.50           1700       26138.00    114339.90
  148.95        2971.75           1703       21297.00     93087.54
  148.99        2972.00           1706       16442.00     71804.56
  149.02        2972.25           1710        9965.00     43459.12
  149.05        2972.50           1713        5759.00     25081.54
  149.09        2972.75           1717        2003.00      8689.58
  149.12        2973.00           1720         774.00      3329.93
  149.15        2973.25           1723         399.00      1694.95
  149.18        2973.50           1727         321.00      1354.90
  149.22        2973.75           1730         330.00      1394.14
  149.25        2974.00           1734         299.00      1258.99
  149.28        2974.25           1737         277.00      1163.08
  149.31        2974.50           1740         276.00      1158.72
  149.35        2974.75           1744         286.00      1202.32
  149.38        2975.00           1747         278.00      1167.44
  149.41        2975.25           1751         279.00      1171.80
  149.45        2975.50           1754         283.00      1189.24
  149.48        2975.75           1757         219.00       910.23
  149.51        2976.00           1761         240.00      1001.78
  149.54        2976.25           1764         230.00       958.18
  149.58        2976.50           1768         246.00      1027.93
  149.61        2976.75           1771         219.00       910.23
  149.64        2977.00           1774         252.00      1054.09
  149.68        2977.25           1778         229.00       953.82
  149.71        2977.50           1781         257.00      1075.89
  149.74        2977.75           1785         226.00       940.75
  149.77        2978.00           1788         210.00       870.99
  149.81        2978.25           1791         225.00       936.39
  149.84        2978.50           1795         203.00       840.48
  149.87        2978.75           1798         191.00       788.16
  149.90        2979.00           1802         186.00       766.37
  149.94        2979.25           1805         193.00       796.88
  149.97        2979.50           1808         204.00       844.84
  150.00        2979.75           1812         200.00       827.40
  150.03        2980.00           1815         204.00       844.84
  150.07        2980.25           1819         201.00       831.76
  150.10        2980.50           1822         187.00       770.73
  150.13        2980.75           1825         183.00       753.29
  150.17        2981.00           1829         181.00       744.57
  150.20        2981.25           1832         178.00       731.49
  150.23        2981.50           1836         194.00       801.24
  150.26        2981.75           1839         176.00       722.77
  150.30        2982.00           1842         185.00       762.01
  150.33        2982.25           1846         162.00       661.74
  150.36        2982.50           1849         184.00       757.65
  150.40        2982.75           1853         181.00       744.57
  150.43        2983.00           1856         179.00       735.85
  150.46        2983.25           1859         176.00       722.77
  150.49        2983.50           1863         175.00       718.41
  150.53        2983.75           1866         168.00       687.90
  150.56        2984.00           1870         165.00       674.82
HS scan finished at 02:30:47
end
