************************************************************
  HS Scan of (1) Internal mercury lamp
************************************************************
Integration time is 0.2294 seconds per sample
dh230619Arenosillo 37.1 6.73 3pr1000
************************************************************
Dead Time -------------------------  3.4E-08 
Number of Cycles Used -------------  4 
Starting Wavelength (Angstroms) ---  2950 
Final Wavelength (Angstoms) -------  2984 
Wavelength Increment (Angstroms) --  .25 
Filter Wheel #1 Position ---------- (1) Ground quartz diffuser (ND=2.32)
Filter Wheel #2 Position ---------- (1) Neutral Density 0.494



************************************************************
HS scan start time = 01:07:04
Dark Count =  6.9 


Time (GMT)  Wavelength (Ang)  Step Number  Raw Counts  Counts/Second

   67.80        2950.00           1408         166.00       693.56
   67.94        2950.25           1412         183.00       767.67
   67.98        2950.50           1415         180.00       754.60
   68.01        2950.75           1418         190.00       798.19
   68.04        2951.00           1422         183.00       767.67
   68.07        2951.25           1425         202.00       850.50
   68.11        2951.50           1428         184.00       772.03
   68.14        2951.75           1432         193.00       811.27
   68.17        2952.00           1435         203.00       854.86
   68.20        2952.25           1439         182.00       763.32
   68.24        2952.50           1442         191.00       802.55
   68.27        2952.75           1445         196.00       824.35
   68.30        2953.00           1449         196.00       824.35
   68.33        2953.25           1452         198.00       833.07
   68.37        2953.50           1456         193.00       811.27
   68.40        2953.75           1459         198.00       833.07
   68.43        2954.00           1462         208.00       876.66
   68.47        2954.25           1466         206.00       867.94
   68.50        2954.50           1469         201.00       846.14
   68.53        2954.75           1472         209.00       881.02
   68.56        2955.00           1476         210.00       885.38
   68.60        2955.25           1479         227.00       959.49
   68.63        2955.50           1483         222.00       937.69
   68.66        2955.75           1486         229.00       968.21
   68.70        2956.00           1489         245.00      1037.96
   68.73        2956.25           1493         235.00       994.37
   68.76        2956.50           1496         259.00      1098.99
   68.79        2956.75           1499         235.00       994.37
   68.83        2957.00           1503         251.00      1064.12
   68.86        2957.25           1506         254.00      1077.20
   68.89        2957.50           1510         269.00      1142.59
   68.92        2957.75           1513         240.00      1016.16
   68.96        2958.00           1516         235.00       994.37
   68.99        2958.25           1520         262.00      1112.07
   69.02        2958.50           1523         279.00      1186.19
   69.06        2958.75           1527         280.00      1190.55
   69.09        2959.00           1530         290.00      1234.14
   69.12        2959.25           1533         289.00      1229.78
   69.15        2959.50           1537         278.00      1181.83
   69.19        2959.75           1540         303.00      1290.82
   69.22        2960.00           1544         313.00      1334.41
   69.25        2960.25           1547         327.00      1395.45
   69.28        2960.50           1550         300.00      1277.74
   69.32        2960.75           1554         330.00      1408.52
   69.35        2961.00           1557         414.00      1774.74
   69.38        2961.25           1560         684.00      2951.91
   69.42        2961.50           1564        2047.00      8895.89
   69.45        2961.75           1567        4293.00     18695.84
   69.48        2962.00           1571       10359.00     45196.25
   69.51        2962.25           1574       15570.00     67999.66
   69.55        2962.50           1577       20635.00     90198.16
   69.58        2962.75           1581       27589.00    120730.40
   69.61        2963.00           1584       32724.00    143317.00
   69.65        2963.25           1588       39187.00    171794.40
   69.68        2963.50           1591       44675.00    196019.20
   69.71        2963.75           1594       49680.00    218146.90
   69.74        2964.00           1598       56695.00    249217.50
   69.78        2964.25           1601       62106.00    273228.80
   69.81        2964.50           1605       69434.00    305809.70
   69.84        2964.75           1608       75002.00    330614.10
   69.87        2965.00           1611       80613.00    355652.70
   69.91        2965.25           1615       87516.00    386515.70
   69.94        2965.50           1618       93637.00    413937.10
   69.97        2965.75           1621       99123.00    438557.50
   70.01        2966.00           1625      105875.00    468916.80
   70.04        2966.25           1628      111081.00    492367.90
   70.07        2966.50           1632      116054.00    514804.70
   70.10        2966.75           1635      118819.00    527294.60
   70.14        2967.00           1638      119508.00    530408.60
   70.17        2967.25           1642      120095.00    533062.10
   70.20        2967.50           1645      119841.00    531913.90
   70.23        2967.75           1649      119101.00    528569.00
   70.27        2968.00           1652      116992.00    519040.60
   70.30        2968.25           1655      112818.00    500200.90
   70.33        2968.50           1659      106121.00    470024.10
   70.36        2968.75           1662      100437.00    444460.70
   70.40        2969.00           1666       93227.00    412098.70
   70.43        2969.25           1669       88136.00    389290.90
   70.46        2969.50           1672       82851.00    365651.50
   70.50        2969.75           1676       75939.00    334792.40
   70.53        2970.00           1679       71172.00    313547.60
   70.56        2970.25           1683       64417.00    283495.90
   70.59        2970.50           1686       58900.00    258997.40
   70.63        2970.75           1689       52774.00    231842.60
   70.66        2971.00           1693       45229.00    198466.80
   70.69        2971.25           1696       39521.00    173267.50
   70.73        2971.50           1700       32186.00    140948.90
   70.76        2971.75           1703       26964.00    117983.70
   70.79        2972.00           1706       21703.00     94883.21
   70.82        2972.25           1710       14580.00     63664.69
   70.86        2972.50           1713        9887.00     43132.52
   70.89        2972.75           1717        4737.00     20633.91
   70.92        2973.00           1720        1774.00      7705.16
   70.95        2973.25           1723         637.00      2746.99
   70.99        2973.50           1727         396.00      1696.26
   71.02        2973.75           1730         346.00      1478.28
   71.05        2974.00           1734         326.00      1391.09
   71.09        2974.25           1737         312.00      1330.05
   71.12        2974.50           1740         304.00      1295.17
   71.15        2974.75           1744         314.00      1338.77
   71.18        2975.00           1747         288.00      1225.42
   71.22        2975.25           1751         264.00      1120.79
   71.25        2975.50           1754         283.00      1203.62
   71.28        2975.75           1757         260.00      1103.35
   71.31        2976.00           1761         269.00      1142.59
   71.35        2976.25           1764         275.00      1168.75
   71.38        2976.50           1768         275.00      1168.75
   71.41        2976.75           1771         270.00      1146.95
   71.45        2977.00           1774         260.00      1103.35
   71.48        2977.25           1778         244.00      1033.60
   71.51        2977.50           1781         234.00       990.01
   71.54        2977.75           1785         245.00      1037.96
   71.58        2978.00           1788         212.00       894.10
   71.61        2978.25           1791         245.00      1037.96
   71.64        2978.50           1795         215.00       907.18
   71.67        2978.75           1798         214.00       902.82
   71.71        2979.00           1802         232.00       981.29
   71.74        2979.25           1805         211.00       889.74
   71.77        2979.50           1808         236.00       998.73
   71.81        2979.75           1812         226.00       955.13
   71.84        2980.00           1815         208.00       876.66
   71.87        2980.25           1819         211.00       889.74
   71.90        2980.50           1822         202.00       850.50
   71.94        2980.75           1825         211.00       889.74
   71.97        2981.00           1829         200.00       841.79
   72.00        2981.25           1832         194.00       815.63
   72.04        2981.50           1836         194.00       815.63
   72.07        2981.75           1839         190.00       798.19
   72.10        2982.00           1842         182.00       763.32
   72.13        2982.25           1846         189.00       793.83
   72.17        2982.50           1849         188.00       789.47
   72.20        2982.75           1853         205.00       863.58
   72.23        2983.00           1856         176.00       737.16
   72.26        2983.25           1859         187.00       785.11
   72.30        2983.50           1863         172.00       719.72
   72.33        2983.75           1866         194.00       815.63
   72.36        2984.00           1870         178.00       745.88
HS scan finished at 01:12:35
end
************************************************************
  HS Scan of (1) Internal mercury lamp
************************************************************
Integration time is 0.2294 seconds per sample
dh230619Arenosillo 37.1 6.73 3.07pr1000
************************************************************
Dead Time -------------------------  3.4E-08 
Number of Cycles Used -------------  4 
Starting Wavelength (Angstroms) ---  2950 
Final Wavelength (Angstoms) -------  2984 
Wavelength Increment (Angstroms) --  .25 
Filter Wheel #1 Position ---------- (1) Ground quartz diffuser (ND=2.32)
Filter Wheel #2 Position ---------- (1) Neutral Density 0.494



************************************************************
HS scan start time = 02:15:55
Dark Count =  8.100001 


Time (GMT)  Wavelength (Ang)  Step Number  Raw Counts  Counts/Second

  136.65        2950.00           1408         177.00       736.29
  136.79        2950.25           1412         177.00       736.29
  136.82        2950.50           1415         170.00       705.77
  136.86        2950.75           1418         177.00       736.29
  136.89        2951.00           1422         186.00       775.52
  136.92        2951.25           1425         173.00       718.85
  136.95        2951.50           1428         175.00       727.57
  136.99        2951.75           1432         174.00       723.21
  137.02        2952.00           1435         191.00       797.32
  137.05        2952.25           1439         193.00       806.04
  137.09        2952.50           1442         192.00       801.68
  137.12        2952.75           1445         176.00       731.93
  137.15        2953.00           1449         185.00       771.16
  137.18        2953.25           1452         185.00       771.16
  137.22        2953.50           1456         192.00       801.68
  137.25        2953.75           1459         191.00       797.32
  137.28        2954.00           1462         191.00       797.32
  137.31        2954.25           1466         204.00       853.99
  137.35        2954.50           1469         199.00       832.19
  137.38        2954.75           1472         199.00       832.19
  137.41        2955.00           1476         209.00       875.79
  137.45        2955.25           1479         222.00       932.46
  137.48        2955.50           1483         187.00       779.88
  137.51        2955.75           1486         200.00       836.55
  137.54        2956.00           1489         207.00       867.07
  137.58        2956.25           1493         236.00       993.49
  137.61        2956.50           1496         211.00       884.51
  137.64        2956.75           1499         213.00       893.23
  137.67        2957.00           1503         235.00       989.14
  137.71        2957.25           1506         222.00       932.46
  137.74        2957.50           1510         248.00      1045.81
  137.77        2957.75           1513         266.00      1124.28
  137.81        2958.00           1516         242.00      1019.65
  137.84        2958.25           1520         243.00      1024.01
  137.87        2958.50           1523         279.00      1180.95
  137.90        2958.75           1527         254.00      1071.97
  137.94        2959.00           1530         277.00      1172.24
  137.97        2959.25           1533         272.00      1150.44
  138.00        2959.50           1537         305.00      1294.30
  138.03        2959.75           1540         282.00      1194.03
  138.07        2960.00           1544         299.00      1268.15
  138.10        2960.25           1547         297.00      1259.43
  138.13        2960.50           1550         310.00      1316.10
  138.17        2960.75           1554         343.00      1459.97
  138.20        2961.00           1557         484.00      2074.69
  138.23        2961.25           1560         997.00      4311.44
  138.26        2961.50           1564        3007.00     13078.61
  138.30        2961.75           1567        5995.00     26121.27
  138.33        2962.00           1571       11986.00     52306.98
  138.36        2962.25           1574       17249.00     75349.29
  138.39        2962.50           1577       21980.00     96093.31
  138.43        2962.75           1581       29040.00    127103.90
  138.46        2963.00           1584       33608.00    147203.50
  138.49        2963.25           1588       40677.00    178362.20
  138.53        2963.50           1591       45488.00    199606.00
  138.56        2963.75           1594       50854.00    223336.80
  138.59        2964.00           1598       57622.00    253322.90
  138.62        2964.25           1601       62514.00    275035.50
  138.66        2964.50           1605       70077.00    308666.60
  138.69        2964.75           1608       75153.00    331282.00
  138.72        2965.00           1611       80580.00    355500.00
  138.75        2965.25           1615       87118.00    384729.10
  138.79        2965.50           1618       92304.00    407955.60
  138.82        2965.75           1621       97241.00    430101.30
  138.85        2966.00           1625      104087.00    460865.80
  138.89        2966.25           1628      108934.00    482686.50
  138.92        2966.50           1632      114050.00    505753.70
  138.95        2966.75           1635      116152.00    515241.80
  138.98        2967.00           1638      116934.00    518773.20
  139.02        2967.25           1642      116865.00    518461.60
  139.05        2967.50           1645      116752.00    517951.30
  139.08        2967.75           1649      115480.00    512207.80
  139.12        2968.00           1652      113036.00    501178.80
  139.15        2968.25           1655      108767.00    481934.10
  139.18        2968.50           1659      102061.00    451754.60
  139.21        2968.75           1662       97018.00    429100.20
  139.25        2969.00           1666       89852.00    396969.20
  139.28        2969.25           1669       84441.00    372754.10
  139.31        2969.50           1672       79804.00    352034.60
  139.34        2969.75           1676       72898.00    321230.90
  139.38        2970.00           1679       67672.00    297963.70
  139.41        2970.25           1683       61601.00    270980.80
  139.44        2970.50           1686       56219.00    247101.80
  139.48        2970.75           1689       51051.00    224208.80
  139.51        2971.00           1693       44054.00    193270.70
  139.54        2971.25           1696       38926.00    170638.00
  139.57        2971.50           1700       30784.00    134774.40
  139.61        2971.75           1703       25125.00    109899.40
  139.64        2972.00           1706       20215.00     88350.89
  139.67        2972.25           1710       13266.00     57907.71
  139.70        2972.50           1713        8428.00     36749.90
  139.74        2972.75           1717        3552.00     15456.68
  139.77        2973.00           1720        1405.00      6090.62
  139.80        2973.25           1723         549.00      2358.08
  139.84        2973.50           1727         367.00      1564.60
  139.87        2973.75           1730         357.00      1521.00
  139.90        2974.00           1734         325.00      1381.49
  139.93        2974.25           1737         308.00      1307.38
  139.97        2974.50           1740         308.00      1307.38
  140.00        2974.75           1744         275.00      1163.52
  140.03        2975.00           1747         281.00      1189.67
  140.07        2975.25           1751         287.00      1215.83
  140.10        2975.50           1754         288.00      1220.19
  140.13        2975.75           1757         276.00      1167.88
  140.16        2976.00           1761         269.00      1137.36
  140.20        2976.25           1764         272.00      1150.44
  140.23        2976.50           1768         239.00      1006.57
  140.26        2976.75           1771         250.00      1054.53
  140.29        2977.00           1774         230.00       967.34
  140.33        2977.25           1778         235.00       989.14
  140.36        2977.50           1781         245.00      1032.73
  140.39        2977.75           1785         266.00      1124.28
  140.43        2978.00           1788         235.00       989.14
  140.46        2978.25           1791         214.00       897.59
  140.49        2978.50           1795         209.00       875.79
  140.52        2978.75           1798         220.00       923.74
  140.56        2979.00           1802         204.00       853.99
  140.59        2979.25           1805         225.00       945.54
  140.62        2979.50           1808         203.00       849.63
  140.65        2979.75           1812         191.00       797.32
  140.69        2980.00           1815         191.00       797.32
  140.72        2980.25           1819         193.00       806.04
  140.75        2980.50           1822         191.00       797.32
  140.78        2980.75           1825         197.00       823.48
  140.82        2981.00           1829         182.00       758.08
  140.85        2981.25           1832         196.00       819.12
  140.88        2981.50           1836         182.00       758.08
  140.92        2981.75           1839         204.00       853.99
  140.95        2982.00           1842         197.00       823.48
  140.98        2982.25           1846         194.00       810.40
  141.01        2982.50           1849         184.00       766.80
  141.05        2982.75           1853         187.00       779.88
  141.08        2983.00           1856         182.00       758.08
  141.11        2983.25           1859         183.00       762.44
  141.15        2983.50           1863         180.00       749.37
  141.18        2983.75           1866         179.00       745.01
  141.21        2984.00           1870         175.00       727.57
HS scan finished at 02:21:26
end
************************************************************
  HS Scan of (1) Internal mercury lamp
************************************************************
Integration time is 0.2294 seconds per sample
dh230619Arenosillo 37.1 6.73 3.15pr1000
************************************************************
Dead Time -------------------------  3.4E-08 
Number of Cycles Used -------------  4 
Starting Wavelength (Angstroms) ---  2950 
Final Wavelength (Angstoms) -------  2984 
Wavelength Increment (Angstroms) --  .25 
Filter Wheel #1 Position ---------- (1) Ground quartz diffuser (ND=2.32)
Filter Wheel #2 Position ---------- (1) Neutral Density 0.494



************************************************************
HS scan start time = 21:51:20
Dark Count =  10 


Time (GMT)  Wavelength (Ang)  Step Number  Raw Counts  Counts/Second

 1312.07        2950.00           1408         166.00       680.05
 1312.21        2950.25           1412         170.00       697.49
 1312.24        2950.50           1415         170.00       697.49
 1312.27        2950.75           1418         180.00       741.08
 1312.31        2951.00           1422         166.00       680.05
 1312.34        2951.25           1425         170.00       697.49
 1312.37        2951.50           1428         173.00       710.57
 1312.40        2951.75           1432         178.00       732.36
 1312.44        2952.00           1435         160.00       653.89
 1312.47        2952.25           1439         174.00       714.93
 1312.50        2952.50           1442         180.00       741.08
 1312.54        2952.75           1445         178.00       732.36
 1312.57        2953.00           1449         174.00       714.93
 1312.60        2953.25           1452         181.00       745.44
 1312.63        2953.50           1456         187.00       771.60
 1312.67        2953.75           1459         192.00       793.40
 1312.70        2954.00           1462         177.00       728.00
 1312.73        2954.25           1466         197.00       815.19
 1312.76        2954.50           1469         189.00       780.32
 1312.80        2954.75           1472         190.00       784.68
 1312.83        2955.00           1476         198.00       819.55
 1312.86        2955.25           1479         187.00       771.60
 1312.90        2955.50           1483         197.00       815.19
 1312.93        2955.75           1486         213.00       884.94
 1312.96        2956.00           1489         191.00       789.04
 1312.99        2956.25           1493         201.00       832.63
 1313.03        2956.50           1496         208.00       863.15
 1313.06        2956.75           1499         209.00       867.51
 1313.09        2957.00           1503         199.00       823.91
 1313.12        2957.25           1506         208.00       863.15
 1313.16        2957.50           1510         229.00       954.70
 1313.19        2957.75           1513         241.00      1007.01
 1313.22        2958.00           1516         228.00       950.34
 1313.26        2958.25           1520         223.00       928.54
 1313.29        2958.50           1523         226.00       941.62
 1313.32        2958.75           1527         242.00      1011.37
 1313.35        2959.00           1530         262.00      1098.56
 1313.39        2959.25           1533         233.00       972.13
 1313.42        2959.50           1537         283.00      1190.11
 1313.45        2959.75           1540         247.00      1033.17
 1313.49        2960.00           1544         288.00      1211.91
 1313.52        2960.25           1547         280.00      1177.03
 1313.55        2960.50           1550         281.00      1181.39
 1313.58        2960.75           1554         310.00      1307.82
 1313.62        2961.00           1557         423.00      1800.46
 1313.65        2961.25           1560         791.00      3404.93
 1313.68        2961.50           1564        2435.00     10574.86
 1313.71        2961.75           1567        5038.00     21934.40
 1313.75        2962.00           1571       10634.00     46385.22
 1313.78        2962.25           1574       15279.00     66711.75
 1313.81        2962.50           1577       19658.00     85900.04
 1313.84        2962.75           1581       25461.00    111366.80
 1313.88        2963.00           1584       29656.00    129804.40
 1313.91        2963.25           1588       35969.00    157594.60
 1313.94        2963.50           1591       40148.00    176019.80
 1313.98        2963.75           1594       45402.00    199217.50
 1314.01        2964.00           1598       51836.00    227675.40
 1314.04        2964.25           1601       56685.00    249159.40
 1314.07        2964.50           1605       63781.00    280655.80
 1314.11        2964.75           1608       68772.00    302849.60
 1314.14        2965.00           1611       73689.00    324747.30
 1314.17        2965.25           1615       79563.00    350950.00
 1314.21        2965.50           1618       83793.00    369848.40
 1314.24        2965.75           1621       88255.00    389809.70
 1314.27        2966.00           1625       93774.00    414537.50
 1314.30        2966.25           1628       97857.00    432858.30
 1314.34        2966.50           1632      102083.00    451845.00
 1314.37        2966.75           1635      103920.00    460106.00
 1314.40        2967.00           1638      104126.00    461032.70
 1314.43        2967.25           1642      104421.00    462359.80
 1314.47        2967.50           1645      103923.00    460119.50
 1314.50        2967.75           1649      102140.00    452101.20
 1314.53        2968.00           1652       99748.00    441351.20
 1314.57        2968.25           1655       95412.00    421884.60
 1314.60        2968.50           1659       89365.00    394779.60
 1314.63        2968.75           1662       84430.00    372696.40
 1314.66        2969.00           1666       78279.00    345218.40
 1314.70        2969.25           1669       74171.00    326895.70
 1314.73        2969.50           1672       69422.00    305742.50
 1314.76        2969.75           1676       62477.00    274862.80
 1314.79        2970.00           1679       57378.00    252232.30
 1314.83        2970.25           1683       51370.00    225612.40
 1314.86        2970.50           1686       46950.00    206059.40
 1314.89        2970.75           1689       42103.00    184647.30
 1314.93        2971.00           1693       36345.00    159251.40
 1314.96        2971.25           1696       32023.00    140217.90
 1314.99        2971.50           1700       25549.00    111753.40
 1315.02        2971.75           1703       20747.00     90675.81
 1315.06        2972.00           1706       16139.00     70478.19
 1315.09        2972.25           1710       10064.00     43892.83
 1315.12        2972.50           1713        5974.00     26021.27
 1315.15        2972.75           1717        2274.00      9872.54
 1315.19        2973.00           1720         919.00      3963.04
 1315.22        2973.25           1723         420.00      1787.38
 1315.25        2973.50           1727         316.00      1333.98
 1315.29        2973.75           1730         288.00      1211.91
 1315.32        2974.00           1734         298.00      1255.50
 1315.35        2974.25           1737         264.00      1107.28
 1315.38        2974.50           1740         256.00      1072.40
 1315.42        2974.75           1744         256.00      1072.40
 1315.45        2975.00           1747         252.00      1054.96
 1315.48        2975.25           1751         250.00      1046.24
 1315.51        2975.50           1754         237.00       989.57
 1315.55        2975.75           1757         221.00       919.82
 1315.58        2976.00           1761         234.00       976.49
 1315.61        2976.25           1764         214.00       889.30
 1315.65        2976.50           1768         227.00       945.98
 1315.68        2976.75           1771         207.00       858.79
 1315.71        2977.00           1774         213.00       884.94
 1315.74        2977.25           1778         210.00       871.87
 1315.78        2977.50           1781         209.00       867.51
 1315.81        2977.75           1785         185.00       762.88
 1315.84        2978.00           1788         187.00       771.60
 1315.87        2978.25           1791         195.00       806.47
 1315.91        2978.50           1795         189.00       780.32
 1315.94        2978.75           1798         201.00       832.63
 1315.97        2979.00           1802         201.00       832.63
 1316.01        2979.25           1805         195.00       806.47
 1316.04        2979.50           1808         191.00       789.04
 1316.07        2979.75           1812         173.00       710.57
 1316.10        2980.00           1815         182.00       749.80
 1316.14        2980.25           1819         172.00       706.21
 1316.17        2980.50           1822         173.00       710.57
 1316.20        2980.75           1825         194.00       802.11
 1316.23        2981.00           1829         177.00       728.00
 1316.27        2981.25           1832         177.00       728.00
 1316.30        2981.50           1836         172.00       706.21
 1316.33        2981.75           1839         162.00       662.61
 1316.37        2982.00           1842         173.00       710.57
 1316.40        2982.25           1846         159.00       649.53
 1316.43        2982.50           1849         166.00       680.05
 1316.46        2982.75           1853         190.00       784.68
 1316.50        2983.00           1856         177.00       728.00
 1316.53        2983.25           1859         166.00       680.05
 1316.56        2983.50           1863         157.00       640.82
 1316.60        2983.75           1866         165.00       675.69
 1316.63        2984.00           1870         152.00       619.02
HS scan finished at 21:56:51
end
