************************************************************
  HS Scan of (1) Internal mercury lamp
************************************************************
Integration time is 0.2294 seconds per sample
dh240619Arenosillo 37.1 6.73 3.13pr1000
************************************************************
Dead Time -------------------------  3.4E-08 
Number of Cycles Used -------------  4 
Starting Wavelength (Angstroms) ---  2950 
Final Wavelength (Angstoms) -------  2984 
Wavelength Increment (Angstroms) --  .25 
Filter Wheel #1 Position ---------- (1) Ground quartz diffuser (ND=2.32)
Filter Wheel #2 Position ---------- (1) Neutral Density 0.494



************************************************************
HS scan start time = 02:15:25
Dark Count =  8.7 


Time (GMT)  Wavelength (Ang)  Step Number  Raw Counts  Counts/Second

  136.14        2950.00           1408         177.00       733.67
  136.28        2950.25           1412         165.00       681.36
  136.31        2950.50           1415         162.00       668.28
  136.34        2950.75           1418         174.00       720.59
  136.38        2951.00           1422         159.00       655.20
  136.41        2951.25           1425         167.00       690.08
  136.44        2951.50           1428         172.00       711.87
  136.48        2951.75           1432         141.00       576.73
  136.51        2952.00           1435         158.00       650.84
  136.54        2952.25           1439         174.00       720.59
  136.57        2952.50           1442         173.00       716.23
  136.61        2952.75           1445         178.00       738.03
  136.64        2953.00           1449         181.00       751.11
  136.67        2953.25           1452         188.00       781.63
  136.71        2953.50           1456         176.00       729.31
  136.74        2953.75           1459         180.00       746.75
  136.77        2954.00           1462         178.00       738.03
  136.80        2954.25           1466         193.00       803.42
  136.84        2954.50           1469         181.00       751.11
  136.87        2954.75           1472         199.00       829.58
  136.90        2955.00           1476         185.00       768.55
  136.93        2955.25           1479         200.00       833.94
  136.97        2955.50           1483         196.00       816.50
  137.00        2955.75           1486         203.00       847.02
  137.03        2956.00           1489         209.00       873.17
  137.07        2956.25           1493         211.00       881.89
  137.10        2956.50           1496         214.00       894.97
  137.13        2956.75           1499         210.00       877.53
  137.16        2957.00           1503         205.00       855.74
  137.20        2957.25           1506         217.00       908.05
  137.23        2957.50           1510         218.00       912.41
  137.26        2957.75           1513         262.00      1104.23
  137.29        2958.00           1516         228.00       956.00
  137.33        2958.25           1520         270.00      1139.10
  137.36        2958.50           1523         271.00      1143.46
  137.39        2958.75           1527         261.00      1099.87
  137.42        2959.00           1530         261.00      1099.87
  137.46        2959.25           1533         248.00      1043.19
  137.49        2959.50           1537         268.00      1130.38
  137.52        2959.75           1540         262.00      1104.23
  137.56        2960.00           1544         278.00      1173.98
  137.59        2960.25           1547         286.00      1208.86
  137.62        2960.50           1550         285.00      1204.50
  137.65        2960.75           1554         328.00      1391.96
  137.69        2961.00           1557         458.00      1958.72
  137.72        2961.25           1560         876.00      3781.22
  137.75        2961.50           1564        2670.00     11605.71
  137.79        2961.75           1567        5281.00     23000.98
  137.82        2962.00           1571       11282.00     49224.86
  137.85        2962.25           1574       16043.00     70063.40
  137.88        2962.50           1577       20886.00     91291.21
  137.92        2962.75           1581       26878.00    117597.90
  137.95        2963.00           1584       31349.00    137257.60
  137.98        2963.25           1588       37402.00    163915.80
  138.01        2963.50           1591       41973.00    184079.20
  138.05        2963.75           1594       46803.00    205415.30
  138.08        2964.00           1598       53248.00    233934.00
  138.11        2964.25           1601       57796.00    254092.00
  138.15        2964.50           1605       64234.00    282674.60
  138.18        2964.75           1608       69201.00    304764.60
  138.21        2965.00           1611       74725.00    329371.10
  138.24        2965.25           1615       81302.00    358722.20
  138.28        2965.50           1618       86397.00    381500.20
  138.31        2965.75           1621       91069.00    402418.40
  138.34        2966.00           1625       97420.00    430902.10
  138.37        2966.25           1628      101150.00    447656.90
  138.41        2966.50           1632      105534.00    467373.90
  138.44        2966.75           1635      107266.00    475170.90
  138.47        2967.00           1638      108348.00    480043.90
  138.51        2967.25           1642      107995.00    478453.90
  138.54        2967.50           1645      107682.00    477044.20
  138.57        2967.75           1649      106602.00    472181.30
  138.60        2968.00           1652      104274.00    461704.30
  138.64        2968.25           1655       99690.00    441096.40
  138.67        2968.50           1659       93274.00    412301.40
  138.70        2968.75           1662       88554.00    391154.10
  138.73        2969.00           1666       82229.00    362863.80
  138.77        2969.25           1669       77830.00    343220.40
  138.80        2969.50           1672       72871.00    321107.90
  138.83        2969.75           1676       66641.00    293375.20
  138.87        2970.00           1679       61809.00    271901.80
  138.90        2970.25           1683       56204.00    247032.60
  138.93        2970.50           1686       50984.00    223909.60
  138.96        2970.75           1689       45740.00    200716.90
  139.00        2971.00           1693       38744.00    169832.70
  139.03        2971.25           1696       33772.00    147923.00
  139.06        2971.50           1700       27354.00    119689.70
  139.10        2971.75           1703       22559.00     98631.43
  139.13        2972.00           1706       17938.00     78365.90
  139.16        2972.25           1710       11905.00     51950.01
  139.19        2972.50           1713        7385.00     32189.96
  139.23        2972.75           1717        3138.00     13647.57
  139.26        2973.00           1720        1164.00      5037.04
  139.29        2973.25           1723         455.00      1945.64
  139.32        2973.50           1727         341.00      1448.63
  139.36        2973.75           1730         295.00      1248.09
  139.39        2974.00           1734         291.00      1230.65
  139.42        2974.25           1737         279.00      1178.34
  139.46        2974.50           1740         273.00      1152.18
  139.49        2974.75           1744         260.00      1095.51
  139.52        2975.00           1747         274.00      1156.54
  139.55        2975.25           1751         257.00      1082.43
  139.59        2975.50           1754         273.00      1152.18
  139.62        2975.75           1757         249.00      1047.55
  139.65        2976.00           1761         247.00      1038.83
  139.68        2976.25           1764         233.00       977.80
  139.72        2976.50           1768         257.00      1082.43
  139.75        2976.75           1771         238.00       999.60
  139.78        2977.00           1774         231.00       969.08
  139.82        2977.25           1778         220.00       921.13
  139.85        2977.50           1781         215.00       899.33
  139.88        2977.75           1785         208.00       868.81
  139.91        2978.00           1788         217.00       908.05
  139.95        2978.25           1791         196.00       816.50
  139.98        2978.50           1795         202.00       842.66
  140.01        2978.75           1798         195.00       812.14
  140.04        2979.00           1802         196.00       816.50
  140.08        2979.25           1805         197.00       820.86
  140.11        2979.50           1808         204.00       851.38
  140.14        2979.75           1812         179.00       742.39
  140.18        2980.00           1815         177.00       733.67
  140.21        2980.25           1819         181.00       751.11
  140.24        2980.50           1822         174.00       720.59
  140.27        2980.75           1825         170.00       703.16
  140.31        2981.00           1829         197.00       820.86
  140.34        2981.25           1832         188.00       781.63
  140.37        2981.50           1836         172.00       711.87
  140.41        2981.75           1839         183.00       759.83
  140.44        2982.00           1842         178.00       738.03
  140.47        2982.25           1846         163.00       672.64
  140.50        2982.50           1849         177.00       733.67
  140.54        2982.75           1853         159.00       655.20
  140.57        2983.00           1856         168.00       694.44
  140.60        2983.25           1859         170.00       703.16
  140.63        2983.50           1863         173.00       716.23
  140.67        2983.75           1866         171.00       707.51
  140.70        2984.00           1870         165.00       681.36
HS scan finished at 02:20:56
end
************************************************************
  HS Scan of (1) Internal mercury lamp
************************************************************
Integration time is 0.2294 seconds per sample
dh240619Arenosillo 37.1 6.73 3.29pr1000
************************************************************
Dead Time -------------------------  3.4E-08 
Number of Cycles Used -------------  4 
Starting Wavelength (Angstroms) ---  2950 
Final Wavelength (Angstoms) -------  2984 
Wavelength Increment (Angstroms) --  .25 
Filter Wheel #1 Position ---------- (1) Ground quartz diffuser (ND=2.32)
Filter Wheel #2 Position ---------- (1) Neutral Density 0.494



************************************************************
HS scan start time = 21:07:37
Dark Count =  17 


Time (GMT)  Wavelength (Ang)  Step Number  Raw Counts  Counts/Second

 1268.35        2950.00           1408         163.00       636.46
 1268.49        2950.25           1412         175.00       688.77
 1268.52        2950.50           1415         172.00       675.69
 1268.56        2950.75           1418         166.00       649.53
 1268.59        2951.00           1422         166.00       649.53
 1268.62        2951.25           1425         164.00       640.82
 1268.65        2951.50           1428         169.00       662.61
 1268.69        2951.75           1432         176.00       693.13
 1268.72        2952.00           1435         178.00       701.85
 1268.75        2952.25           1439         174.00       684.41
 1268.78        2952.50           1442         173.00       680.05
 1268.82        2952.75           1445         182.00       719.29
 1268.85        2953.00           1449         186.00       736.72
 1268.88        2953.25           1452         175.00       688.77
 1268.92        2953.50           1456         187.00       741.08
 1268.95        2953.75           1459         177.00       697.49
 1268.98        2954.00           1462         190.00       754.16
 1269.01        2954.25           1466         194.00       771.60
 1269.05        2954.50           1469         182.00       719.29
 1269.08        2954.75           1472         194.00       771.60
 1269.11        2955.00           1476         196.00       780.32
 1269.14        2955.25           1479         209.00       836.99
 1269.18        2955.50           1483         186.00       736.72
 1269.21        2955.75           1486         189.00       749.80
 1269.24        2956.00           1489         202.00       806.47
 1269.28        2956.25           1493         205.00       819.55
 1269.31        2956.50           1496         209.00       836.99
 1269.34        2956.75           1499         208.00       832.63
 1269.37        2957.00           1503         216.00       867.51
 1269.41        2957.25           1506         200.00       797.75
 1269.44        2957.50           1510         208.00       832.63
 1269.47        2957.75           1513         218.00       876.22
 1269.50        2958.00           1516         225.00       906.74
 1269.54        2958.25           1520         223.00       898.02
 1269.57        2958.50           1523         227.00       915.46
 1269.60        2958.75           1527         241.00       976.49
 1269.64        2959.00           1530         240.00       972.13
 1269.67        2959.25           1533         300.00      1233.70
 1269.70        2959.50           1537         245.00       993.93
 1269.73        2959.75           1540         269.00      1098.56
 1269.77        2960.00           1544         293.00      1203.19
 1269.80        2960.25           1547         294.00      1207.55
 1269.83        2960.50           1550         291.00      1194.47
 1269.87        2960.75           1554         339.00      1403.73
 1269.90        2961.00           1557         466.00      1957.41
 1269.93        2961.25           1560        1004.00      4303.16
 1269.96        2961.50           1564        3174.00     13768.43
 1270.00        2961.75           1567        6362.00     27685.16
 1270.03        2962.00           1571       11983.00     52254.92
 1270.06        2962.25           1574       16456.00     71836.10
 1270.09        2962.50           1577       20708.00     90474.05
 1270.13        2962.75           1581       26866.00    117508.70
 1270.16        2963.00           1584       31018.00    135764.70
 1270.19        2963.25           1588       37163.00    162825.70
 1270.22        2963.50           1591       41657.00    182647.70
 1270.26        2963.75           1594       46516.00    204109.90
 1270.29        2964.00           1598       52433.00    230287.80
 1270.32        2964.25           1601       56868.00    249939.80
 1270.36        2964.50           1605       63743.00    280455.80
 1270.39        2964.75           1608       68145.00    300028.50
 1270.42        2965.00           1611       72552.00    319649.60
 1270.45        2965.25           1615       78759.00    347329.50
 1270.49        2965.50           1618       83172.00    367041.10
 1270.52        2965.75           1621       87303.00    385517.20
 1270.55        2966.00           1625       93089.00    411434.70
 1270.59        2966.25           1628       97298.00    430317.20
 1270.62        2966.50           1632      101699.00    450087.20
 1270.65        2966.75           1635      103779.00    459440.20
 1270.68        2967.00           1638      104387.00    462175.30
 1270.72        2967.25           1642      104366.00    462080.90
 1270.75        2967.50           1645      104493.00    462652.30
 1270.78        2967.75           1649      102303.00    452802.60
 1270.81        2968.00           1652       99577.00    440551.50
 1270.85        2968.25           1655       94774.00    418991.00
 1270.88        2968.50           1659       88980.00    393024.40
 1270.91        2968.75           1662       85151.00    375889.40
 1270.95        2969.00           1666       78647.00    346829.60
 1270.98        2969.25           1669       74119.00    326632.60
 1271.01        2969.50           1672       69760.00    307215.90
 1271.04        2969.75           1676       63638.00    279989.30
 1271.08        2970.00           1679       58833.00    258655.30
 1271.11        2970.25           1683       53250.00    233906.00
 1271.14        2970.50           1686       48194.00    211528.90
 1271.18        2970.75           1689       43569.00    191089.30
 1271.21        2971.00           1693       37766.00    165483.80
 1271.24        2971.25           1696       33085.00    144861.70
 1271.27        2971.50           1700       26537.00    116063.00
 1271.31        2971.75           1703       21930.00     95834.87
 1271.34        2972.00           1706       17436.00     76129.66
 1271.37        2972.25           1710       11441.00     49884.01
 1271.40        2972.50           1713        6887.00     29978.23
 1271.44        2972.75           1717        2651.00     11486.61
 1271.47        2973.00           1720         967.00      4141.82
 1271.50        2973.25           1723         406.00      1695.83
 1271.53        2973.50           1727         320.00      1320.90
 1271.57        2973.75           1730         310.00      1277.30
 1271.60        2974.00           1734         286.00      1172.67
 1271.63        2974.25           1737         294.00      1207.55
 1271.67        2974.50           1740         272.00      1111.64
 1271.70        2974.75           1744         272.00      1111.64
 1271.73        2975.00           1747         284.00      1163.95
 1271.76        2975.25           1751         251.00      1020.09
 1271.80        2975.50           1754         250.00      1015.73
 1271.83        2975.75           1757         276.00      1129.08
 1271.86        2976.00           1761         250.00      1015.73
 1271.89        2976.25           1764         242.00       980.85
 1271.93        2976.50           1768         254.00      1033.17
 1271.96        2976.75           1771         256.00      1041.89
 1271.99        2977.00           1774         215.00       863.15
 1272.03        2977.25           1778         220.00       884.94
 1272.06        2977.50           1781         203.00       810.83
 1272.09        2977.75           1785         205.00       819.55
 1272.12        2978.00           1788         201.00       802.11
 1272.16        2978.25           1791         216.00       867.51
 1272.19        2978.50           1795         201.00       802.11
 1272.22        2978.75           1798         190.00       754.16
 1272.26        2979.00           1802         215.00       863.15
 1272.29        2979.25           1805         190.00       754.16
 1272.32        2979.50           1808         197.00       784.68
 1272.35        2979.75           1812         199.00       793.40
 1272.39        2980.00           1815         185.00       732.36
 1272.42        2980.25           1819         199.00       793.40
 1272.45        2980.50           1822         187.00       741.08
 1272.48        2980.75           1825         181.00       714.93
 1272.52        2981.00           1829         185.00       732.36
 1272.55        2981.25           1832         183.00       723.64
 1272.58        2981.50           1836         182.00       719.29
 1272.62        2981.75           1839         184.00       728.00
 1272.65        2982.00           1842         174.00       684.41
 1272.68        2982.25           1846         172.00       675.69
 1272.71        2982.50           1849         177.00       697.49
 1272.75        2982.75           1853         165.00       645.18
 1272.78        2983.00           1856         169.00       662.61
 1272.81        2983.25           1859         174.00       684.41
 1272.84        2983.50           1863         173.00       680.05
 1272.88        2983.75           1866         174.00       684.41
 1272.91        2984.00           1870         178.00       701.85
HS scan finished at 21:13:08
end
