************************************************************
  HS Scan of (1) Internal mercury lamp
************************************************************
Integration time is 0.2294 seconds per sample
dh190619Arenosillo 37.1 6.73 3.19pr1000
************************************************************
Dead Time -------------------------  3.4E-08 
Number of Cycles Used -------------  4 
Starting Wavelength (Angstroms) ---  2950 
Final Wavelength (Angstoms) -------  2984 
Wavelength Increment (Angstroms) --  .25 
Filter Wheel #1 Position ---------- (1) Ground quartz diffuser (ND=2.32)
Filter Wheel #2 Position ---------- (1) Neutral Density 0.494



************************************************************
HS scan start time = 02:14:26
Dark Count =  9.100001 


Time (GMT)  Wavelength (Ang)  Step Number  Raw Counts  Counts/Second

  135.16        2950.00           1408         150.00       614.22
  135.30        2950.25           1412         157.00       644.74
  135.34        2950.50           1415         169.00       697.05
  135.37        2950.75           1418         162.00       666.54
  135.40        2951.00           1422         169.00       697.05
  135.43        2951.25           1425         166.00       683.97
  135.47        2951.50           1428         161.00       662.18
  135.50        2951.75           1432         163.00       670.90
  135.53        2952.00           1435         168.00       692.69
  135.56        2952.25           1439         167.00       688.33
  135.60        2952.50           1442         172.00       710.13
  135.63        2952.75           1445         173.00       714.49
  135.66        2953.00           1449         190.00       788.60
  135.69        2953.25           1452         176.00       727.57
  135.73        2953.50           1456         177.00       731.93
  135.76        2953.75           1459         192.00       797.32
  135.79        2954.00           1462         184.00       762.44
  135.83        2954.25           1466         185.00       766.80
  135.86        2954.50           1469         186.00       771.16
  135.89        2954.75           1472         183.00       758.08
  135.92        2955.00           1476         189.00       784.24
  135.96        2955.25           1479         199.00       827.83
  135.99        2955.50           1483         189.00       784.24
  136.02        2955.75           1486         192.00       797.32
  136.06        2956.00           1489         198.00       823.48
  136.09        2956.25           1493         199.00       827.83
  136.12        2956.50           1496         201.00       836.55
  136.15        2956.75           1499         206.00       858.35
  136.19        2957.00           1503         214.00       893.23
  136.22        2957.25           1506         209.00       871.43
  136.25        2957.50           1510         234.00       980.42
  136.28        2957.75           1513         222.00       928.10
  136.32        2958.00           1516         221.00       923.74
  136.35        2958.25           1520         254.00      1067.61
  136.38        2958.50           1523         246.00      1032.73
  136.42        2958.75           1527         232.00       971.70
  136.45        2959.00           1530         250.00      1050.17
  136.48        2959.25           1533         239.00      1002.21
  136.51        2959.50           1537         249.00      1045.81
  136.55        2959.75           1540         250.00      1050.17
  136.58        2960.00           1544         272.00      1146.08
  136.61        2960.25           1547         275.00      1159.16
  136.64        2960.50           1550         291.00      1228.91
  136.68        2960.75           1554         327.00      1385.85
  136.71        2961.00           1557         442.00      1887.22
  136.74        2961.25           1560         820.00      3535.30
  136.78        2961.50           1564        2360.00     10251.61
  136.81        2961.75           1567        4806.00     20925.52
  136.84        2962.00           1571       10052.00     43844.30
  136.87        2962.25           1574       14506.00     63331.08
  136.91        2962.50           1577       19161.00     83724.93
  136.94        2962.75           1581       25530.00    111673.90
  136.97        2963.00           1584       30712.00    134453.30
  137.00        2963.25           1588       37277.00    163363.00
  137.04        2963.50           1591       41974.00    184081.80
  137.07        2963.75           1594       47267.00    207464.80
  137.10        2964.00           1598       53750.00    236155.80
  137.14        2964.25           1601       57857.00    254360.80
  137.17        2964.50           1605       64729.00    284872.70
  137.20        2964.75           1608       69073.00    304193.20
  137.23        2965.00           1611       73588.00    324301.20
  137.27        2965.25           1615       79439.00    350400.40
  137.30        2965.50           1618       84167.00    371524.50
  137.33        2965.75           1621       88677.00    391703.00
  137.37        2966.00           1625       95159.00    420753.60
  137.40        2966.25           1628       99658.00    440950.90
  137.43        2966.50           1632      104919.00    464604.50
  137.46        2966.75           1635      107238.00    475043.00
  137.50        2967.00           1638      108409.00    480316.90
  137.53        2967.25           1642      108335.00    479983.60
  137.56        2967.50           1645      107868.00    477880.20
  137.59        2967.75           1649      106887.00    473462.60
  137.63        2968.00           1652      104336.00    461981.40
  137.66        2968.25           1655       99913.00    442096.50
  137.69        2968.50           1659       93946.00    415312.80
  137.72        2968.75           1662       88652.00    391591.10
  137.76        2969.00           1666       81940.00    361570.70
  137.79        2969.25           1669       76824.00    338730.10
  137.82        2969.50           1672       72084.00    317599.90
  137.86        2969.75           1676       65595.00    288722.30
  137.89        2970.00           1679       60984.00    268236.90
  137.92        2970.25           1683       54503.00    239491.90
  137.95        2970.50           1686       49770.00    218535.40
  137.99        2970.75           1689       44709.00    196159.60
  138.02        2971.00           1693       37934.00    166259.30
  138.05        2971.25           1696       33180.00    145314.70
  138.08        2971.50           1700       26452.00    115724.30
  138.12        2971.75           1703       22043.00     96365.35
  138.15        2972.00           1706       17922.00     78294.03
  138.18        2972.25           1710       11798.00     51480.19
  138.22        2972.50           1713        7663.00     33402.78
  138.25        2972.75           1717        3223.00     14016.71
  138.28        2973.00           1720        1199.00      5187.93
  138.31        2973.25           1723         472.00      2018.01
  138.35        2973.50           1727         327.00      1385.85
  138.38        2973.75           1730         287.00      1211.47
  138.41        2974.00           1734         283.00      1194.03
  138.45        2974.25           1737         269.00      1133.00
  138.48        2974.50           1740         291.00      1228.91
  138.51        2974.75           1744         250.00      1050.17
  138.54        2975.00           1747         249.00      1045.81
  138.58        2975.25           1751         280.00      1180.95
  138.61        2975.50           1754         249.00      1045.81
  138.64        2975.75           1757         229.00       958.62
  138.67        2976.00           1761         222.00       928.10
  138.71        2976.25           1764         228.00       954.26
  138.74        2976.50           1768         213.00       888.87
  138.77        2976.75           1771         233.00       976.06
  138.81        2977.00           1774         220.00       919.38
  138.84        2977.25           1778         215.00       897.59
  138.87        2977.50           1781         209.00       871.43
  138.90        2977.75           1785         211.00       880.15
  138.94        2978.00           1788         203.00       845.27
  138.97        2978.25           1791         189.00       784.24
  139.00        2978.50           1795         208.00       867.07
  139.03        2978.75           1798         192.00       797.32
  139.07        2979.00           1802         192.00       797.32
  139.10        2979.25           1805         195.00       810.40
  139.13        2979.50           1808         195.00       810.40
  139.17        2979.75           1812         193.00       801.68
  139.20        2980.00           1815         192.00       797.32
  139.23        2980.25           1819         185.00       766.80
  139.26        2980.50           1822         179.00       740.65
  139.30        2980.75           1825         170.00       701.41
  139.33        2981.00           1829         191.00       792.96
  139.36        2981.25           1832         177.00       731.93
  139.39        2981.50           1836         177.00       731.93
  139.43        2981.75           1839         166.00       683.97
  139.46        2982.00           1842         171.00       705.77
  139.49        2982.25           1846         187.00       775.52
  139.53        2982.50           1849         177.00       731.93
  139.56        2982.75           1853         165.00       679.61
  139.59        2983.00           1856         165.00       679.61
  139.62        2983.25           1859         178.00       736.29
  139.66        2983.50           1863         167.00       688.33
  139.69        2983.75           1866         168.00       692.69
  139.72        2984.00           1870         155.00       636.02
HS scan finished at 02:19:57
end
