************************************************************
  HS Scan of (1) Internal mercury lamp
************************************************************
Integration time is 0.2294 seconds per sample
dh200619Arenosillo 37.1 6.73 3.05pr1000
************************************************************
Dead Time -------------------------  3.4E-08 
Number of Cycles Used -------------  4 
Starting Wavelength (Angstroms) ---  2950 
Final Wavelength (Angstoms) -------  2984 
Wavelength Increment (Angstroms) --  .25 
Filter Wheel #1 Position ---------- (1) Ground quartz diffuser (ND=2.32)
Filter Wheel #2 Position ---------- (1) Neutral Density 0.494



************************************************************
HS scan start time = 02:14:15
Dark Count =  5.5 


Time (GMT)  Wavelength (Ang)  Step Number  Raw Counts  Counts/Second

  134.98        2950.00           1408         156.00       656.07
  135.12        2950.25           1412         144.00       603.76
  135.16        2950.50           1415         166.00       699.67
  135.19        2950.75           1418         184.00       778.14
  135.22        2951.00           1422         173.00       730.18
  135.25        2951.25           1425         154.00       647.36
  135.29        2951.50           1428         155.00       651.71
  135.32        2951.75           1432         172.00       725.82
  135.35        2952.00           1435         178.00       751.98
  135.39        2952.25           1439         174.00       734.54
  135.42        2952.50           1442         170.00       717.11
  135.45        2952.75           1445         178.00       751.98
  135.48        2953.00           1449         183.00       773.78
  135.52        2953.25           1452         191.00       808.65
  135.55        2953.50           1456         170.00       717.11
  135.58        2953.75           1459         170.00       717.11
  135.62        2954.00           1462         193.00       817.37
  135.65        2954.25           1466         171.00       721.46
  135.68        2954.50           1469         192.00       813.01
  135.71        2954.75           1472         184.00       778.14
  135.75        2955.00           1476         196.00       830.45
  135.78        2955.25           1479         192.00       813.01
  135.81        2955.50           1483         199.00       843.53
  135.84        2955.75           1486         200.00       847.89
  135.88        2956.00           1489         186.00       786.86
  135.91        2956.25           1493         210.00       891.48
  135.94        2956.50           1496         219.00       930.72
  135.98        2956.75           1499         202.00       856.61
  136.01        2957.00           1503         231.00       983.03
  136.04        2957.25           1506         219.00       930.72
  136.07        2957.50           1510         218.00       926.36
  136.11        2957.75           1513         219.00       930.72
  136.14        2958.00           1516         236.00      1004.83
  136.17        2958.25           1520         237.00      1009.19
  136.21        2958.50           1523         254.00      1083.30
  136.24        2958.75           1527         245.00      1044.07
  136.27        2959.00           1530         235.00      1000.47
  136.30        2959.25           1533         242.00      1030.99
  136.34        2959.50           1537         276.00      1179.21
  136.37        2959.75           1540         280.00      1196.65
  136.40        2960.00           1544         270.00      1153.05
  136.44        2960.25           1547         312.00      1336.15
  136.47        2960.50           1550         305.00      1305.64
  136.50        2960.75           1554         315.00      1349.23
  136.53        2961.00           1557         421.00      1811.36
  136.57        2961.25           1560         761.00      3293.74
  136.60        2961.50           1564        2149.00      9346.91
  136.63        2961.75           1567        4348.00     18942.01
  136.66        2962.00           1571        9780.00     42670.85
  136.70        2962.25           1574       14390.00     62839.00
  136.73        2962.50           1577       18826.00     82272.10
  136.76        2962.75           1581       24924.00    109028.10
  136.79        2963.00           1584       29743.00    130206.80
  136.83        2963.25           1588       35783.00    156794.90
  136.86        2963.50           1591       40475.00    177482.30
  136.89        2963.75           1594       46162.00    202596.10
  136.93        2964.00           1598       52531.00    230772.70
  136.96        2964.25           1601       57027.00    250695.80
  136.99        2964.50           1605       63092.00    277614.60
  137.02        2964.75           1608       67315.00    296387.20
  137.06        2965.00           1611       71757.00    316159.30
  137.09        2965.25           1615       77844.00    343297.10
  137.12        2965.50           1618       82162.00    362578.80
  137.15        2965.75           1621       86782.00    383237.10
  137.19        2966.00           1625       92619.00    409379.20
  137.22        2966.25           1628       97765.00    432465.40
  137.25        2966.50           1632      102713.00    454697.80
  137.29        2966.75           1635      105114.00    465498.20
  137.32        2967.00           1638      106065.00    469778.30
  137.35        2967.25           1642      106968.00    473843.50
  137.38        2967.50           1645      106492.00    471700.50
  137.42        2967.75           1649      105010.00    465030.20
  137.45        2968.00           1652      102727.00    454760.70
  137.48        2968.25           1655       98865.00    437405.00
  137.52        2968.50           1659       93108.00    411571.50
  137.55        2968.75           1662       88898.00    392708.70
  137.58        2969.00           1666       83229.00    367347.30
  137.61        2969.25           1669       78250.00    345109.00
  137.65        2969.50           1672       72974.00    321581.10
  137.68        2969.75           1676       65829.00    289778.70
  137.71        2970.00           1679       60576.00    266441.60
  137.75        2970.25           1683       53955.00    237079.90
  137.78        2970.50           1686       48885.00    214636.10
  137.81        2970.75           1689       43911.00    192650.50
  137.84        2971.00           1693       37418.00    164000.40
  137.88        2971.25           1696       32968.00    144397.20
  137.91        2971.50           1700       26335.00    115226.00
  137.94        2971.75           1703       21970.00     96060.84
  137.98        2972.00           1706       17634.00     77047.70
  138.01        2972.25           1710       11524.00     50297.37
  138.04        2972.50           1713        7530.00     32837.43
  138.07        2972.75           1717        3024.00     13164.13
  138.11        2973.00           1720        1162.00      5042.28
  138.14        2973.25           1723         470.00      2024.99
  138.17        2973.50           1727         313.00      1340.51
  138.20        2973.75           1730         312.00      1336.15
  138.24        2974.00           1734         305.00      1305.64
  138.27        2974.25           1737         268.00      1144.33
  138.30        2974.50           1740         287.00      1227.17
  138.34        2974.75           1744         280.00      1196.65
  138.37        2975.00           1747         261.00      1113.82
  138.40        2975.25           1751         250.00      1065.86
  138.43        2975.50           1754         249.00      1061.50
  138.47        2975.75           1757         254.00      1083.30
  138.50        2976.00           1761         239.00      1017.91
  138.53        2976.25           1764         247.00      1052.78
  138.57        2976.50           1768         221.00       939.44
  138.60        2976.75           1771         221.00       939.44
  138.63        2977.00           1774         207.00       878.40
  138.66        2977.25           1778         215.00       913.28
  138.70        2977.50           1781         230.00       978.67
  138.73        2977.75           1785         230.00       978.67
  138.76        2978.00           1788         215.00       913.28
  138.79        2978.25           1791         205.00       869.69
  138.83        2978.50           1795         210.00       891.48
  138.86        2978.75           1798         196.00       830.45
  138.89        2979.00           1802         206.00       874.05
  138.93        2979.25           1805         193.00       817.37
  138.96        2979.50           1808         207.00       878.40
  138.99        2979.75           1812         175.00       738.90
  139.02        2980.00           1815         186.00       786.86
  139.06        2980.25           1819         182.00       769.42
  139.09        2980.50           1822         180.00       760.70
  139.12        2980.75           1825         183.00       773.78
  139.15        2981.00           1829         178.00       751.98
  139.19        2981.25           1832         191.00       808.65
  139.22        2981.50           1836         181.00       765.06
  139.25        2981.75           1839         178.00       751.98
  139.29        2982.00           1842         161.00       677.87
  139.32        2982.25           1846         176.00       743.26
  139.35        2982.50           1849         172.00       725.82
  139.38        2982.75           1853         166.00       699.67
  139.42        2983.00           1856         173.00       730.18
  139.45        2983.25           1859         167.00       704.03
  139.48        2983.50           1863         178.00       751.98
  139.51        2983.75           1866         157.00       660.43
  139.55        2984.00           1870         167.00       704.03
HS scan finished at 02:19:47
end
