************************************************************
  HS Scan of (1) Internal mercury lamp
************************************************************
Integration time is 0.2294 seconds per sample
dh210619Arenosillo 37.1 6.73 3.07pr1000
************************************************************
Dead Time -------------------------  3.4E-08 
Number of Cycles Used -------------  4 
Starting Wavelength (Angstroms) ---  2950 
Final Wavelength (Angstoms) -------  2984 
Wavelength Increment (Angstroms) --  .25 
Filter Wheel #1 Position ---------- (1) Ground quartz diffuser (ND=2.32)
Filter Wheel #2 Position ---------- (1) Neutral Density 0.494



************************************************************
HS scan start time = 02:15:04
Dark Count =  7 


Time (GMT)  Wavelength (Ang)  Step Number  Raw Counts  Counts/Second

  135.79        2950.00           1408         170.00       710.57
  135.93        2950.25           1412         169.00       706.21
  135.96        2950.50           1415         169.00       706.21
  135.99        2950.75           1418         169.00       706.21
  136.03        2951.00           1422         179.00       749.80
  136.06        2951.25           1425         176.00       736.72
  136.09        2951.50           1428         177.00       741.08
  136.13        2951.75           1432         187.00       784.68
  136.16        2952.00           1435         179.00       749.80
  136.19        2952.25           1439         160.00       666.97
  136.22        2952.50           1442         170.00       710.57
  136.26        2952.75           1445         179.00       749.80
  136.29        2953.00           1449         174.00       728.00
  136.32        2953.25           1452         184.00       771.60
  136.35        2953.50           1456         176.00       736.72
  136.39        2953.75           1459         186.00       780.32
  136.42        2954.00           1462         183.00       767.24
  136.45        2954.25           1466         195.00       819.55
  136.48        2954.50           1469         187.00       784.68
  136.52        2954.75           1472         191.00       802.11
  136.55        2955.00           1476         204.00       858.79
  136.58        2955.25           1479         196.00       823.91
  136.62        2955.50           1483         204.00       858.79
  136.65        2955.75           1486         231.00       976.49
  136.68        2956.00           1489         193.00       810.83
  136.71        2956.25           1493         205.00       863.15
  136.75        2956.50           1496         227.00       959.05
  136.78        2956.75           1499         219.00       924.18
  136.81        2957.00           1503         217.00       915.46
  136.85        2957.25           1506         237.00      1002.65
  136.88        2957.50           1510         236.00       998.29
  136.91        2957.75           1513         217.00       915.46
  136.94        2958.00           1516         251.00      1063.68
  136.98        2958.25           1520         249.00      1054.96
  137.01        2958.50           1523         243.00      1028.81
  137.04        2958.75           1527         252.00      1068.04
  137.07        2959.00           1530         261.00      1107.28
  137.11        2959.25           1533         256.00      1085.48
  137.14        2959.50           1537         283.00      1203.19
  137.17        2959.75           1540         295.00      1255.50
  137.21        2960.00           1544         268.00      1137.79
  137.24        2960.25           1547         285.00      1211.91
  137.27        2960.50           1550         297.00      1264.22
  137.30        2960.75           1554         330.00      1408.09
  137.34        2961.00           1557         418.00      1791.74
  137.37        2961.25           1560         777.00      3356.97
  137.40        2961.50           1564        2191.00      9523.57
  137.44        2961.75           1567        4580.00     19948.14
  137.47        2962.00           1571       10194.00     44474.35
  137.50        2962.25           1574       14863.00     64903.32
  137.53        2962.50           1577       19557.00     85470.34
  137.57        2962.75           1581       26011.00    113796.00
  137.60        2963.00           1584       30905.00    135311.60
  137.63        2963.25           1588       37465.00    164201.00
  137.66        2963.50           1591       41887.00    183707.10
  137.70        2963.75           1594       47028.00    206417.50
  137.73        2964.00           1598       53930.00    236962.50
  137.76        2964.25           1601       58126.00    255563.20
  137.79        2964.50           1605       64664.00    284593.20
  137.83        2964.75           1608       69888.00    307830.10
  137.86        2965.00           1611       74869.00    330020.60
  137.89        2965.25           1615       80827.00    356608.00
  137.93        2965.50           1618       85876.00    379177.00
  137.96        2965.75           1621       90642.00    400512.90
  137.99        2966.00           1625       96796.00    428108.70
  138.02        2966.25           1628      100666.00    445489.30
  138.06        2966.50           1632      105556.00    467480.60
  138.09        2966.75           1635      108503.00    480749.80
  138.12        2967.00           1638      108835.00    482245.40
  138.15        2967.25           1642      109147.00    483651.10
  138.19        2967.50           1645      108426.00    480402.90
  138.22        2967.75           1649      107042.00    474169.90
  138.25        2968.00           1652      104602.00    463187.70
  138.29        2968.25           1655      100160.00    443215.70
  138.32        2968.50           1659       94331.00    417048.90
  138.35        2968.75           1662       89346.00    394708.00
  138.38        2969.00           1666       83111.00    366813.10
  138.42        2969.25           1669       78606.00    346691.20
  138.45        2969.50           1672       74203.00    327051.70
  138.48        2969.75           1676       67738.00    298262.20
  138.52        2970.00           1679       62028.00    272881.90
  138.55        2970.25           1683       55231.00    242727.30
  138.58        2970.50           1686       50126.00    220119.90
  138.61        2970.75           1689       44623.00    195789.00
  138.65        2971.00           1693       38172.00    167317.90
  138.68        2971.25           1696       33324.00    145957.90
  138.71        2971.50           1700       26633.00    116528.80
  138.74        2971.75           1703       22167.00     96918.68
  138.78        2972.00           1706       17934.00     78355.81
  138.81        2972.25           1710       11833.00     51642.48
  138.84        2972.50           1713        7513.00     32756.60
  138.88        2972.75           1717        2993.00     13022.33
  138.91        2973.00           1720        1139.00      4935.44
  138.94        2973.25           1723         463.00      1987.93
  138.97        2973.50           1727         327.00      1395.01
  139.01        2973.75           1730         307.00      1307.82
  139.04        2974.00           1734         290.00      1233.70
  139.07        2974.25           1737         285.00      1211.91
  139.10        2974.50           1740         289.00      1229.35
  139.14        2974.75           1744         264.00      1120.36
  139.17        2975.00           1747         268.00      1137.79
  139.20        2975.25           1751         272.00      1155.23
  139.24        2975.50           1754         253.00      1072.40
  139.27        2975.75           1757         277.00      1177.03
  139.30        2976.00           1761         245.00      1037.53
  139.33        2976.25           1764         235.00       993.93
  139.37        2976.50           1768         211.00       889.30
  139.40        2976.75           1771         239.00      1011.37
  139.43        2977.00           1774         223.00       941.62
  139.46        2977.25           1778         205.00       863.15
  139.50        2977.50           1781         220.00       928.54
  139.53        2977.75           1785         228.00       963.41
  139.56        2978.00           1788         204.00       858.79
  139.60        2978.25           1791         222.00       937.26
  139.63        2978.50           1795         201.00       845.71
  139.66        2978.75           1798         192.00       806.47
  139.69        2979.00           1802         197.00       828.27
  139.73        2979.25           1805         193.00       810.83
  139.76        2979.50           1808         179.00       749.80
  139.79        2979.75           1812         194.00       815.19
  139.82        2980.00           1815         182.00       762.88
  139.86        2980.25           1819         178.00       745.44
  139.89        2980.50           1822         171.00       714.93
  139.92        2980.75           1825         177.00       741.08
  139.96        2981.00           1829         185.00       775.96
  139.99        2981.25           1832         177.00       741.08
  140.02        2981.50           1836         177.00       741.08
  140.05        2981.75           1839         172.00       719.29
  140.09        2982.00           1842         172.00       719.29
  140.12        2982.25           1846         173.00       723.64
  140.15        2982.50           1849         175.00       732.36
  140.18        2982.75           1853         166.00       693.13
  140.22        2983.00           1856         167.00       697.49
  140.25        2983.25           1859         170.00       710.57
  140.28        2983.50           1863         164.00       684.41
  140.32        2983.75           1866         163.00       680.05
  140.35        2984.00           1870         175.00       732.36
HS scan finished at 02:20:35
end
************************************************************
  HS Scan of (1) Internal mercury lamp
************************************************************
Integration time is 0.2294 seconds per sample
dh210619Arenosillo 37.1 6.73 3.25pr1000
************************************************************
Dead Time -------------------------  3.4E-08 
Number of Cycles Used -------------  4 
Starting Wavelength (Angstroms) ---  2950 
Final Wavelength (Angstoms) -------  2984 
Wavelength Increment (Angstroms) --  .25 
Filter Wheel #1 Position ---------- (1) Ground quartz diffuser (ND=2.32)
Filter Wheel #2 Position ---------- (1) Neutral Density 0.494



************************************************************
HS scan start time = 21:54:48
Dark Count =  11.4 


Time (GMT)  Wavelength (Ang)  Step Number  Raw Counts  Counts/Second

 1315.53        2950.00           1408         195.00       800.37
 1315.67        2950.25           1412         220.00       909.36
 1315.70        2950.50           1415         202.00       830.89
 1315.73        2950.75           1418         215.00       887.56
 1315.77        2951.00           1422         202.00       830.89
 1315.80        2951.25           1425         204.00       839.61
 1315.83        2951.50           1428         201.00       826.53
 1315.86        2951.75           1432         209.00       861.40
 1315.90        2952.00           1435         209.00       861.40
 1315.93        2952.25           1439         203.00       835.25
 1315.96        2952.50           1442         199.00       817.81
 1316.00        2952.75           1445         189.00       774.21
 1316.03        2953.00           1449         207.00       852.68
 1316.06        2953.25           1452         218.00       900.64
 1316.09        2953.50           1456         204.00       839.61
 1316.13        2953.75           1459         219.00       905.00
 1316.16        2954.00           1462         229.00       948.59
 1316.19        2954.25           1466         245.00      1018.34
 1316.22        2954.50           1469         219.00       905.00
 1316.26        2954.75           1472         260.00      1083.74
 1316.29        2955.00           1476         227.00       939.87
 1316.32        2955.25           1479         229.00       948.59
 1316.36        2955.50           1483         235.00       974.75
 1316.39        2955.75           1486         262.00      1092.46
 1316.42        2956.00           1489         246.00      1022.70
 1316.45        2956.25           1493         256.00      1066.30
 1316.49        2956.50           1496         257.00      1070.66
 1316.52        2956.75           1499         282.00      1179.65
 1316.55        2957.00           1503         249.00      1035.78
 1316.59        2957.25           1506         288.00      1205.80
 1316.62        2957.50           1510         263.00      1096.82
 1316.65        2957.75           1513         267.00      1114.25
 1316.68        2958.00           1516         263.00      1096.82
 1316.72        2958.25           1520         266.00      1109.89
 1316.75        2958.50           1523         285.00      1192.73
 1316.78        2958.75           1527         308.00      1293.00
 1316.81        2959.00           1530         289.00      1210.16
 1316.85        2959.25           1533         304.00      1275.56
 1316.88        2959.50           1537         324.00      1362.75
 1316.91        2959.75           1540         309.00      1297.35
 1316.95        2960.00           1544         321.00      1349.67
 1316.98        2960.25           1547         361.00      1524.05
 1317.01        2960.50           1550         357.00      1506.62
 1317.04        2960.75           1554         424.00      1798.72
 1317.08        2961.00           1557         649.00      2779.69
 1317.11        2961.25           1560        1300.00      5618.34
 1317.14        2961.50           1564        3505.00     15237.19
 1317.18        2961.75           1567        7084.00     30863.24
 1317.21        2962.00           1571       14158.00     61797.54
 1317.24        2962.25           1574       20023.00     87494.42
 1317.27        2962.50           1577       25690.00    112366.60
 1317.31        2962.75           1581       34212.00    149848.70
 1317.34        2963.00           1584       40571.00    177879.90
 1317.37        2963.25           1588       48918.00    214755.90
 1317.40        2963.50           1591       54898.00    241232.00
 1317.44        2963.75           1594       61518.00    270597.60
 1317.47        2964.00           1598       69976.00    308202.30
 1317.50        2964.25           1601       75390.00    332324.10
 1317.54        2964.50           1605       82446.00    363821.50
 1317.57        2964.75           1608       88236.00    389718.40
 1317.60        2965.00           1611       93249.00    412177.10
 1317.63        2965.25           1615      100882.00    446440.30
 1317.67        2965.50           1618      105861.00    468833.50
 1317.70        2965.75           1621      111331.00    493474.70
 1317.73        2966.00           1625      118602.00    526293.60
 1317.76        2966.25           1628      124045.00    550910.00
 1317.80        2966.50           1632      130356.00    579504.30
 1317.83        2966.75           1635      132340.00    588505.10
 1317.86        2967.00           1638      133153.00    592195.00
 1317.89        2967.25           1642      132923.00    591151.00
 1317.93        2967.50           1645      132003.00    586975.80
 1317.96        2967.75           1649      130554.00    580402.30
 1317.99        2968.00           1652      126955.00    564087.90
 1318.03        2968.25           1655      122018.00    541737.90
 1318.06        2968.50           1659      115111.00    510527.20
 1318.09        2968.75           1662      109308.00    484356.70
 1318.12        2969.00           1666      102215.00    452432.20
 1318.16        2969.25           1669       96406.00    426338.60
 1318.19        2969.50           1672       90141.00    398248.90
 1318.22        2969.75           1676       82299.00    363164.60
 1318.26        2970.00           1679       76319.00    336467.20
 1318.29        2970.25           1683       68405.00    301210.20
 1318.32        2970.50           1686       62294.00    274043.70
 1318.35        2970.75           1689       55539.00    244072.90
 1318.39        2971.00           1693       47874.00    210138.60
 1318.42        2971.25           1696       42360.00    185775.70
 1318.45        2971.50           1700       33531.00    146850.00
 1318.49        2971.75           1703       27594.00    120732.60
 1318.52        2972.00           1706       22149.00     96820.38
 1318.55        2972.25           1710       14437.00     63018.93
 1318.58        2972.50           1713        9387.00     40927.01
 1318.62        2972.75           1717        4076.00     17729.08
 1318.65        2973.00           1720        1553.00      6721.68
 1318.68        2973.25           1723         565.00      2413.45
 1318.71        2973.50           1727         376.00      1589.45
 1318.75        2973.75           1730         372.00      1572.01
 1318.78        2974.00           1734         346.00      1458.66
 1318.81        2974.25           1737         325.00      1367.11
 1318.84        2974.50           1740         321.00      1349.67
 1318.88        2974.75           1744         303.00      1271.20
 1318.91        2975.00           1747         291.00      1218.88
 1318.94        2975.25           1751         276.00      1153.49
 1318.97        2975.50           1754         296.00      1240.68
 1319.01        2975.75           1757         282.00      1179.65
 1319.04        2976.00           1761         281.00      1175.29
 1319.07        2976.25           1764         279.00      1166.57
 1319.11        2976.50           1768         256.00      1066.30
 1319.14        2976.75           1771         249.00      1035.78
 1319.17        2977.00           1774         260.00      1083.74
 1319.20        2977.25           1778         246.00      1022.70
 1319.24        2977.50           1781         234.00       970.39
 1319.27        2977.75           1785         221.00       913.72
 1319.30        2978.00           1788         244.00      1013.98
 1319.34        2978.25           1791         226.00       935.51
 1319.37        2978.50           1795         227.00       939.87
 1319.40        2978.75           1798         216.00       891.92
 1319.43        2979.00           1802         221.00       913.72
 1319.47        2979.25           1805         224.00       926.79
 1319.50        2979.50           1808         231.00       957.31
 1319.53        2979.75           1812         210.00       865.76
 1319.57        2980.00           1815         222.00       918.08
 1319.60        2980.25           1819         210.00       865.76
 1319.63        2980.50           1822         200.00       822.17
 1319.66        2980.75           1825         205.00       843.96
 1319.70        2981.00           1829         193.00       791.65
 1319.73        2981.25           1832         195.00       800.37
 1319.76        2981.50           1836         190.00       778.57
 1319.79        2981.75           1839         192.00       787.29
 1319.83        2982.00           1842         187.00       765.50
 1319.86        2982.25           1846         200.00       822.17
 1319.89        2982.50           1849         188.00       769.85
 1319.93        2982.75           1853         190.00       778.57
 1319.96        2983.00           1856         193.00       791.65
 1319.99        2983.25           1859         182.00       743.70
 1320.02        2983.50           1863         191.00       782.93
 1320.06        2983.75           1866         173.00       704.46
 1320.09        2984.00           1870         178.00       726.26
HS scan finished at 22:00:19
end
