************************************************************
  HL Scan of (1) Internal mercury lamp
************************************************************
Integration time is 0.2294 seconds per sample
dh040117Sodankyla 67.3675-26.633 2.535944pr990
************************************************************
Dead Time -------------------------  2.7E-08 
Number of Cycles Used -------------  4 
Starting Wavelength (Angstroms) ---  3331 
Final Wavelength (Angstoms) -------  3351 
Wavelength Increment (Angstroms) --  .25 
Filter Wheel #1 Position ---------- (1) Ground quartz diffuser (ND=2.32)
Filter Wheel #2 Position ---------- 



************************************************************
HL scan start time = 23:31:02
Dark Count =  0 


Time (GMT)  Wavelength (Ang)  Step Number  Raw Counts  Counts/Second

 1411.84        3331.00           6601          58.00       252.84
 1412.28        3331.25           6605          52.00       226.68
 1412.31        3331.50           6608          61.00       265.91
 1412.35        3331.75           6612          50.00       217.96
 1412.41        3332.00           6616          51.00       222.32
 1412.44        3332.25           6620          51.00       222.32
 1412.48        3332.50           6623          54.00       235.40
 1412.53        3332.75           6627          49.00       213.60
 1412.57        3333.00           6631          51.00       222.32
 1412.61        3333.25           6634          48.00       209.24
 1412.64        3333.50           6638          46.00       200.52
 1412.70        3333.75           6642          49.00       213.60
 1412.74        3334.00           6646          48.00       209.24
 1412.77        3334.25           6649          47.00       204.88
 1412.83        3334.50           6653          52.00       226.68
 1412.86        3334.75           6657          54.00       235.40
 1412.90        3335.00           6661          54.00       235.40
 1412.96        3335.25           6664          59.00       257.19
 1412.99        3335.50           6668          63.00       274.63
 1413.03        3335.75           6672          59.00       257.19
 1413.06        3336.00           6676          81.00       353.10
 1413.12        3336.25           6679         326.00      1421.15
 1413.16        3336.50           6683        1711.00      7460.09
 1413.19        3336.75           6687        3814.00     16633.45
 1413.25        3337.00           6691        6208.00     27081.70
 1413.29        3337.25           6694        8289.00     36168.70
 1413.32        3337.50           6698       10886.00     47515.15
 1413.37        3337.75           6702       13323.00     58168.88
 1413.42        3338.00           6705       15392.00     67218.66
 1413.45        3338.25           6709       18005.00     78654.22
 1413.50        3338.50           6713       20571.00     89890.96
 1413.55        3338.75           6717       23175.00    101301.10
 1413.58        3339.00           6720       25243.00    110367.60
 1413.62        3339.25           6724       27792.00    121549.10
 1413.68        3339.50           6728       30239.00    132289.50
 1413.71        3339.75           6732       33093.00    144824.10
 1413.75        3340.00           6735       34939.00    152936.20
 1413.81        3340.25           6739       37145.00    162635.00
 1413.84        3340.50           6743       40177.00    175973.60
 1413.88        3340.75           6747       42387.00    185702.10
 1413.92        3341.00           6750       43901.00    192369.70
 1413.97        3341.25           6754       44800.00    196330.10
 1414.01        3341.50           6758       45059.00    197471.20
 1414.04        3341.75           6762       45159.00    197911.80
 1414.10        3342.00           6765       44706.00    195915.90
 1414.14        3342.25           6769       42868.00    187820.10
 1414.17        3342.50           6773       40513.00    177452.40
 1414.23        3342.75           6777       38056.00    166641.70
 1414.26        3343.00           6780       36159.00    158299.40
 1414.30        3343.25           6784       33468.00    146471.80
 1414.33        3343.50           6788       31055.00    135872.40
 1414.39        3343.75           6792       28190.00    123295.60
 1414.43        3344.00           6795       26374.00    115328.10
 1414.47        3344.25           6799       23684.00    103532.30
 1414.53        3344.50           6803       21196.00     92628.94
 1414.56        3344.75           6807       18640.00     81434.31
 1414.60        3345.00           6810       16812.00     73432.28
 1414.66        3345.25           6814       14168.00     61864.37
 1414.69        3345.50           6818       11475.00     50089.50
 1414.73        3345.75           6822        8944.00     39029.78
 1414.76        3346.00           6825        7125.00     31085.37
 1414.82        3346.25           6829        4355.00     18994.05
 1414.85        3346.50           6833        2048.00      8929.79
 1414.89        3346.75           6837         780.00      3400.49
 1414.95        3347.00           6840         336.00      1464.75
 1414.98        3347.25           6844         104.00       453.36
 1415.02        3347.50           6848          63.00       274.63
 1415.05        3347.75           6852          61.00       265.91
 1415.11        3348.00           6855          65.00       283.35
 1415.15        3348.25           6859          53.00       231.04
 1415.18        3348.50           6863          57.00       248.48
 1415.24        3348.75           6867          51.00       222.32
 1415.27        3349.00           6870          55.00       239.76
 1415.31        3349.25           6874          48.00       209.24
 1415.37        3349.50           6878          53.00       231.04
 1415.40        3349.75           6882          55.00       239.76
 1415.44        3350.00           6885          52.00       226.68
 1415.47        3350.25           6889          52.00       226.68
 1415.53        3350.50           6893          59.00       257.19
 1415.57        3350.75           6897          52.00       226.68
 1415.60        3351.00           6900          65.00       283.35
HL scan finished at 23:36:49
end
