************************************************************
  HL Scan of (1) Internal mercury lamp
************************************************************
Integration time is 0.2294 seconds per sample
dh110117Sodankyla 67.3675-26.633 2.643241pr990
************************************************************
Dead Time -------------------------  2.7E-08 
Number of Cycles Used -------------  4 
Starting Wavelength (Angstroms) ---  3331 
Final Wavelength (Angstoms) -------  3351 
Wavelength Increment (Angstroms) --  .25 
Filter Wheel #1 Position ---------- (1) Ground quartz diffuser (ND=2.32)
Filter Wheel #2 Position ---------- 



************************************************************
HL scan start time = 23:39:41
Dark Count =  .2 


Time (GMT)  Wavelength (Ang)  Step Number  Raw Counts  Counts/Second

 1420.52        3331.00           6601          41.00       177.86
 1420.94        3331.25           6605          58.00       251.96
 1420.97        3331.50           6608          45.00       195.29
 1421.04        3331.75           6612          47.00       204.01
 1421.07        3332.00           6616          53.00       230.17
 1421.10        3332.25           6620          53.00       230.17
 1421.16        3332.50           6623          49.00       212.73
 1421.20        3332.75           6627          48.00       208.37
 1421.23        3333.00           6631          49.00       212.73
 1421.29        3333.25           6634          50.00       217.09
 1421.33        3333.50           6638          51.00       221.45
 1421.36        3333.75           6642          46.00       199.65
 1421.42        3334.00           6646          49.00       212.73
 1421.46        3334.25           6649          60.00       260.68
 1421.50        3334.50           6653          58.00       251.96
 1421.55        3334.75           6657          49.00       212.73
 1421.59        3335.00           6661          59.00       256.32
 1421.65        3335.25           6664          53.00       230.17
 1421.68        3335.50           6668          60.00       260.68
 1421.72        3335.75           6672          58.00       251.96
 1421.78        3336.00           6676          68.00       295.56
 1421.81        3336.25           6679         245.00      1067.16
 1421.84        3336.50           6683        1461.00      6369.01
 1421.90        3336.75           6687        3454.00     15061.92
 1421.94        3337.00           6691        5825.00     25408.88
 1421.97        3337.25           6694        7876.00     34364.04
 1422.03        3337.50           6698       10571.00     46137.65
 1422.07        3337.75           6702       13077.00     57092.30
 1422.11        3338.00           6705       14996.00     65485.35
 1422.14        3338.25           6709       17659.00     77138.71
 1422.18        3338.50           6713       20352.00     88930.81
 1422.21        3338.75           6717       23038.00    100699.80
 1422.25        3339.00           6720       24840.00    108599.60
 1422.28        3339.25           6724       27637.00    120868.10
 1422.33        3339.50           6728       30412.00    133048.20
 1422.38        3339.75           6732       33140.00    145029.80
 1422.42        3340.00           6735       34624.00    151550.90
 1422.46        3340.25           6739       37458.00    164010.70
 1422.51        3340.50           6743       39824.00    174419.30
 1422.55        3340.75           6747       42518.00    186278.10
 1422.61        3341.00           6750       43957.00    192615.50
 1422.64        3341.25           6754       44978.00    197113.40
 1422.68        3341.50           6758       45515.00    199479.50
 1422.74        3341.75           6762       45641.00    200034.80
 1422.77        3342.00           6765       45303.00    198545.40
 1422.81        3342.25           6769       43409.00    190201.80
 1422.87        3342.50           6773       41277.00    180814.30
 1422.90        3342.75           6777       38762.00    169746.60
 1422.94        3343.00           6780       36572.00    160114.40
 1422.99        3343.25           6784       34286.00    150065.40
 1423.03        3343.50           6788       31488.00    137773.10
 1423.08        3343.75           6792       28902.00    126419.50
 1423.12        3344.00           6795       27047.00    118279.50
 1423.16        3344.25           6799       24509.00    107148.20
 1423.20        3344.50           6803       21863.00     95550.47
 1423.23        3344.75           6807       19164.00     83727.87
 1423.27        3345.00           6810       17129.00     74818.83
 1423.30        3345.25           6814       14655.00     63993.65
 1423.36        3345.50           6818       12036.00     52540.92
 1423.40        3345.75           6822        9396.00     41003.52
 1423.43        3346.00           6825        7479.00     32630.31
 1423.49        3346.25           6829        4803.00     20948.20
 1423.53        3346.50           6833        2378.00     10368.20
 1423.56        3346.75           6837         891.00      3883.58
 1423.62        3347.00           6840         397.00      1729.81
 1423.66        3347.25           6844         129.00       561.47
 1423.69        3347.50           6848          62.00       269.40
 1423.75        3347.75           6852          68.00       295.56
 1423.79        3348.00           6855          55.00       238.89
 1423.83        3348.25           6859          56.00       243.24
 1423.88        3348.50           6863          54.00       234.53
 1423.92        3348.75           6867          51.00       221.45
 1423.95        3349.00           6870          50.00       217.09
 1424.01        3349.25           6874          58.00       251.96
 1424.05        3349.50           6878          54.00       234.53
 1424.08        3349.75           6882          54.00       234.53
 1424.12        3350.00           6885          58.00       251.96
 1424.15        3350.25           6889          54.00       234.53
 1424.20        3350.50           6893          50.00       217.09
 1424.25        3350.75           6897          52.00       225.81
 1424.28        3351.00           6900          54.00       234.53
HL scan finished at 23:45:30
end
