************************************************************
  HL Scan of (1) Internal mercury lamp
************************************************************
Integration time is 0.2294 seconds per sample
dh180117Sodankyla 67.3675-26.633 2.643241pr990
************************************************************
Dead Time -------------------------  2.7E-08 
Number of Cycles Used -------------  4 
Starting Wavelength (Angstroms) ---  3331 
Final Wavelength (Angstoms) -------  3351 
Wavelength Increment (Angstroms) --  .25 
Filter Wheel #1 Position ---------- (1) Ground quartz diffuser (ND=2.32)
Filter Wheel #2 Position ---------- 



************************************************************
HL scan start time = 23:37:50
Dark Count =  .3 


Time (GMT)  Wavelength (Ang)  Step Number  Raw Counts  Counts/Second

 1418.64        3331.00           6601          47.00       203.58
 1419.06        3331.25           6605          49.00       212.29
 1419.12        3331.50           6608          54.00       234.09
 1419.15        3331.75           6612          54.00       234.09
 1419.19        3332.00           6616          47.00       203.58
 1419.22        3332.25           6620          45.00       194.86
 1419.25        3332.50           6623          49.00       212.29
 1419.31        3332.75           6627          43.00       186.14
 1419.35        3333.00           6631          45.00       194.86
 1419.38        3333.25           6634          46.00       199.22
 1419.42        3333.50           6638          58.00       251.53
 1419.45        3333.75           6642          50.00       216.65
 1419.51        3334.00           6646          45.00       194.86
 1419.54        3334.25           6649          49.00       212.29
 1419.58        3334.50           6653          44.00       190.50
 1419.61        3334.75           6657          51.00       221.01
 1419.65        3335.00           6661          49.00       212.29
 1419.71        3335.25           6664          55.00       238.45
 1419.74        3335.50           6668          63.00       273.32
 1419.78        3335.75           6672          62.00       268.96
 1419.81        3336.00           6676          84.00       364.87
 1419.85        3336.25           6679         270.00      1175.71
 1419.90        3336.50           6683        1495.00      6516.84
 1419.94        3336.75           6687        3545.00     15458.50
 1419.97        3337.00           6691        5926.00     25849.34
 1420.01        3337.25           6694        7924.00     34573.24
 1420.05        3337.50           6698       10593.00     46233.35
 1420.10        3337.75           6702       13108.00     57227.42
 1420.14        3338.00           6705       15207.00     66407.98
 1420.17        3338.25           6709       17840.00     77930.58
 1420.21        3338.50           6713       20367.00     88996.06
 1420.27        3338.75           6717       23049.00    100747.50
 1420.30        3339.00           6720       25162.00    110011.10
 1420.34        3339.25           6724       27721.00    121236.20
 1420.37        3339.50           6728       30262.00    132389.10
 1420.41        3339.75           6732       33009.00    144453.80
 1420.47        3340.00           6735       34583.00    151370.20
 1420.50        3340.25           6739       37262.00    163148.20
 1420.54        3340.50           6743       39862.00    174586.10
 1420.57        3340.75           6747       42377.00    185656.70
 1420.60        3341.00           6750       43835.00    192077.70
 1420.66        3341.25           6754       44833.00    196474.10
 1420.70        3341.50           6758       45149.00    197866.40
 1420.73        3341.75           6762       45247.00    198298.20
 1420.77        3342.00           6765       45050.00    197430.20
 1420.80        3342.25           6769       43045.00    188598.30
 1420.86        3342.50           6773       40934.00    179304.00
 1420.90        3342.75           6777       38405.00    168175.60
 1420.93        3343.00           6780       36244.00    158671.80
 1420.97        3343.25           6784       33846.00    148131.40
 1421.00        3343.50           6788       31347.00    137153.40
 1421.06        3343.75           6792       28817.00    126045.90
 1421.09        3344.00           6795       26741.00    116936.60
 1421.13        3344.25           6799       24228.00    105915.80
 1421.17        3344.50           6803       21470.00     93828.07
 1421.20        3344.75           6807       18980.00     82921.71
 1421.26        3345.00           6810       17010.00     74297.55
 1421.29        3345.25           6814       14494.00     63288.97
 1421.33        3345.50           6818       11802.00     51517.56
 1421.36        3345.75           6822        9106.00     39736.16
 1421.40        3346.00           6825        7299.00     31843.85
 1421.46        3346.25           6829        4669.00     20362.98
 1421.49        3346.50           6833        2193.00      9560.88
 1421.52        3346.75           6837         850.00      3704.38
 1421.56        3347.00           6840         373.00      1624.74
 1421.59        3347.25           6844         133.00       578.47
 1421.65        3347.50           6848          78.00       338.71
 1421.69        3347.75           6852          58.00       251.53
 1421.72        3348.00           6855          63.00       273.32
 1421.76        3348.25           6859          60.00       260.25
 1421.80        3348.50           6863          56.00       242.81
 1421.85        3348.75           6867          52.00       225.37
 1421.88        3349.00           6870          53.00       229.73
 1421.92        3349.25           6874          53.00       229.73
 1421.95        3349.50           6878          55.00       238.45
 1422.00        3349.75           6882          46.00       199.22
 1422.04        3350.00           6885          55.00       238.45
 1422.08        3350.25           6889          59.00       255.89
 1422.11        3350.50           6893          52.00       225.37
 1422.15        3350.75           6897          56.00       242.81
 1422.18        3351.00           6900          48.00       207.93
HL scan finished at 23:43:23
end
