************************************************************
  HL Scan of (1) Internal mercury lamp
************************************************************
Integration time is 0.2294 seconds per sample
dh250117Sodankyla 67.3675-26.633 2.643241pr990
************************************************************
Dead Time -------------------------  2.7E-08 
Number of Cycles Used -------------  4 
Starting Wavelength (Angstroms) ---  3331 
Final Wavelength (Angstoms) -------  3351 
Wavelength Increment (Angstroms) --  .25 
Filter Wheel #1 Position ---------- (1) Ground quartz diffuser (ND=2.32)
Filter Wheel #2 Position ---------- 



************************************************************
HL scan start time = 23:41:03
Dark Count =  .2 


Time (GMT)  Wavelength (Ang)  Step Number  Raw Counts  Counts/Second

 1421.87        3331.00           6601          49.00       212.73
 1422.28        3331.25           6605          50.00       217.09
 1422.34        3331.50           6608          63.00       273.76
 1422.38        3331.75           6612          55.00       238.89
 1422.41        3332.00           6616          52.00       225.81
 1422.45        3332.25           6620          51.00       221.45
 1422.48        3332.50           6623          55.00       238.89
 1422.54        3332.75           6627          55.00       238.89
 1422.58        3333.00           6631          57.00       247.60
 1422.61        3333.25           6634          53.00       230.17
 1422.64        3333.50           6638          51.00       221.45
 1422.68        3333.75           6642          57.00       247.60
 1422.74        3334.00           6646          58.00       251.96
 1422.77        3334.25           6649          48.00       208.37
 1422.81        3334.50           6653          55.00       238.89
 1422.84        3334.75           6657          56.00       243.24
 1422.88        3335.00           6661          57.00       247.60
 1422.94        3335.25           6664          56.00       243.24
 1422.97        3335.50           6668          56.00       243.24
 1423.01        3335.75           6672          71.00       308.63
 1423.04        3336.00           6676          81.00       352.23
 1423.07        3336.25           6679         279.00      1215.38
 1423.13        3336.50           6683        1583.00      6901.02
 1423.17        3336.75           6687        3582.00     15620.36
 1423.20        3337.00           6691        6054.00     26408.54
 1423.24        3337.25           6694        8124.00     35447.16
 1423.27        3337.50           6698       10845.00     47335.09
 1423.33        3337.75           6702       13149.00     57407.14
 1423.37        3338.00           6705       15262.00     66649.04
 1423.40        3338.25           6709       17968.00     78491.38
 1423.44        3338.50           6713       20649.00     90231.78
 1423.47        3338.75           6717       23156.00    101217.00
 1423.53        3339.00           6720       25082.00    109660.70
 1423.57        3339.25           6724       27916.00    122092.30
 1423.60        3339.50           6728       30796.00    134734.30
 1423.64        3339.75           6732       33322.00    145829.40
 1423.67        3340.00           6735       35079.00    153550.70
 1423.73        3340.25           6739       37764.00    165356.50
 1423.77        3340.50           6743       40177.00    175972.70
 1423.80        3340.75           6747       42785.00    187453.80
 1423.84        3341.00           6750       44197.00    193672.70
 1423.88        3341.25           6754       45293.00    198501.30
 1423.93        3341.50           6758       45531.00    199550.10
 1423.97        3341.75           6762       45487.00    199356.10
 1424.00        3342.00           6765       45299.00    198527.80
 1424.04        3342.25           6769       43481.00    190518.90
 1424.10        3342.50           6773       41203.00    180488.60
 1424.13        3342.75           6777       38728.00    169597.00
 1424.16        3343.00           6780       36497.00    159784.60
 1424.20        3343.25           6784       34193.00    149656.70
 1424.23        3343.50           6788       31407.00    137417.40
 1424.29        3343.75           6792       28737.00    125695.30
 1424.33        3344.00           6795       26900.00    117634.60
 1424.37        3344.25           6799       24269.00    106096.00
 1424.40        3344.50           6803       21888.00     95660.01
 1424.44        3344.75           6807       19107.00     83478.28
 1424.50        3345.00           6810       16952.00     74044.13
 1424.53        3345.25           6814       14451.00     63101.32
 1424.57        3345.50           6818       11801.00     51513.63
 1424.60        3345.75           6822        9235.00     40300.15
 1424.64        3346.00           6825        7201.00     31416.35
 1424.69        3346.25           6829        4585.00     19996.84
 1424.73        3346.50           6833        2195.00      9570.04
 1424.76        3346.75           6837         821.00      3578.38
 1424.80        3347.00           6840         372.00      1620.82
 1424.83        3347.25           6844         122.00       530.96
 1424.89        3347.50           6848          64.00       278.12
 1424.93        3347.75           6852          58.00       251.96
 1424.96        3348.00           6855          64.00       278.12
 1425.00        3348.25           6859          58.00       251.96
 1425.05        3348.50           6863          53.00       230.17
 1425.09        3348.75           6867          51.00       221.45
 1425.12        3349.00           6870          57.00       247.60
 1425.16        3349.25           6874          50.00       217.09
 1425.19        3349.50           6878          54.00       234.53
 1425.25        3349.75           6882          47.00       204.01
 1425.29        3350.00           6885          53.00       230.17
 1425.32        3350.25           6889          53.00       230.17
 1425.36        3350.50           6893          55.00       238.89
 1425.39        3350.75           6897          47.00       204.01
 1425.45        3351.00           6900          57.00       247.60
HL scan finished at 23:46:38
end
