************************************************************
  HL Scan of (1) Internal mercury lamp
************************************************************
Integration time is 0.2294 seconds per sample
dh010217Sodankyla 67.3675-26.633 2.643241pr990
************************************************************
Dead Time -------------------------  2.7E-08 
Number of Cycles Used -------------  4 
Starting Wavelength (Angstroms) ---  3331 
Final Wavelength (Angstoms) -------  3351 
Wavelength Increment (Angstroms) --  .25 
Filter Wheel #1 Position ---------- (1) Ground quartz diffuser (ND=2.32)
Filter Wheel #2 Position ---------- 



************************************************************
HL scan start time = 23:38:55
Dark Count =  .1 


Time (GMT)  Wavelength (Ang)  Step Number  Raw Counts  Counts/Second

 1419.73        3331.00           6601          49.00       213.17
 1420.15        3331.25           6605          50.00       217.53
 1420.18        3331.50           6608          54.00       234.96
 1420.24        3331.75           6612          51.00       221.88
 1420.28        3332.00           6616          57.00       248.04
 1420.31        3332.25           6620          46.00       200.09
 1420.35        3332.50           6623          51.00       221.88
 1420.38        3332.75           6627          52.00       226.24
 1420.44        3333.00           6631          52.00       226.24
 1420.47        3333.25           6634          52.00       226.24
 1420.51        3333.50           6638          45.00       195.73
 1420.54        3333.75           6642          49.00       213.17
 1420.58        3334.00           6646          48.00       208.81
 1420.62        3334.25           6649          52.00       226.24
 1420.67        3334.50           6653          47.00       204.45
 1420.70        3334.75           6657          55.00       239.32
 1420.74        3335.00           6661          62.00       269.84
 1420.77        3335.25           6664          57.00       248.04
 1420.81        3335.50           6668          58.00       252.40
 1420.87        3335.75           6672          70.00       304.71
 1420.90        3336.00           6676          71.00       309.07
 1420.94        3336.25           6679         192.00       836.55
 1420.97        3336.50           6683        1353.00      5898.50
 1421.01        3336.75           6687        3234.00     14102.58
 1421.06        3337.00           6691        5636.00     24584.32
 1421.10        3337.25           6694        7723.00     33696.29
 1421.13        3337.50           6698       10146.00     44280.90
 1421.17        3337.75           6702       12840.00     56056.45
 1421.20        3338.00           6705       14900.00     65065.83
 1421.24        3338.25           6709       17481.00     76359.98
 1421.30        3338.50           6713       19948.00     87161.74
 1421.33        3338.75           6717       22457.00     98153.86
 1421.37        3339.00           6720       24574.00    107433.70
 1421.40        3339.25           6724       27143.00    118701.10
 1421.44        3339.50           6728       29870.00    130669.00
 1421.50        3339.75           6732       32358.00    141594.80
 1421.53        3340.00           6735       34296.00    150109.80
 1421.57        3340.25           6739       36842.00    161302.10
 1421.60        3340.50           6743       39584.00    173363.60
 1421.64        3340.75           6747       41885.00    183491.40
 1421.68        3341.00           6750       43091.00    188801.80
 1421.73        3341.25           6754       44568.00    195307.50
 1421.76        3341.50           6758       44912.00    196823.10
 1421.80        3341.75           6762       45251.00    198316.70
 1421.83        3342.00           6765       44796.00    196312.00
 1421.87        3342.25           6769       43276.00    189616.50
 1421.92        3342.50           6773       41060.00    179859.60
 1421.96        3342.75           6777       38428.00    168277.60
 1421.99        3343.00           6780       36441.00    159538.80
 1422.03        3343.25           6784       33968.00    148668.40
 1422.06        3343.50           6788       31364.00    137229.00
 1422.12        3343.75           6792       28829.00    126099.50
 1422.16        3344.00           6795       27033.00    118218.50
 1422.19        3344.25           6799       24342.00    106416.50
 1422.23        3344.50           6803       21710.00     94880.51
 1422.26        3344.75           6807       19311.00     84372.02
 1422.32        3345.00           6810       17084.00     74622.30
 1422.36        3345.25           6814       14757.00     64440.28
 1422.39        3345.50           6818       12127.00     52939.17
 1422.43        3345.75           6822        9704.00     42349.62
 1422.46        3346.00           6825        7503.00     32735.55
 1422.50        3346.25           6829        4936.00     21529.08
 1422.55        3346.50           6833        2505.00     10922.58
 1422.59        3346.75           6837         926.00      4036.62
 1422.62        3347.00           6840         443.00      1930.79
 1422.66        3347.25           6844         130.00       566.27
 1422.69        3347.50           6848          60.00       261.12
 1422.75        3347.75           6852          53.00       230.60
 1422.79        3348.00           6855          64.00       278.55
 1422.82        3348.25           6859          60.00       261.12
 1422.85        3348.50           6863          55.00       239.32
 1422.89        3348.75           6867          54.00       234.96
 1422.95        3349.00           6870          53.00       230.60
 1422.98        3349.25           6874          54.00       234.96
 1423.02        3349.50           6878          56.00       243.68
 1423.05        3349.75           6882          53.00       230.60
 1423.09        3350.00           6885          58.00       252.40
 1423.13        3350.25           6889          49.00       213.17
 1423.18        3350.50           6893          49.00       213.17
 1423.21        3350.75           6897          54.00       234.96
 1423.25        3351.00           6900          46.00       200.09
HL scan finished at 23:44:26
end
