************************************************************
  HL Scan of (1) Internal mercury lamp
************************************************************
Integration time is 0.2294 seconds per sample
dh150217Sodankyla 67.3675-26.633 2.643241pr990
************************************************************
Dead Time -------------------------  2.7E-08 
Number of Cycles Used -------------  4 
Starting Wavelength (Angstroms) ---  3331 
Final Wavelength (Angstoms) -------  3351 
Wavelength Increment (Angstroms) --  .25 
Filter Wheel #1 Position ---------- (1) Ground quartz diffuser (ND=2.32)
Filter Wheel #2 Position ---------- 



************************************************************
HL scan start time = 23:36:06
Dark Count =  .3 


Time (GMT)  Wavelength (Ang)  Step Number  Raw Counts  Counts/Second

 1416.90        3331.00           6601          50.00       216.65
 1417.32        3331.25           6605          59.00       255.89
 1417.36        3331.50           6608          49.00       212.29
 1417.41        3331.75           6612          55.00       238.45
 1417.45        3332.00           6616          47.00       203.58
 1417.48        3332.25           6620          50.00       216.65
 1417.52        3332.50           6623          45.00       194.86
 1417.55        3332.75           6627          56.00       242.81
 1417.60        3333.00           6631          47.00       203.58
 1417.65        3333.25           6634          56.00       242.81
 1417.68        3333.50           6638          47.00       203.58
 1417.72        3333.75           6642          48.00       207.93
 1417.75        3334.00           6646          48.00       207.93
 1417.79        3334.25           6649          50.00       216.65
 1417.84        3334.50           6653          54.00       234.09
 1417.88        3334.75           6657          52.00       225.37
 1417.91        3335.00           6661          61.00       264.61
 1417.95        3335.25           6664          64.00       277.68
 1417.98        3335.50           6668          59.00       255.89
 1418.04        3335.75           6672          59.00       255.89
 1418.07        3336.00           6676          66.00       286.40
 1418.11        3336.25           6679         166.00       722.33
 1418.14        3336.50           6683        1209.00      5269.71
 1418.18        3336.75           6687        3047.00     13285.93
 1418.23        3337.00           6691        5469.00     23854.51
 1418.27        3337.25           6694        7434.00     32433.36
 1418.31        3337.50           6698       10041.00     43821.22
 1418.34        3337.75           6702       12462.00     54402.87
 1418.38        3338.00           6705       14529.00     63442.06
 1418.41        3338.25           6709       17200.00     75129.15
 1418.47        3338.50           6713       19660.00     85899.52
 1418.51        3338.75           6717       22229.00     97153.81
 1418.54        3339.00           6720       24176.00    105687.80
 1418.58        3339.25           6724       26888.00    117581.50
 1418.62        3339.50           6728       29534.00    129193.10
 1418.65        3339.75           6732       32102.00    140469.40
 1418.71        3340.00           6735       33955.00    148610.40
 1418.74        3340.25           6739       36405.00    159379.70
 1418.78        3340.50           6743       39184.00    171602.80
 1418.81        3340.75           6747       41542.00    181980.50
 1418.85        3341.00           6750       43341.00    189901.90
 1418.91        3341.25           6754       44189.00    193637.00
 1418.94        3341.50           6758       44642.00    195632.60
 1418.98        3341.75           6762       45001.00    197214.30
 1419.01        3342.00           6765       44616.00    195518.10
 1419.05        3342.25           6769       43080.00    188752.40
 1419.11        3342.50           6773       40704.00    178291.70
 1419.14        3342.75           6777       38332.00    167854.50
 1419.18        3343.00           6780       36407.00    159388.50
 1419.21        3343.25           6784       34016.00    148878.40
 1419.25        3343.50           6788       31629.00    138391.90
 1419.29        3343.75           6792       28919.00    126493.60
 1419.34        3344.00           6795       27064.00    118353.60
 1419.38        3344.25           6799       24465.00    106954.90
 1419.41        3344.50           6803       21938.00     95878.66
 1419.45        3344.75           6807       19314.00     84384.28
 1419.48        3345.00           6810       17334.00     75715.66
 1419.54        3345.25           6814       14783.00     64553.14
 1419.58        3345.50           6818       12179.00     53165.63
 1419.61        3345.75           6822        9616.00     41964.26
 1419.65        3346.00           6825        7658.00     33411.56
 1419.68        3346.25           6829        4975.00     21698.41
 1419.74        3346.50           6833        2611.00     11384.06
 1419.78        3346.75           6837        1011.00      4406.37
 1419.81        3347.00           6840         445.00      1938.64
 1419.85        3347.25           6844         142.00       617.71
 1419.88        3347.50           6848          64.00       277.68
 1419.94        3347.75           6852          59.00       255.89
 1419.97        3348.00           6855          62.00       268.96
 1420.01        3348.25           6859          59.00       255.89
 1420.04        3348.50           6863          52.00       225.37
 1420.08        3348.75           6867          55.00       238.45
 1420.14        3349.00           6870          51.00       221.01
 1420.17        3349.25           6874          50.00       216.65
 1420.21        3349.50           6878          51.00       221.01
 1420.24        3349.75           6882          57.00       247.17
 1420.27        3350.00           6885          52.00       225.37
 1420.31        3350.25           6889          52.00       225.37
 1420.37        3350.50           6893          54.00       234.09
 1420.40        3350.75           6897          54.00       234.09
 1420.44        3351.00           6900          56.00       242.81
HL scan finished at 23:41:37
end
