************************************************************
  HL Scan of (1) Internal mercury lamp
************************************************************
Integration time is 0.2294 seconds per sample
dh080217Sodankyla 67.3675-26.633 2.643241pr990
************************************************************
Dead Time -------------------------  2.7E-08 
Number of Cycles Used -------------  4 
Starting Wavelength (Angstroms) ---  3331 
Final Wavelength (Angstoms) -------  3351 
Wavelength Increment (Angstroms) --  .25 
Filter Wheel #1 Position ---------- (1) Ground quartz diffuser (ND=2.32)
Filter Wheel #2 Position ---------- 



************************************************************
HL scan start time = 23:48:24
Dark Count =  .1 


Time (GMT)  Wavelength (Ang)  Step Number  Raw Counts  Counts/Second

 1429.21        3331.00           6601          52.00       226.24
 1429.63        3331.25           6605          50.00       217.53
 1429.68        3331.50           6608          43.00       187.01
 1429.72        3331.75           6612          54.00       234.96
 1429.75        3332.00           6616          52.00       226.24
 1429.79        3332.25           6620          52.00       226.24
 1429.82        3332.50           6623          54.00       234.96
 1429.88        3332.75           6627          47.00       204.45
 1429.92        3333.00           6631          52.00       226.24
 1429.95        3333.25           6634          51.00       221.88
 1429.99        3333.50           6638          51.00       221.88
 1430.02        3333.75           6642          51.00       221.88
 1430.08        3334.00           6646          51.00       221.88
 1430.11        3334.25           6649          48.00       208.81
 1430.15        3334.50           6653          48.00       208.81
 1430.18        3334.75           6657          50.00       217.53
 1430.22        3335.00           6661          54.00       234.96
 1430.28        3335.25           6664          66.00       287.27
 1430.31        3335.50           6668          58.00       252.40
 1430.34        3335.75           6672          65.00       282.91
 1430.38        3336.00           6676          82.00       357.02
 1430.41        3336.25           6679         251.00      1093.76
 1430.47        3336.50           6683        1510.00      6583.12
 1430.51        3336.75           6687        3465.00     15110.35
 1430.54        3337.00           6691        5861.00     25566.47
 1430.58        3337.25           6694        7800.00     34032.57
 1430.61        3337.50           6698       10453.00     45622.42
 1430.67        3337.75           6702       12831.00     56017.10
 1430.71        3338.00           6705       14860.00     64890.84
 1430.74        3338.25           6709       17555.00     76683.90
 1430.78        3338.50           6713       19880.00     86863.91
 1430.81        3338.75           6717       22460.00     98167.01
 1430.87        3339.00           6720       24384.00    106600.60
 1430.91        3339.25           6724       27189.00    118902.90
 1430.94        3339.50           6728       29907.00    130831.50
 1430.98        3339.75           6732       32316.00    141410.30
 1431.01        3340.00           6735       34000.00    148809.00
 1431.07        3340.25           6739       36701.00    160682.10
 1431.10        3340.50           6743       39132.00    171374.80
 1431.14        3340.75           6747       41553.00    182029.80
 1431.17        3341.00           6750       42980.00    188312.90
 1431.22        3341.25           6754       44329.00    194254.60
 1431.27        3341.50           6758       44515.00    195074.00
 1431.30        3341.75           6762       44644.00    195642.30
 1431.34        3342.00           6765       44274.00    194012.40
 1431.37        3342.25           6769       42699.00    187075.50
 1431.41        3342.50           6773       40220.00    176162.40
 1431.44        3342.75           6777       37799.00    165510.90
 1431.48        3343.00           6780       35855.00    156962.40
 1431.51        3343.25           6784       33386.00    146111.00
 1431.55        3343.50           6788       30897.00    135178.20
 1431.59        3343.75           6792       28286.00    123716.40
 1431.64        3344.00           6795       26302.00    115011.80
 1431.67        3344.25           6799       23763.00    103878.10
 1431.71        3344.50           6803       21209.00     92685.46
 1431.74        3344.75           6807       18777.00     82033.73
 1431.78        3345.00           6810       16864.00     73659.43
 1431.81        3345.25           6814       14305.00     62463.15
 1431.85        3345.50           6818       11653.00     50867.12
 1431.89        3345.75           6822        9153.00     39942.36
 1431.92        3346.00           6825        7307.00     31879.65
 1431.98        3346.25           6829        4561.00     19892.55
 1432.01        3346.50           6833        2244.00      9784.19
 1432.05        3346.75           6837         841.00      3666.01
 1432.08        3347.00           6840         393.00      1712.81
 1432.12        3347.25           6844         132.00       574.99
 1432.16        3347.50           6848          76.00       330.87
 1432.21        3347.75           6852          57.00       248.04
 1432.24        3348.00           6855          68.00       295.99
 1432.28        3348.25           6859          50.00       217.53
 1432.31        3348.50           6863          53.00       230.60
 1432.37        3348.75           6867          51.00       221.88
 1432.41        3349.00           6870          57.00       248.04
 1432.44        3349.25           6874          52.00       226.24
 1432.48        3349.50           6878          54.00       234.96
 1432.51        3349.75           6882          51.00       221.88
 1432.57        3350.00           6885          50.00       217.53
 1432.60        3350.25           6889          52.00       226.24
 1432.64        3350.50           6893          44.00       191.37
 1432.67        3350.75           6897          53.00       230.60
 1432.71        3351.00           6900          58.00       252.40
HL scan finished at 23:53:55
end
