************************************************************
  HL Scan of (1) Internal mercury lamp
************************************************************
Integration time is 0.2294 seconds per sample
dh080219Sodankyla 67.3675-26.633 2.482296pr990
************************************************************
Dead Time -------------------------  2.7E-08 
Number of Cycles Used -------------  4 
Starting Wavelength (Angstroms) ---  3331 
Final Wavelength (Angstoms) -------  3351 
Wavelength Increment (Angstroms) --  .25 
Filter Wheel #1 Position ---------- (1) Ground quartz diffuser (ND=2.32)
Filter Wheel #2 Position ---------- 



************************************************************
HL scan start time = 23:20:04
Dark Count =  .1 


Time (GMT)  Wavelength (Ang)  Step Number  Raw Counts  Counts/Second

 1400.90        3331.00           6601          52.00       226.24
 1401.31        3331.25           6605          54.00       234.96
 1401.34        3331.50           6608          56.00       243.68
 1401.38        3331.75           6612          64.00       278.55
 1401.41        3332.00           6616          58.00       252.40
 1401.44        3332.25           6620          54.00       234.96
 1401.47        3332.50           6623          60.00       261.12
 1401.50        3332.75           6627          56.00       243.68
 1401.53        3333.00           6631          65.00       282.91
 1401.56        3333.25           6634          57.00       248.04
 1401.59        3333.50           6638          65.00       282.91
 1401.62        3333.75           6642          52.00       226.24
 1401.65        3334.00           6646          56.00       243.68
 1401.68        3334.25           6649          53.00       230.60
 1401.71        3334.50           6653          58.00       252.40
 1401.74        3334.75           6657          57.00       248.04
 1401.77        3335.00           6661          65.00       282.91
 1401.81        3335.25           6664          66.00       287.27
 1401.84        3335.50           6668          66.00       287.27
 1401.86        3335.75           6672          67.00       291.63
 1401.89        3336.00           6676          69.00       300.35
 1401.92        3336.25           6679         122.00       531.39
 1401.96        3336.50           6683         719.00      3134.09
 1401.99        3336.75           6687        1791.00      7808.53
 1402.02        3337.00           6691        3281.00     14307.62
 1402.05        3337.25           6694        4431.00     19325.25
 1402.08        3337.50           6698        6024.00     26278.01
 1402.11        3337.75           6702        7552.00     32949.53
 1402.14        3338.00           6705        8791.00     38360.99
 1402.17        3338.25           6709       10388.00     45338.38
 1402.20        3338.50           6713       12057.00     52633.16
 1402.23        3338.75           6717       13657.00     59629.06
 1402.27        3339.00           6720       14936.00     65223.31
 1402.30        3339.25           6724       16520.00     72153.95
 1402.32        3339.50           6728       18228.00     79630.05
 1402.35        3339.75           6732       19925.00     87061.00
 1402.39        3340.00           6735       21091.00     92168.49
 1402.42        3340.25           6739       22574.00     98666.60
 1402.45        3340.50           6743       24138.00    105522.10
 1402.48        3340.75           6747       25828.00    112932.80
 1402.51        3341.00           6750       26738.00    116924.40
 1402.54        3341.25           6754       27923.00    122123.50
 1402.57        3341.50           6758       28263.00    123615.50
 1402.60        3341.75           6762       28282.00    123698.90
 1402.63        3342.00           6765       28451.00    124440.50
 1402.66        3342.25           6769       27417.00    119903.20
 1402.69        3342.50           6773       26173.00    114446.00
 1402.72        3342.75           6777       24853.00    108657.00
 1402.75        3343.00           6780       23515.00    102791.00
 1402.78        3343.25           6784       21825.00     95384.40
 1402.81        3343.50           6788       20203.00     88278.61
 1402.85        3343.75           6792       18761.00     81963.66
 1402.88        3344.00           6795       17329.00     75694.66
 1402.91        3344.25           6799       15746.00     68767.06
 1402.94        3344.50           6803       14086.00     61505.28
 1402.97        3344.75           6807       12458.00     54386.26
 1403.00        3345.00           6810       11257.00     49136.20
 1403.03        3345.25           6814        9638.00     42061.26
 1403.06        3345.50           6818        8082.00     35264.17
 1403.09        3345.75           6822        6360.00     27744.84
 1403.12        3346.00           6825        5152.00     22471.78
 1403.16        3346.25           6829        3575.00     15590.26
 1403.19        3346.50           6833        2120.00      9243.37
 1403.21        3346.75           6837         889.00      3875.30
 1403.24        3347.00           6840         407.00      1773.84
 1403.27        3347.25           6844         148.00       644.74
 1403.31        3347.50           6848          77.00       335.23
 1403.34        3347.75           6852          66.00       287.27
 1403.37        3348.00           6855          64.00       278.55
 1403.40        3348.25           6859          75.00       326.51
 1403.43        3348.50           6863          64.00       278.55
 1403.46        3348.75           6867          62.00       269.84
 1403.49        3349.00           6870          59.00       256.76
 1403.52        3349.25           6874          60.00       261.12
 1403.55        3349.50           6878          64.00       278.55
 1403.58        3349.75           6882          65.00       282.91
 1403.61        3350.00           6885          61.00       265.48
 1403.64        3350.25           6889          59.00       256.76
 1403.67        3350.50           6893          56.00       243.68
 1403.70        3350.75           6897          62.00       269.84
 1403.73        3351.00           6900          46.00       200.09
HL scan finished at 23:24:54
end
