************************************************************
  HL Scan of (1) Internal mercury lamp
************************************************************
Integration time is 0.2294 seconds per sample
dh220217Sodankyla 67.3675-26.633 2.589593pr990
************************************************************
Dead Time -------------------------  2.7E-08 
Number of Cycles Used -------------  4 
Starting Wavelength (Angstroms) ---  3331 
Final Wavelength (Angstoms) -------  3351 
Wavelength Increment (Angstroms) --  .25 
Filter Wheel #1 Position ---------- (1) Ground quartz diffuser (ND=2.32)
Filter Wheel #2 Position ---------- 



************************************************************
HL scan start time = 23:47:56
Dark Count =  .3 


Time (GMT)  Wavelength (Ang)  Step Number  Raw Counts  Counts/Second

 1428.76        3331.00           6601          49.00       212.29
 1429.19        3331.25           6605          52.00       225.37
 1429.22        3331.50           6608          50.00       216.65
 1429.27        3331.75           6612          42.00       181.78
 1429.32        3332.00           6616          47.00       203.58
 1429.35        3332.25           6620          53.00       229.73
 1429.40        3332.50           6623          51.00       221.01
 1429.44        3332.75           6627          56.00       242.81
 1429.48        3333.00           6631          48.00       207.93
 1429.54        3333.25           6634          53.00       229.73
 1429.57        3333.50           6638          47.00       203.58
 1429.61        3333.75           6642          61.00       264.61
 1429.67        3334.00           6646          51.00       221.01
 1429.70        3334.25           6649          47.00       203.58
 1429.74        3334.50           6653          54.00       234.09
 1429.80        3334.75           6657          50.00       216.65
 1429.83        3335.00           6661          57.00       247.17
 1429.87        3335.25           6664          63.00       273.32
 1429.93        3335.50           6668          61.00       264.61
 1429.96        3335.75           6672          58.00       251.53
 1430.00        3336.00           6676          76.00       329.99
 1430.06        3336.25           6679         299.00      1302.14
 1430.09        3336.50           6683        1637.00      7136.07
 1430.13        3336.75           6687        3615.00     15763.90
 1430.18        3337.00           6691        6148.00     26818.45
 1430.22        3337.25           6694        8070.00     35210.88
 1430.25        3337.50           6698       10678.00     46604.82
 1430.31        3337.75           6702       13186.00     57568.49
 1430.35        3338.00           6705       15195.00     66355.48
 1430.38        3338.25           6709       17930.00     78324.58
 1430.45        3338.50           6713       20536.00     89736.34
 1430.48        3338.75           6717       23041.00    100712.50
 1430.52        3339.00           6720       25087.00    109682.20
 1430.58        3339.25           6724       27686.00    121082.60
 1430.61        3339.50           6728       30416.00    133065.30
 1430.65        3339.75           6732       33047.00    144620.70
 1430.71        3340.00           6735       35112.00    153695.30
 1430.74        3340.25           6739       37544.00    164388.40
 1430.79        3340.50           6743       39917.00    174828.10
 1430.84        3340.75           6747       42766.00    187369.70
 1430.87        3341.00           6750       43947.00    192571.00
 1430.91        3341.25           6754       44833.00    196474.10
 1430.96        3341.50           6758       45281.00    198448.00
 1431.00        3341.75           6762       45385.00    198906.30
 1431.03        3342.00           6765       44823.00    196430.10
 1431.09        3342.25           6769       42991.00    188360.50
 1431.13        3342.50           6773       40740.00    178450.20
 1431.16        3342.75           6777       38113.00    166891.10
 1431.22        3343.00           6780       36189.00    158430.00
 1431.26        3343.25           6784       33914.00    148430.20
 1431.29        3343.50           6788       31131.00    136204.90
 1431.35        3343.75           6792       28549.00    124869.70
 1431.39        3344.00           6795       26550.00    116098.80
 1431.42        3344.25           6799       23965.00    104762.80
 1431.48        3344.50           6803       21289.00     93035.06
 1431.52        3344.75           6807       18828.00     82256.15
 1431.55        3345.00           6810       16879.00     73724.21
 1431.61        3345.25           6814       14193.00     61972.40
 1431.65        3345.50           6818       11517.00     50271.77
 1431.68        3345.75           6822        8979.00     39181.36
 1431.74        3346.00           6825        6945.00     30298.10
 1431.78        3346.25           6829        4467.00     19481.48
 1431.81        3346.50           6833        1988.00      8666.81
 1431.87        3346.75           6837         762.00      3320.70
 1431.91        3347.00           6840         330.00      1437.28
 1431.94        3347.25           6844         126.00       547.96
 1432.00        3347.50           6848          57.00       247.17
 1432.04        3347.75           6852          63.00       273.32
 1432.07        3348.00           6855          58.00       251.53
 1432.13        3348.25           6859          52.00       225.37
 1432.16        3348.50           6863          50.00       216.65
 1432.20        3348.75           6867          56.00       242.81
 1432.26        3349.00           6870          60.00       260.25
 1432.29        3349.25           6874          63.00       273.32
 1432.33        3349.50           6878          49.00       212.29
 1432.39        3349.75           6882          54.00       234.09
 1432.42        3350.00           6885          44.00       190.50
 1432.45        3350.25           6889          55.00       238.45
 1432.51        3350.50           6893          52.00       225.37
 1432.55        3350.75           6897          48.00       207.93
 1432.58        3351.00           6900          42.00       181.78
HL scan finished at 23:53:48
end
