************************************************************
  HL Scan of (1) Internal mercury lamp
************************************************************
Integration time is 0.2294 seconds per sample
dh080317Sodankyla 67.3675-26.633 2.535944pr990
************************************************************
Dead Time -------------------------  2.7E-08 
Number of Cycles Used -------------  4 
Starting Wavelength (Angstroms) ---  3331 
Final Wavelength (Angstoms) -------  3351 
Wavelength Increment (Angstroms) --  .25 
Filter Wheel #1 Position ---------- (1) Ground quartz diffuser (ND=2.32)
Filter Wheel #2 Position ---------- 



************************************************************
HL scan start time = 23:41:16
Dark Count =  .4 


Time (GMT)  Wavelength (Ang)  Step Number  Raw Counts  Counts/Second

 1422.08        3331.00           6601          43.00       185.70
 1422.52        3331.25           6605          53.00       229.30
 1422.55        3331.50           6608          48.00       207.50
 1422.59        3331.75           6612          53.00       229.30
 1422.65        3332.00           6616          45.00       194.42
 1422.68        3332.25           6620          53.00       229.30
 1422.72        3332.50           6623          53.00       229.30
 1422.78        3332.75           6627          41.00       176.98
 1422.81        3333.00           6631          47.00       203.14
 1422.84        3333.25           6634          44.00       190.06
 1422.89        3333.50           6638          47.00       203.14
 1422.94        3333.75           6642          49.00       211.86
 1422.97        3334.00           6646          51.00       220.58
 1423.01        3334.25           6649          45.00       194.42
 1423.07        3334.50           6653          50.00       216.22
 1423.10        3334.75           6657          56.00       242.37
 1423.13        3335.00           6661          52.00       224.94
 1423.19        3335.25           6664          55.00       238.01
 1423.23        3335.50           6668          58.00       251.09
 1423.26        3335.75           6672          65.00       281.61
 1423.30        3336.00           6676          94.00       408.03
 1423.36        3336.25           6679         325.00      1415.05
 1423.39        3336.50           6683        1679.00      7318.80
 1423.42        3336.75           6687        3623.00     15798.37
 1423.48        3337.00           6691        6080.00     26521.17
 1423.52        3337.25           6694        8045.00     35101.26
 1423.55        3337.50           6698       10472.00     45704.14
 1423.61        3337.75           6702       13034.00     56903.40
 1423.65        3338.00           6705       14925.00     65173.87
 1423.68        3338.25           6709       17486.00     76380.54
 1423.72        3338.50           6713       19993.00     87357.50
 1423.78        3338.75           6717       22584.00     98709.11
 1423.81        3339.00           6720       24673.00    107866.50
 1423.85        3339.25           6724       27076.00    118405.80
 1423.91        3339.50           6728       29786.00    130298.90
 1423.94        3339.75           6732       32027.00    140139.60
 1423.98        3340.00           6735       34013.00    148864.80
 1424.03        3340.25           6739       36772.00    160993.00
 1424.07        3340.50           6743       39123.00    171333.90
 1424.10        3340.75           6747       41565.00    182081.30
 1424.16        3341.00           6750       42786.00    187457.30
 1424.20        3341.25           6754       43915.00    192429.60
 1424.23        3341.50           6758       44112.00    193297.40
 1424.27        3341.75           6762       44107.00    193275.40
 1424.32        3342.00           6765       43489.00    190553.30
 1424.36        3342.25           6769       41777.00    183014.60
 1424.39        3342.50           6773       39589.00    173384.30
 1424.45        3342.75           6777       37029.00    162123.10
 1424.49        3343.00           6780       35201.00    154086.10
 1424.52        3343.25           6784       32687.00    143038.70
 1424.56        3343.50           6788       30496.00    133416.10
 1424.59        3343.75           6792       27689.00    121095.40
 1424.63        3344.00           6795       26052.00    113913.90
 1424.66        3344.25           6799       23527.00    102842.30
 1424.72        3344.50           6803       20874.00     91216.53
 1424.76        3344.75           6807       18186.00     79444.86
 1424.79        3345.00           6810       16331.00     71325.55
 1424.85        3345.25           6814       13955.00     60931.03
 1424.89        3345.50           6818       11321.00     49414.62
 1424.92        3345.75           6822        8872.00     38713.51
 1424.96        3346.00           6825        6757.00     29476.81
 1425.01        3346.25           6829        4262.00     18586.49
 1425.05        3346.50           6833        1980.00      8631.48
 1425.08        3346.75           6837         736.00      3206.90
 1425.14        3347.00           6840         335.00      1458.65
 1425.18        3347.25           6844         105.00       455.98
 1425.21        3347.50           6848          58.00       251.09
 1425.26        3347.75           6852          61.00       264.17
 1425.30        3348.00           6855          56.00       242.37
 1425.34        3348.25           6859          60.00       259.81
 1425.37        3348.50           6863          48.00       207.50
 1425.43        3348.75           6867          50.00       216.22
 1425.46        3349.00           6870          54.00       233.65
 1425.50        3349.25           6874          49.00       211.86
 1425.55        3349.50           6878          42.00       181.34
 1425.59        3349.75           6882          41.00       176.98
 1425.63        3350.00           6885          52.00       224.94
 1425.66        3350.25           6889          53.00       229.30
 1425.72        3350.50           6893          53.00       229.30
 1425.75        3350.75           6897          52.00       224.94
 1425.79        3351.00           6900          51.00       220.58
HL scan finished at 23:47:00
end
