************************************************************
  HL Scan of (1) Internal mercury lamp
************************************************************
Integration time is 0.2294 seconds per sample
dh290517El Arenosillo 37.1 6.73 3.072425pr1000
************************************************************
Dead Time -------------------------  2.7E-08 
Number of Cycles Used -------------  4 
Starting Wavelength (Angstroms) ---  3331 
Final Wavelength (Angstoms) -------  3351 
Wavelength Increment (Angstroms) --  .25 
Filter Wheel #1 Position ---------- (1) Ground quartz diffuser (ND=2.32)
Filter Wheel #2 Position ---------- 



************************************************************
HL scan start time = 20:34:34
Dark Count =  .5 


Time (GMT)  Wavelength (Ang)  Step Number  Raw Counts  Counts/Second

 1235.79        3331.00           6601          51.00       220.14
 1236.59        3331.25           6605          47.00       202.70
 1236.62        3331.50           6608          55.00       237.58
 1236.65        3331.75           6612          56.00       241.94
 1236.68        3332.00           6616          59.00       255.01
 1236.71        3332.25           6620          49.00       211.42
 1236.74        3332.50           6623          50.00       215.78
 1236.77        3332.75           6627          52.00       224.50
 1236.80        3333.00           6631          47.00       202.70
 1236.83        3333.25           6634          55.00       237.58
 1236.86        3333.50           6638          47.00       202.70
 1236.89        3333.75           6642          53.00       228.86
 1236.92        3334.00           6646          51.00       220.14
 1236.95        3334.25           6649          55.00       237.58
 1236.98        3334.50           6653          44.00       189.63
 1237.01        3334.75           6657          58.00       250.66
 1237.04        3335.00           6661          52.00       224.50
 1237.07        3335.25           6664          53.00       228.86
 1237.10        3335.50           6668          67.00       289.89
 1237.13        3335.75           6672          56.00       241.94
 1237.17        3336.00           6676          84.00       364.00
 1237.20        3336.25           6679         349.00      1519.24
 1237.23        3336.50           6683        1856.00      8090.26
 1237.26        3336.75           6687        4192.00     18280.60
 1237.29        3337.00           6691        6961.00     30367.09
 1237.32        3337.25           6694        9164.00     39988.67
 1237.35        3337.50           6698       12146.00     53020.49
 1237.38        3337.75           6702       15009.00     65540.91
 1237.41        3338.00           6705       17364.00     75846.10
 1237.44        3338.25           6709       20545.00     89774.89
 1237.47        3338.50           6713       23586.00    103100.50
 1237.50        3338.75           6717       26348.00    115211.80
 1237.53        3339.00           6720       28541.00    124833.70
 1237.56        3339.25           6724       31529.00    137951.90
 1237.59        3339.50           6728       34695.00    151861.60
 1237.63        3339.75           6732       37595.00    164611.90
 1237.66        3340.00           6735       39766.00    174162.70
 1237.69        3340.25           6739       42668.00    186937.20
 1237.72        3340.50           6743       45800.00    200734.10
 1237.75        3340.75           6747       48389.00    212146.80
 1237.78        3341.00           6750       50031.00    219388.60
 1237.81        3341.25           6754       50869.00    223085.60
 1237.84        3341.50           6758       51455.00    225671.20
 1237.87        3341.75           6762       51715.00    226818.60
 1237.90        3342.00           6765       51169.00    224409.20
 1237.93        3342.25           6769       48888.00    214347.20
 1237.96        3342.50           6773       46465.00    203664.80
 1237.99        3342.75           6777       43746.00    191684.80
 1238.02        3343.00           6780       41521.00    181887.10
 1238.05        3343.25           6784       38736.00    169630.90
 1238.08        3343.50           6788       35555.00    155641.80
 1238.12        3343.75           6792       32537.00    142379.40
 1238.15        3344.00           6795       30412.00    133046.80
 1238.18        3344.25           6799       27532.00    120406.10
 1238.21        3344.50           6803       24489.00    107059.20
 1238.24        3344.75           6807       21457.00     93770.24
 1238.27        3345.00           6810       19347.00     84527.92
 1238.30        3345.25           6814       16317.00     71263.84
 1238.33        3345.50           6818       13285.00     58000.53
 1238.36        3345.75           6822       10424.00     45493.95
 1238.39        3346.00           6825        7962.00     34738.32
 1238.42        3346.25           6829        5152.00     22470.04
 1238.45        3346.50           6833        2432.00     10602.43
 1238.48        3346.75           6837         907.00      3952.03
 1238.52        3347.00           6840         419.00      1824.41
 1238.55        3347.25           6844         122.00       529.65
 1238.58        3347.50           6848          71.00       307.33
 1238.61        3347.75           6852          64.00       276.81
 1238.64        3348.00           6855          59.00       255.01
 1238.67        3348.25           6859          54.00       233.22
 1238.70        3348.50           6863          57.00       246.30
 1238.73        3348.75           6867          53.00       228.86
 1238.76        3349.00           6870          53.00       228.86
 1238.79        3349.25           6874          53.00       228.86
 1238.82        3349.50           6878          48.00       207.06
 1238.85        3349.75           6882          44.00       189.63
 1238.88        3350.00           6885          46.00       198.34
 1238.91        3350.25           6889          53.00       228.86
 1238.94        3350.50           6893          56.00       241.94
 1238.97        3350.75           6897          49.00       211.42
 1239.00        3351.00           6900          49.00       211.42
HL scan finished at 20:40:11
end
