************************************************************
  HL Scan of (1) Internal mercury lamp
************************************************************
Integration time is 0.2294 seconds per sample
dh310517El Arenosillo 37.1 6.73 3.072425pr1000
************************************************************
Dead Time -------------------------  2.7E-08 
Number of Cycles Used -------------  4 
Starting Wavelength (Angstroms) ---  3331 
Final Wavelength (Angstoms) -------  3351 
Wavelength Increment (Angstroms) --  .25 
Filter Wheel #1 Position ---------- (1) Ground quartz diffuser (ND=2.32)
Filter Wheel #2 Position ---------- 



************************************************************
HL scan start time = 21:55:08
Dark Count =  .3 


Time (GMT)  Wavelength (Ang)  Step Number  Raw Counts  Counts/Second

 1316.36        3331.00           6601          50.00       216.65
 1317.16        3331.25           6605          53.00       229.73
 1317.19        3331.50           6608          55.00       238.45
 1317.22        3331.75           6612          56.00       242.81
 1317.25        3332.00           6616          59.00       255.89
 1317.28        3332.25           6620          51.00       221.01
 1317.31        3332.50           6623          56.00       242.81
 1317.34        3332.75           6627          51.00       221.01
 1317.37        3333.00           6631          43.00       186.14
 1317.40        3333.25           6634          47.00       203.58
 1317.43        3333.50           6638          57.00       247.17
 1317.46        3333.75           6642          45.00       194.86
 1317.49        3334.00           6646          56.00       242.81
 1317.52        3334.25           6649          50.00       216.65
 1317.56        3334.50           6653          59.00       255.89
 1317.59        3334.75           6657          51.00       221.01
 1317.62        3335.00           6661          55.00       238.45
 1317.65        3335.25           6664          56.00       242.81
 1317.68        3335.50           6668          60.00       260.25
 1317.71        3335.75           6672          65.00       282.04
 1317.74        3336.00           6676         101.00       438.98
 1317.77        3336.25           6679         562.00      2448.72
 1317.80        3336.50           6683        2325.00     10136.60
 1317.83        3336.75           6687        4879.00     21279.44
 1317.86        3337.00           6691        7861.00     34298.10
 1317.89        3337.25           6694       10281.00     44869.94
 1317.92        3337.50           6698       13447.00     58709.82
 1317.95        3337.75           6702       16572.00     72380.63
 1317.98        3338.00           6705       19124.00     83552.27
 1318.01        3338.25           6709       22469.00     98205.56
 1318.04        3338.50           6713       25592.00    111896.80
 1318.08        3338.75           6717       28714.00    125593.90
 1318.11        3339.00           6720       31311.00    136995.30
 1318.14        3339.25           6724       34390.00    150522.00
 1318.17        3339.50           6728       37655.00    164876.70
 1318.20        3339.75           6732       40892.00    179119.20
 1318.23        3340.00           6735       43074.00    188726.00
 1318.26        3340.25           6739       46317.00    203013.40
 1318.29        3340.50           6743       49328.00    216288.60
 1318.32        3340.75           6747       52310.00    229445.40
 1318.35        3341.00           6750       53624.00    235245.80
 1318.38        3341.25           6754       54924.00    240986.20
 1318.41        3341.50           6758       55102.00    241772.40
 1318.44        3341.75           6762       55128.00    241887.20
 1318.48        3342.00           6765       54297.00    238217.30
 1318.50        3342.25           6769       52327.00    229520.40
 1318.53        3342.50           6773       49502.00    217056.10
 1318.57        3342.75           6777       46433.00    203524.70
 1318.60        3343.00           6780       44027.00    192923.40
 1318.63        3343.25           6784       40724.00    178379.70
 1318.66        3343.50           6788       37767.00    165369.30
 1318.69        3343.75           6792       34407.00    150596.70
 1318.72        3344.00           6795       32147.00    140667.10
 1318.75        3344.25           6799       28928.00    126533.10
 1318.78        3344.50           6803       25605.00    111953.90
 1318.81        3344.75           6807       22585.00     98713.93
 1318.84        3345.00           6810       20111.00     87874.78
 1318.87        3345.25           6814       17024.00     74358.82
 1318.90        3345.50           6818       13770.00     60122.37
 1318.93        3345.75           6822       10584.00     46194.03
 1318.97        3346.00           6825        8045.00     35101.69
 1319.00        3346.25           6829        4841.00     21113.60
 1319.03        3346.50           6833        2337.00     10188.94
 1319.06        3346.75           6837         840.00      3660.78
 1319.09        3347.00           6840         366.00      1594.23
 1319.12        3347.25           6844         114.00       495.65
 1319.15        3347.50           6848          70.00       303.84
 1319.18        3347.75           6852          66.00       286.40
 1319.21        3348.00           6855          54.00       234.09
 1319.24        3348.25           6859          58.00       251.53
 1319.27        3348.50           6863          60.00       260.25
 1319.30        3348.75           6867          57.00       247.17
 1319.33        3349.00           6870          46.00       199.22
 1319.36        3349.25           6874          55.00       238.45
 1319.39        3349.50           6878          53.00       229.73
 1319.42        3349.75           6882          53.00       229.73
 1319.45        3350.00           6885          54.00       234.09
 1319.48        3350.25           6889          58.00       251.53
 1319.51        3350.50           6893          51.00       221.01
 1319.54        3350.75           6897          50.00       216.65
 1319.58        3351.00           6900          53.00       229.73
HL scan finished at 22:00:45
end
