************************************************************
  HL Scan of (1) Internal mercury lamp
************************************************************
Integration time is 0.2294 seconds per sample
dh300517El Arenosillo 37.1 6.73 2.911481pr1000
************************************************************
Dead Time -------------------------  2.7E-08 
Number of Cycles Used -------------  4 
Starting Wavelength (Angstroms) ---  3331 
Final Wavelength (Angstoms) -------  3351 
Wavelength Increment (Angstroms) --  .25 
Filter Wheel #1 Position ---------- (1) Ground quartz diffuser (ND=2.32)
Filter Wheel #2 Position ---------- 



************************************************************
HL scan start time = 03:43:20
Dark Count =  .6 


Time (GMT)  Wavelength (Ang)  Step Number  Raw Counts  Counts/Second

  224.57        3331.00           6601          50.00       215.35
  225.36        3331.25           6605          45.00       193.55
  225.39        3331.50           6608          47.00       202.27
  225.42        3331.75           6612          49.00       210.99
  225.45        3332.00           6616          46.00       197.91
  225.48        3332.25           6620          47.00       202.27
  225.52        3332.50           6623          49.00       210.99
  225.55        3332.75           6627          52.00       224.06
  225.58        3333.00           6631          52.00       224.06
  225.61        3333.25           6634          48.00       206.63
  225.64        3333.50           6638          53.00       228.42
  225.67        3333.75           6642          43.00       184.83
  225.70        3334.00           6646          52.00       224.06
  225.73        3334.25           6649          56.00       241.50
  225.76        3334.50           6653          52.00       224.06
  225.79        3334.75           6657          51.00       219.70
  225.83        3335.00           6661          49.00       210.99
  225.86        3335.25           6664          55.00       237.14
  225.89        3335.50           6668          60.00       258.94
  225.92        3335.75           6672          57.00       245.86
  225.95        3336.00           6676          84.00       363.56
  225.98        3336.25           6679         319.00      1388.02
  226.01        3336.50           6683        1732.00      7549.05
  226.04        3336.75           6687        3830.00     16700.64
  226.07        3337.00           6691        6401.00     27921.65
  226.10        3337.25           6694        8317.00     36288.38
  226.14        3337.50           6698       11006.00     48036.98
  226.17        3337.75           6702       13632.00     59517.54
  226.20        3338.00           6705       15690.00     68519.85
  226.23        3338.25           6709       18582.00     81177.73
  226.26        3338.50           6713       21286.00     93020.61
  226.29        3338.75           6717       23884.00    104406.40
  226.32        3339.00           6720       25971.00    113557.80
  226.35        3339.25           6724       28789.00    125921.70
  226.38        3339.50           6728       31335.00    137099.40
  226.41        3339.75           6732       34084.00    149175.90
  226.44        3340.00           6735       36093.00    158006.60
  226.47        3340.25           6739       38695.00    169450.00
  226.51        3340.50           6743       41303.00    180927.00
  226.54        3340.75           6747       44094.00    193217.20
  226.57        3341.00           6750       45271.00    198402.60
  226.60        3341.25           6754       46216.00    202567.00
  226.63        3341.50           6758       46738.00    204867.70
  226.66        3341.75           6762       46924.00    205687.50
  226.69        3342.00           6765       46244.00    202690.40
  226.72        3342.25           6769       44253.00    193917.60
  226.75        3342.50           6773       42141.00    184616.30
  226.79        3342.75           6777       39637.00    173594.60
  226.82        3343.00           6780       37519.00    164277.20
  226.85        3343.25           6784       34954.00    152999.50
  226.88        3343.50           6788       32278.00    141241.20
  226.91        3343.75           6792       29528.00    129165.50
  226.94        3344.00           6795       27470.00    120133.60
  226.97        3344.25           6799       24880.00    108773.20
  227.00        3344.50           6803       22207.00     97056.09
  227.04        3344.75           6807       19454.00     84996.06
  227.07        3345.00           6810       17437.00     76165.19
  227.10        3345.25           6814       14768.00     64486.21
  227.13        3345.50           6818       12166.00     53107.49
  227.16        3345.75           6822        9363.00     40857.61
  227.19        3346.00           6825        7232.00     31549.97
  227.22        3346.25           6829        4530.00     19755.09
  227.25        3346.50           6833        2179.00      9498.51
  227.28        3346.75           6837         845.00      3681.27
  227.32        3347.00           6840         359.00      1562.40
  227.35        3347.25           6844         111.00       481.26
  227.38        3347.50           6848          72.00       311.25
  227.41        3347.75           6852          57.00       245.86
  227.44        3348.00           6855          54.00       232.78
  227.47        3348.25           6859          61.00       263.30
  227.50        3348.50           6863          53.00       228.42
  227.53        3348.75           6867          53.00       228.42
  227.56        3349.00           6870          49.00       210.99
  227.59        3349.25           6874          45.00       193.55
  227.63        3349.50           6878          49.00       210.99
  227.66        3349.75           6882          48.00       206.63
  227.69        3350.00           6885          59.00       254.58
  227.72        3350.25           6889          52.00       224.06
  227.75        3350.50           6893          51.00       219.70
  227.78        3350.75           6897          55.00       237.14
  227.81        3351.00           6900          50.00       215.35
HL scan finished at 03:48:59
end
************************************************************
  HL Scan of (1) Internal mercury lamp
************************************************************
Integration time is 0.2294 seconds per sample
dh300517El Arenosillo 37.1 6.73 3.126073pr1000
************************************************************
Dead Time -------------------------  2.7E-08 
Number of Cycles Used -------------  4 
Starting Wavelength (Angstroms) ---  3331 
Final Wavelength (Angstoms) -------  3351 
Wavelength Increment (Angstroms) --  .25 
Filter Wheel #1 Position ---------- (1) Ground quartz diffuser (ND=2.32)
Filter Wheel #2 Position ---------- 



************************************************************
HL scan start time = 20:34:29
Dark Count =  .4 


Time (GMT)  Wavelength (Ang)  Step Number  Raw Counts  Counts/Second

 1235.71        3331.00           6601          50.00       216.22
 1236.50        3331.25           6605          58.00       251.09
 1236.53        3331.50           6608          44.00       190.06
 1236.56        3331.75           6612          51.00       220.58
 1236.59        3332.00           6616          45.00       194.42
 1236.62        3332.25           6620          56.00       242.37
 1236.65        3332.50           6623          48.00       207.50
 1236.68        3332.75           6627          52.00       224.94
 1236.72        3333.00           6631          49.00       211.86
 1236.74        3333.25           6634          48.00       207.50
 1236.77        3333.50           6638          54.00       233.65
 1236.81        3333.75           6642          53.00       229.30
 1236.84        3334.00           6646          44.00       190.06
 1236.87        3334.25           6649          55.00       238.01
 1236.90        3334.50           6653          49.00       211.86
 1236.93        3334.75           6657          59.00       255.45
 1236.96        3335.00           6661          57.00       246.73
 1236.99        3335.25           6664          57.00       246.73
 1237.02        3335.50           6668          62.00       268.53
 1237.05        3335.75           6672          71.00       307.76
 1237.08        3336.00           6676          97.00       421.10
 1237.11        3336.25           6679         489.00      2130.03
 1237.14        3336.50           6683        2227.00      9708.73
 1237.17        3336.75           6687        4851.00     21156.81
 1237.20        3337.00           6691        7754.00     33830.36
 1237.23        3337.25           6694       10197.00     44502.44
 1237.26        3337.50           6698       13255.00     57869.78
 1237.29        3337.75           6702       16487.00     72008.21
 1237.32        3338.00           6705       18945.00     82768.02
 1237.35        3338.25           6709       22412.00     97955.34
 1237.38        3338.50           6713       25372.00    110931.60
 1237.41        3338.75           6717       28690.00    125488.10
 1237.45        3339.00           6720       31024.00    135734.60
 1237.48        3339.25           6724       34380.00    150477.60
 1237.51        3339.50           6728       37601.00    164638.70
 1237.54        3339.75           6732       40764.00    178555.40
 1237.57        3340.00           6735       43015.00    188465.80
 1237.60        3340.25           6739       46009.00    201655.60
 1237.63        3340.50           6743       49385.00    216539.60
 1237.66        3340.75           6747       52350.00    229621.50
 1237.69        3341.00           6750       53891.00    236424.20
 1237.72        3341.25           6754       54921.00    240972.50
 1237.75        3341.50           6758       55375.00    242977.70
 1237.78        3341.75           6762       55539.00    243702.10
 1237.81        3342.00           6765       54432.00    238813.00
 1237.84        3342.25           6769       52613.00    230782.30
 1237.88        3342.50           6773       49744.00    218123.00
 1237.91        3342.75           6777       46348.00    203149.60
 1237.93        3343.00           6780       44159.00    193504.40
 1237.97        3343.25           6784       41038.00    179761.40
 1238.00        3343.50           6788       37893.00    165923.00
 1238.03        3343.75           6792       34709.00    151923.60
 1238.06        3344.00           6795       32577.00    142555.50
 1238.09        3344.25           6799       29057.00    127098.90
 1238.12        3344.50           6803       25903.00    113260.40
 1238.15        3344.75           6807       22888.00    100041.40
 1238.18        3345.00           6810       20434.00     89289.11
 1238.21        3345.25           6814       17099.00     74686.63
 1238.24        3345.50           6818       13886.00     60629.24
 1238.27        3345.75           6822       10681.00     46617.49
 1238.30        3346.00           6825        8360.00     36477.06
 1238.33        3346.25           6829        5098.00     22234.80
 1238.36        3346.50           6833        2430.00     10594.14
 1238.39        3346.75           6837         916.00      3991.71
 1238.43        3347.00           6840         404.00      1759.46
 1238.46        3347.25           6844         129.00       560.60
 1238.48        3347.50           6848          73.00       316.48
 1238.52        3347.75           6852          55.00       238.01
 1238.55        3348.00           6855          61.00       264.17
 1238.58        3348.25           6859          55.00       238.01
 1238.61        3348.50           6863          51.00       220.58
 1238.64        3348.75           6867          55.00       238.01
 1238.67        3349.00           6870          53.00       229.30
 1238.70        3349.25           6874          50.00       216.22
 1238.73        3349.50           6878          60.00       259.81
 1238.76        3349.75           6882          51.00       220.58
 1238.79        3350.00           6885          53.00       229.30
 1238.82        3350.25           6889          54.00       233.65
 1238.85        3350.50           6893          58.00       251.09
 1238.88        3350.75           6897          55.00       238.01
 1238.91        3351.00           6900          51.00       220.58
HL scan finished at 20:40:05
end
