************************************************************
  HL Scan of (1) Internal mercury lamp
************************************************************
Integration time is 0.2294 seconds per sample
dh010617El Arenosillo 37.1 6.73 2.965129pr1000
************************************************************
Dead Time -------------------------  2.7E-08 
Number of Cycles Used -------------  4 
Starting Wavelength (Angstroms) ---  3331 
Final Wavelength (Angstoms) -------  3351 
Wavelength Increment (Angstroms) --  .25 
Filter Wheel #1 Position ---------- (1) Ground quartz diffuser (ND=2.32)
Filter Wheel #2 Position ---------- 



************************************************************
HL scan start time = 01:12:30
Dark Count =  .2 


Time (GMT)  Wavelength (Ang)  Step Number  Raw Counts  Counts/Second

   73.35        3331.00           6601          54.00       234.53
   73.76        3331.25           6605          55.00       238.89
   73.79        3331.50           6608          50.00       217.09
   73.82        3331.75           6612          47.00       204.01
   73.85        3332.00           6616          56.00       243.24
   73.88        3332.25           6620          50.00       217.09
   73.92        3332.50           6623          54.00       234.53
   73.94        3332.75           6627          49.00       212.73
   73.98        3333.00           6631          49.00       212.73
   74.01        3333.25           6634          46.00       199.65
   74.04        3333.50           6638          47.00       204.01
   74.07        3333.75           6642          49.00       212.73
   74.10        3334.00           6646          50.00       217.09
   74.13        3334.25           6649          60.00       260.68
   74.16        3334.50           6653          52.00       225.81
   74.19        3334.75           6657          51.00       221.45
   74.22        3335.00           6661          54.00       234.53
   74.25        3335.25           6664          56.00       243.24
   74.28        3335.50           6668          65.00       282.48
   74.31        3335.75           6672          68.00       295.56
   74.34        3336.00           6676          78.00       339.15
   74.38        3336.25           6679         214.00       932.02
   74.40        3336.50           6683        1501.00      6543.44
   74.44        3336.75           6687        3772.00     16449.33
   74.47        3337.00           6691        6624.00     28897.00
   74.50        3337.25           6694        8856.00     38644.49
   74.53        3337.50           6698       11778.00     51413.08
   74.56        3337.75           6702       14894.00     65039.14
   74.59        3338.00           6705       17557.00     76692.21
   74.62        3338.25           6709       20519.00     89662.31
   74.65        3338.50           6713       23562.00    102996.60
   74.69        3338.75           6717       26634.00    116467.70
   74.72        3339.00           6720       29062.00    127121.70
   74.75        3339.25           6724       32085.00    140395.20
   74.78        3339.50           6728       35249.00    154298.00
   74.81        3339.75           6732       38468.00    168453.20
   74.84        3340.00           6735       40509.00    177433.90
   74.87        3340.25           6739       43490.00    190558.60
   74.90        3340.50           6743       46805.00    205164.80
   74.94        3340.75           6747       49748.00    218141.60
   74.97        3341.00           6750       51600.00    226312.40
   75.00        3341.25           6754       52681.00    231083.40
   75.03        3341.50           6758       53742.00    235767.20
   75.06        3341.75           6762       53642.00    235325.70
   75.09        3342.00           6765       53253.00    233608.40
   75.12        3342.25           6769       51549.00    226087.40
   75.15        3342.50           6773       48589.00    213030.00
   75.18        3342.75           6777       46109.00    202097.20
   75.21        3343.00           6780       43475.00    190492.50
   75.24        3343.25           6784       40616.00    177904.80
   75.28        3343.50           6788       37296.00    163298.20
   75.30        3343.75           6792       34374.00    150452.10
   75.34        3344.00           6795       31857.00    139393.80
   75.37        3344.25           6799       29027.00    126968.10
   75.40        3344.50           6803       26060.00    113949.90
   75.43        3344.75           6807       22990.00    100489.40
   75.46        3345.00           6810       20492.00     89544.06
   75.49        3345.25           6814       17586.00     76819.15
   75.52        3345.50           6818       14440.00     63053.20
   75.55        3345.75           6822       11337.00     49485.43
   75.59        3346.00           6825        8876.00     38731.85
   75.62        3346.25           6829        5850.00     25518.01
   75.65        3346.50           6833        2941.00     12823.97
   75.68        3346.75           6837        1156.00      5039.05
   75.71        3347.00           6840         521.00      2270.41
   75.74        3347.25           6844         153.00       666.10
   75.77        3347.50           6848          70.00       304.27
   75.80        3347.75           6852          59.00       256.32
   75.83        3348.00           6855          71.00       308.63
   75.86        3348.25           6859          53.00       230.17
   75.90        3348.50           6863          54.00       234.53
   75.92        3348.75           6867          57.00       247.60
   75.96        3349.00           6870          52.00       225.81
   75.99        3349.25           6874          53.00       230.17
   76.02        3349.50           6878          49.00       212.73
   76.05        3349.75           6882          42.00       182.22
   76.08        3350.00           6885          60.00       260.68
   76.11        3350.25           6889          54.00       234.53
   76.14        3350.50           6893          59.00       256.32
   76.17        3350.75           6897          53.00       230.17
   76.20        3351.00           6900          51.00       221.45
HL scan finished at 01:17:22
end
************************************************************
  HL Scan of (1) Internal mercury lamp
************************************************************
Integration time is 0.2294 seconds per sample
dh010617El Arenosillo 37.1 6.73 3.072425pr1000
************************************************************
Dead Time -------------------------  2.7E-08 
Number of Cycles Used -------------  4 
Starting Wavelength (Angstroms) ---  3331 
Final Wavelength (Angstoms) -------  3351 
Wavelength Increment (Angstroms) --  .25 
Filter Wheel #1 Position ---------- (1) Ground quartz diffuser (ND=2.32)
Filter Wheel #2 Position ---------- 



************************************************************
HL scan start time = 02:19:47
Dark Count =  .3 


Time (GMT)  Wavelength (Ang)  Step Number  Raw Counts  Counts/Second

  141.02        3331.00           6601          46.00       199.22
  141.81        3331.25           6605          53.00       229.73
  141.85        3331.50           6608          53.00       229.73
  141.88        3331.75           6612          49.00       212.29
  141.91        3332.00           6616          49.00       212.29
  141.94        3332.25           6620          47.00       203.58
  141.97        3332.50           6623          55.00       238.45
  142.00        3332.75           6627          56.00       242.81
  142.03        3333.00           6631          55.00       238.45
  142.06        3333.25           6634          49.00       212.29
  142.09        3333.50           6638          50.00       216.65
  142.12        3333.75           6642          49.00       212.29
  142.15        3334.00           6646          58.00       251.53
  142.18        3334.25           6649          47.00       203.58
  142.22        3334.50           6653          52.00       225.37
  142.25        3334.75           6657          53.00       229.73
  142.28        3335.00           6661          50.00       216.65
  142.31        3335.25           6664          52.00       225.37
  142.34        3335.50           6668          66.00       286.40
  142.37        3335.75           6672          67.00       290.76
  142.40        3336.00           6676         106.00       460.77
  142.43        3336.25           6679         545.00      2374.61
  142.47        3336.50           6683        2277.00      9927.25
  142.50        3336.75           6687        4608.00     20096.78
  142.53        3337.00           6691        7624.00     33263.08
  142.56        3337.25           6694        9874.00     43091.53
  142.59        3337.50           6698       12872.00     56195.49
  142.62        3337.75           6702       15668.00     68424.91
  142.66        3338.00           6705       18121.00     79160.73
  142.68        3338.25           6709       21185.00     92579.42
  142.72        3338.50           6713       24274.00    106117.50
  142.75        3338.75           6717       27312.00    119441.70
  142.78        3339.00           6720       29621.00    129575.00
  142.81        3339.25           6724       32657.00    142907.40
  142.84        3339.50           6728       35685.00    156214.20
  142.87        3339.75           6732       38825.00    170023.30
  142.90        3340.00           6735       41019.00    179678.20
  142.94        3340.25           6739       44027.00    192923.40
  142.97        3340.50           6743       46921.00    205675.60
  143.00        3340.75           6747       49682.00    217850.00
  143.03        3341.00           6750       50808.00    222817.30
  143.06        3341.25           6754       51994.00    228050.70
  143.10        3341.50           6758       52315.00    229467.50
  143.13        3341.75           6762       52488.00    230231.00
  143.16        3342.00           6765       51621.00    226404.60
  143.19        3342.25           6769       49381.00    216522.40
  143.22        3342.50           6773       46825.00    205252.50
  143.25        3342.75           6777       44005.00    192826.50
  143.28        3343.00           6780       41379.00    181262.90
  143.31        3343.25           6784       38708.00    169508.60
  143.35        3343.50           6788       35532.00    155541.60
  143.38        3343.75           6792       32689.00    143047.90
  143.41        3344.00           6795       30427.00    133113.60
  143.44        3344.25           6799       27493.00    120235.80
  143.47        3344.50           6803       24492.00    107073.30
  143.50        3344.75           6807       21344.00     93276.03
  143.54        3345.00           6810       19094.00     83420.90
  143.57        3345.25           6814       16069.00     70179.50
  143.60        3345.50           6818       12992.00     56720.20
  143.63        3345.75           6822        9957.00     43454.18
  143.66        3346.00           6825        7787.00     33974.92
  143.69        3346.25           6829        4661.00     20328.07
  143.72        3346.50           6833        2161.00      9421.31
  143.76        3346.75           6837         788.00      3434.06
  143.78        3347.00           6840         355.00      1546.27
  143.82        3347.25           6844         121.00       526.16
  143.85        3347.50           6848          69.00       299.48
  143.88        3347.75           6852          64.00       277.68
  143.91        3348.00           6855          57.00       247.17
  143.94        3348.25           6859          54.00       234.09
  143.97        3348.50           6863          58.00       251.53
  144.00        3348.75           6867          50.00       216.65
  144.04        3349.00           6870          51.00       221.01
  144.07        3349.25           6874          52.00       225.37
  144.10        3349.50           6878          56.00       242.81
  144.13        3349.75           6882          53.00       229.73
  144.16        3350.00           6885          53.00       229.73
  144.19        3350.25           6889          44.00       190.50
  144.23        3350.50           6893          42.00       181.78
  144.25        3350.75           6897          52.00       225.37
  144.29        3351.00           6900          49.00       212.29
HL scan finished at 02:25:27
end
************************************************************
  HL Scan of (1) Internal mercury lamp
************************************************************
Integration time is 0.2294 seconds per sample
dh010617El Arenosillo 37.1 6.73 3.179721pr1000
************************************************************
Dead Time -------------------------  2.7E-08 
Number of Cycles Used -------------  4 
Starting Wavelength (Angstroms) ---  3331 
Final Wavelength (Angstoms) -------  3351 
Wavelength Increment (Angstroms) --  .25 
Filter Wheel #1 Position ---------- (1) Ground quartz diffuser (ND=2.32)
Filter Wheel #2 Position ---------- 



************************************************************
HL scan start time = 21:55:05
Dark Count =  .3 


Time (GMT)  Wavelength (Ang)  Step Number  Raw Counts  Counts/Second

 1316.30        3331.00           6601          46.00       199.22
 1317.10        3331.25           6605          50.00       216.65
 1317.13        3331.50           6608          42.00       181.78
 1317.16        3331.75           6612          54.00       234.09
 1317.19        3332.00           6616          62.00       268.96
 1317.22        3332.25           6620          46.00       199.22
 1317.25        3332.50           6623          56.00       242.81
 1317.28        3332.75           6627          45.00       194.86
 1317.31        3333.00           6631          53.00       229.73
 1317.34        3333.25           6634          54.00       234.09
 1317.37        3333.50           6638          50.00       216.65
 1317.40        3333.75           6642          52.00       225.37
 1317.43        3334.00           6646          45.00       194.86
 1317.46        3334.25           6649          54.00       234.09
 1317.49        3334.50           6653          55.00       238.45
 1317.52        3334.75           6657          50.00       216.65
 1317.55        3335.00           6661          53.00       229.73
 1317.58        3335.25           6664          66.00       286.40
 1317.61        3335.50           6668          70.00       303.84
 1317.64        3335.75           6672          74.00       321.28
 1317.68        3336.00           6676         110.00       478.21
 1317.70        3336.25           6679         584.00      2544.64
 1317.73        3336.50           6683        2466.00     10751.60
 1317.77        3336.75           6687        5117.00     22318.15
 1317.80        3337.00           6691        8326.00     36328.99
 1317.83        3337.25           6694       10884.00     47505.10
 1317.86        3337.50           6698       14186.00     61941.78
 1317.89        3337.75           6702       17388.00     75952.02
 1317.92        3338.00           6705       20149.00     88041.21
 1317.95        3338.25           6709       23572.00    103040.00
 1317.98        3338.50           6713       26878.00    117537.60
 1318.01        3338.75           6717       30186.00    132055.40
 1318.04        3339.00           6720       33015.00    144480.10
 1318.07        3339.25           6724       36236.00    158636.60
 1318.10        3339.50           6728       39618.00    173512.40
 1318.13        3339.75           6732       42576.00    186533.00
 1318.16        3340.00           6735       45035.00    197364.10
 1318.19        3340.25           6739       48350.00    211975.70
 1318.22        3340.50           6743       51820.00    227282.80
 1318.25        3340.75           6747       54971.00    241193.80
 1318.28        3341.00           6750       56350.00    247285.10
 1318.31        3341.25           6754       57521.00    252459.10
 1318.34        3341.50           6758       57965.00    254421.40
 1318.37        3341.75           6762       57974.00    254461.10
 1318.40        3342.00           6765       56961.00    249984.60
 1318.44        3342.25           6769       54926.00    240995.10
 1318.47        3342.50           6773       51742.00    226938.60
 1318.50        3342.75           6777       48519.00    212720.90
 1318.53        3343.00           6780       45957.00    201426.90
 1318.56        3343.25           6784       42979.00    188307.60
 1318.59        3343.50           6788       39627.00    173552.00
 1318.62        3343.75           6792       36123.00    158139.80
 1318.65        3344.00           6795       33855.00    148170.90
 1318.68        3344.25           6799       30719.00    134395.70
 1318.71        3344.50           6803       27186.00    118888.90
 1318.74        3344.75           6807       23766.00    103890.40
 1318.77        3345.00           6810       21314.00     93144.59
 1318.80        3345.25           6814       17969.00     78495.30
 1318.83        3345.50           6818       14431.00     63013.40
 1318.86        3345.75           6822       11122.00     48545.28
 1318.89        3346.00           6825        8622.00     37621.90
 1318.92        3346.25           6829        5220.00     22767.70
 1318.95        3346.50           6833        2484.00     10830.11
 1318.98        3346.75           6837         911.00      3970.35
 1319.01        3347.00           6840         393.00      1711.94
 1319.04        3347.25           6844         121.00       526.16
 1319.07        3347.50           6848          76.00       329.99
 1319.10        3347.75           6852          65.00       282.04
 1319.13        3348.00           6855          59.00       255.89
 1319.16        3348.25           6859          59.00       255.89
 1319.19        3348.50           6863          57.00       247.17
 1319.23        3348.75           6867          59.00       255.89
 1319.25        3349.00           6870          61.00       264.61
 1319.28        3349.25           6874          58.00       251.53
 1319.32        3349.50           6878          58.00       251.53
 1319.35        3349.75           6882          48.00       207.93
 1319.38        3350.00           6885          55.00       238.45
 1319.40        3350.25           6889          49.00       212.29
 1319.44        3350.50           6893          45.00       194.86
 1319.47        3350.75           6897          56.00       242.81
 1319.50        3351.00           6900          57.00       247.17
HL scan finished at 22:00:40
end
