************************************************************
  HL Scan of (1) Internal mercury lamp
************************************************************
Integration time is 0.2294 seconds per sample
dh030617ElArenosillo 37.1 6.73 3.018777pr1000
************************************************************
Dead Time -------------------------  2.7E-08 
Number of Cycles Used -------------  4 
Starting Wavelength (Angstroms) ---  3331 
Final Wavelength (Angstoms) -------  3351 
Wavelength Increment (Angstroms) --  .25 
Filter Wheel #1 Position ---------- (1) Ground quartz diffuser (ND=2.32)
Filter Wheel #2 Position ---------- 



************************************************************
HL scan start time = 02:11:43
Dark Count =  .2 


Time (GMT)  Wavelength (Ang)  Step Number  Raw Counts  Counts/Second

  132.95        3331.00           6601          52.00       225.81
  133.75        3331.25           6605          47.00       204.01
  133.78        3331.50           6608          52.00       225.81
  133.81        3331.75           6612          52.00       225.81
  133.84        3332.00           6616          48.00       208.37
  133.87        3332.25           6620          53.00       230.17
  133.90        3332.50           6623          48.00       208.37
  133.93        3332.75           6627          50.00       217.09
  133.96        3333.00           6631          45.00       195.29
  133.99        3333.25           6634          41.00       177.86
  134.03        3333.50           6638          53.00       230.17
  134.06        3333.75           6642          51.00       221.45
  134.09        3334.00           6646          55.00       238.89
  134.12        3334.25           6649          49.00       212.73
  134.15        3334.50           6653          46.00       199.65
  134.18        3334.75           6657          47.00       204.01
  134.21        3335.00           6661          53.00       230.17
  134.24        3335.25           6664          55.00       238.89
  134.27        3335.50           6668          58.00       251.96
  134.30        3335.75           6672          73.00       317.35
  134.34        3336.00           6676         101.00       439.41
  134.37        3336.25           6679         508.00      2213.73
  134.40        3336.50           6683        2150.00      9373.78
  134.43        3336.75           6687        4540.00     19800.47
  134.46        3337.00           6691        7321.00     31940.35
  134.49        3337.25           6694        9732.00     42471.52
  134.52        3337.50           6698       12663.00     55282.10
  134.56        3337.75           6702       15507.00     67720.93
  134.58        3338.00           6705       17925.00     78303.13
  134.61        3338.25           6709       20924.00     91436.44
  134.65        3338.50           6713       23881.00    104395.00
  134.68        3338.75           6717       26862.00    117467.90
  134.71        3339.00           6720       29198.00    127718.70
  134.74        3339.25           6724       32058.00    140276.60
  134.77        3339.50           6728       35082.00    153563.90
  134.80        3339.75           6732       38076.00    166728.80
  134.83        3340.00           6735       40191.00    176034.40
  134.87        3340.25           6739       43108.00    188876.20
  134.90        3340.50           6743       46047.00    201823.90
  134.93        3340.75           6747       48797.00    213947.30
  134.96        3341.00           6750       50121.00    219786.90
  134.99        3341.25           6754       51299.00    224984.20
  135.02        3341.50           6758       51713.00    226811.10
  135.05        3341.75           6762       51491.00    225831.40
  135.09        3342.00           6765       50622.00    221997.10
  135.12        3342.25           6769       48534.00    212787.50
  135.15        3342.50           6773       46160.00    202321.90
  135.18        3342.75           6777       43454.00    190400.00
  135.21        3343.00           6780       41235.00    180629.40
  135.24        3343.25           6784       38272.00    167591.00
  135.27        3343.50           6788       35229.00    154210.10
  135.31        3343.75           6792       32234.00    141049.70
  135.34        3344.00           6795       29875.00    130690.50
  135.37        3344.25           6799       27097.00    118498.90
  135.40        3344.50           6803       24219.00    105876.80
  135.43        3344.75           6807       21125.00     92317.00
  135.46        3345.00           6810       18860.00     82396.71
  135.49        3345.25           6814       15842.00     69186.66
  135.52        3345.50           6818       12952.00     56545.73
  135.55        3345.75           6822        9862.00     43039.53
  135.58        3346.00           6825        7687.00     33538.64
  135.62        3346.25           6829        4712.00     20551.07
  135.65        3346.50           6833        2191.00      9552.60
  135.68        3346.75           6837         827.00      3604.54
  135.71        3347.00           6840         342.00      1490.03
  135.74        3347.25           6844         112.00       487.36
  135.77        3347.50           6848          69.00       299.92
  135.80        3347.75           6852          56.00       243.24
  135.83        3348.00           6855          59.00       256.32
  135.86        3348.25           6859          50.00       217.09
  135.89        3348.50           6863          55.00       238.89
  135.93        3348.75           6867          56.00       243.24
  135.96        3349.00           6870          48.00       208.37
  135.99        3349.25           6874          48.00       208.37
  136.02        3349.50           6878          52.00       225.81
  136.05        3349.75           6882          53.00       230.17
  136.08        3350.00           6885          51.00       221.45
  136.11        3350.25           6889          56.00       243.24
  136.15        3350.50           6893          52.00       225.81
  136.17        3350.75           6897          51.00       221.45
  136.21        3351.00           6900          54.00       234.53
HL scan finished at 02:17:23
end
