************************************************************
  HL Scan of (1) Internal mercury lamp
************************************************************
Integration time is 0.2294 seconds per sample
dh020617El Arenosillo 37.1 6.73 3.126073pr1000
************************************************************
Dead Time -------------------------  2.7E-08 
Number of Cycles Used -------------  4 
Starting Wavelength (Angstroms) ---  3331 
Final Wavelength (Angstoms) -------  3351 
Wavelength Increment (Angstroms) --  .25 
Filter Wheel #1 Position ---------- (1) Ground quartz diffuser (ND=2.32)
Filter Wheel #2 Position ---------- 



************************************************************
HL scan start time = 02:19:50
Dark Count =  .7 


Time (GMT)  Wavelength (Ang)  Step Number  Raw Counts  Counts/Second

  141.07        3331.00           6601          55.00       236.71
  141.86        3331.25           6605          50.00       214.91
  141.89        3331.50           6608          45.00       193.11
  141.93        3331.75           6612          46.00       197.47
  141.96        3332.00           6616          52.00       223.63
  141.99        3332.25           6620          49.00       210.55
  142.02        3332.50           6623          55.00       236.71
  142.05        3332.75           6627          56.00       241.07
  142.08        3333.00           6631          51.00       219.27
  142.11        3333.25           6634          53.00       227.99
  142.14        3333.50           6638          55.00       236.71
  142.17        3333.75           6642          46.00       197.47
  142.20        3334.00           6646          46.00       197.47
  142.24        3334.25           6649          51.00       219.27
  142.27        3334.50           6653          54.00       232.35
  142.30        3334.75           6657          53.00       227.99
  142.33        3335.00           6661          59.00       254.14
  142.36        3335.25           6664          64.00       275.94
  142.39        3335.50           6668          66.00       284.66
  142.42        3335.75           6672          69.00       297.74
  142.45        3336.00           6676         116.00       502.62
  142.48        3336.25           6679         594.00      2586.49
  142.51        3336.50           6683        2481.00     10815.28
  142.55        3336.75           6687        5080.00     22154.92
  142.58        3337.00           6691        8124.00     35444.98
  142.61        3337.25           6694       10618.00     46340.86
  142.64        3337.50           6698       13785.00     60186.22
  142.67        3337.75           6702       16791.00     73337.31
  142.70        3338.00           6705       19396.00     84741.62
  142.73        3338.25           6709       22840.00     99829.75
  142.76        3338.50           6713       25899.00    113241.50
  142.79        3338.75           6717       29146.00    127488.20
  142.82        3339.00           6720       31614.00    138324.30
  142.85        3339.25           6724       34912.00    152814.50
  142.88        3339.50           6728       37838.00    165679.80
  142.92        3339.75           6732       41072.00    179909.70
  142.95        3340.00           6735       43480.00    190512.30
  142.98        3340.25           6739       46783.00    205065.60
  143.01        3340.50           6743       49802.00    218377.60
  143.04        3340.75           6747       52666.00    231014.90
  143.07        3341.00           6750       54442.00    238855.90
  143.10        3341.25           6754       55365.00    242932.20
  143.13        3341.50           6758       55719.00    244495.80
  143.16        3341.75           6762       55615.00    244036.40
  143.19        3342.00           6765       54797.00    240423.60
  143.23        3342.25           6769       52405.00    229862.90
  143.25        3342.50           6773       49606.00    217513.00
  143.29        3342.75           6777       46832.00    205281.60
  143.32        3343.00           6780       44176.00    193578.00
  143.35        3343.25           6784       41126.00    180147.40
  143.38        3343.50           6788       37914.00    166014.10
  143.41        3343.75           6792       34594.00    151416.80
  143.44        3344.00           6795       32283.00    141262.70
  143.47        3344.25           6799       28912.00    126461.10
  143.50        3344.50           6803       25920.00    113333.60
  143.54        3344.75           6807       22592.00     98742.85
  143.57        3345.00           6810       20327.00     88819.11
  143.60        3345.25           6814       17000.00     74252.03
  143.63        3345.50           6818       13773.00     60133.74
  143.66        3345.75           6822       10377.00     45287.69
  143.69        3346.00           6825        8096.00     35322.69
  143.72        3346.25           6829        4793.00     20902.38
  143.75        3346.50           6833        2244.00      9781.57
  143.78        3346.75           6837         819.00      3567.48
  143.81        3347.00           6840         363.00      1579.40
  143.85        3347.25           6844         110.00       476.47
  143.88        3347.50           6848          73.00       315.17
  143.91        3347.75           6852          64.00       275.94
  143.94        3348.00           6855          57.00       245.42
  143.97        3348.25           6859          58.00       249.78
  144.00        3348.50           6863          61.00       262.86
  144.03        3348.75           6867          61.00       262.86
  144.06        3349.00           6870          53.00       227.99
  144.09        3349.25           6874          58.00       249.78
  144.12        3349.50           6878          57.00       245.42
  144.16        3349.75           6882          54.00       232.35
  144.19        3350.00           6885          51.00       219.27
  144.22        3350.25           6889          59.00       254.14
  144.25        3350.50           6893          54.00       232.35
  144.28        3350.75           6897          57.00       245.42
  144.31        3351.00           6900          50.00       214.91
HL scan finished at 02:25:29
end
************************************************************
  HL Scan of (1) Internal mercury lamp
************************************************************
Integration time is 0.2294 seconds per sample
dh020617ElArenosillo 37.1 6.73 3.179721pr1000
************************************************************
Dead Time -------------------------  2.7E-08 
Number of Cycles Used -------------  4 
Starting Wavelength (Angstroms) ---  3331 
Final Wavelength (Angstoms) -------  3351 
Wavelength Increment (Angstroms) --  .25 
Filter Wheel #1 Position ---------- (1) Ground quartz diffuser (ND=2.32)
Filter Wheel #2 Position ---------- 



************************************************************
HL scan start time = 21:55:02
Dark Count =  .3 


Time (GMT)  Wavelength (Ang)  Step Number  Raw Counts  Counts/Second

 1316.25        3331.00           6601          54.00       234.09
 1317.05        3331.25           6605          50.00       216.65
 1317.08        3331.50           6608          50.00       216.65
 1317.11        3331.75           6612          53.00       229.73
 1317.14        3332.00           6616          51.00       221.01
 1317.17        3332.25           6620          52.00       225.37
 1317.20        3332.50           6623          49.00       212.29
 1317.23        3332.75           6627          54.00       234.09
 1317.26        3333.00           6631          48.00       207.93
 1317.29        3333.25           6634          55.00       238.45
 1317.32        3333.50           6638          49.00       212.29
 1317.35        3333.75           6642          42.00       181.78
 1317.38        3334.00           6646          46.00       199.22
 1317.41        3334.25           6649          50.00       216.65
 1317.44        3334.50           6653          55.00       238.45
 1317.47        3334.75           6657          51.00       221.01
 1317.50        3335.00           6661          55.00       238.45
 1317.53        3335.25           6664          59.00       255.89
 1317.56        3335.50           6668          60.00       260.25
 1317.59        3335.75           6672          66.00       286.40
 1317.62        3336.00           6676         111.00       482.57
 1317.65        3336.25           6679         532.00      2317.93
 1317.68        3336.50           6683        2367.00     10319.79
 1317.72        3336.75           6687        5011.00     21855.53
 1317.75        3337.00           6691        8052.00     35132.27
 1317.78        3337.25           6694       10525.00     45936.20
 1317.81        3337.50           6698       13726.00     59929.95
 1317.84        3337.75           6702       16968.00     74113.72
 1317.87        3338.00           6705       19470.00     85067.43
 1317.90        3338.25           6709       22814.00     99717.55
 1317.93        3338.50           6713       26033.00    113831.00
 1317.96        3338.75           6717       29264.00    128007.90
 1317.99        3339.00           6720       31775.00    139033.10
 1318.02        3339.25           6724       35196.00    154064.60
 1318.05        3339.50           6728       38256.00    167520.20
 1318.08        3339.75           6732       41457.00    181606.30
 1318.11        3340.00           6735       44009.00    192844.10
 1318.14        3340.25           6739       47169.00    206768.90
 1318.17        3340.50           6743       50430.00    221149.60
 1318.20        3340.75           6747       53381.00    234173.00
 1318.24        3341.00           6750       54804.00    240456.30
 1318.27        3341.25           6754       55778.00    244758.20
 1318.30        3341.50           6758       56319.00    247148.10
 1318.33        3341.75           6762       56599.00    248385.10
 1318.36        3342.00           6765       55528.00    243653.90
 1318.39        3342.25           6769       53412.00    234309.80
 1318.42        3342.50           6773       50524.00    221564.30
 1318.45        3342.75           6777       47252.00    207134.70
 1318.48        3343.00           6780       44829.00    196456.50
 1318.51        3343.25           6784       41854.00    183354.00
 1318.54        3343.50           6788       38634.00    169183.00
 1318.57        3343.75           6792       35190.00    154038.20
 1318.60        3344.00           6795       32897.00    143961.70
 1318.63        3344.25           6799       29684.00    129851.60
 1318.66        3344.50           6803       26475.00    115769.80
 1318.70        3344.75           6807       23252.00    101637.30
 1318.73        3345.00           6810       20840.00     91068.02
 1318.75        3345.25           6814       17484.00     76372.24
 1318.79        3345.50           6818       14259.00     62261.08
 1318.82        3345.75           6822       10777.00     47037.47
 1318.85        3346.00           6825        8433.00     36796.35
 1318.88        3346.25           6829        5105.00     22265.78
 1318.91        3346.50           6833        2405.00     10485.53
 1318.94        3346.75           6837         928.00      4044.47
 1318.97        3347.00           6840         404.00      1759.89
 1319.00        3347.25           6844         119.00       517.44
 1319.03        3347.50           6848          66.00       286.40
 1319.06        3347.75           6852          71.00       308.20
 1319.09        3348.00           6855          58.00       251.53
 1319.12        3348.25           6859          55.00       238.45
 1319.15        3348.50           6863          63.00       273.32
 1319.18        3348.75           6867          57.00       247.17
 1319.21        3349.00           6870          56.00       242.81
 1319.24        3349.25           6874          56.00       242.81
 1319.27        3349.50           6878          53.00       229.73
 1319.30        3349.75           6882          56.00       242.81
 1319.34        3350.00           6885          57.00       247.17
 1319.37        3350.25           6889          54.00       234.09
 1319.40        3350.50           6893          52.00       225.37
 1319.42        3350.75           6897          53.00       229.73
 1319.46        3351.00           6900          57.00       247.17
HL scan finished at 22:00:38
end
