************************************************************
  HL Scan of (1) Internal mercury lamp
************************************************************
Integration time is 0.2294 seconds per sample
dh081117Sodankyla 67.3675-26.633 2.643241pr990
************************************************************
Dead Time -------------------------  2.7E-08 
Number of Cycles Used -------------  4 
Starting Wavelength (Angstroms) ---  3331 
Final Wavelength (Angstoms) -------  3351 
Wavelength Increment (Angstroms) --  .25 
Filter Wheel #1 Position ---------- (1) Ground quartz diffuser (ND=2.32)
Filter Wheel #2 Position ---------- 



************************************************************
HL scan start time = 22:45:44
Dark Count =  .1 


Time (GMT)  Wavelength (Ang)  Step Number  Raw Counts  Counts/Second

 1366.58        3331.00           6601          48.00       208.81
 1366.99        3331.25           6605          49.00       213.17
 1367.03        3331.50           6608          41.00       178.29
 1367.06        3331.75           6612          47.00       204.45
 1367.08        3332.00           6616          52.00       226.24
 1367.11        3332.25           6620          48.00       208.81
 1367.14        3332.50           6623          50.00       217.53
 1367.18        3332.75           6627          49.00       213.17
 1367.20        3333.00           6631          52.00       226.24
 1367.23        3333.25           6634          49.00       213.17
 1367.26        3333.50           6638          45.00       195.73
 1367.29        3333.75           6642          45.00       195.73
 1367.32        3334.00           6646          48.00       208.81
 1367.35        3334.25           6649          46.00       200.09
 1367.38        3334.50           6653          52.00       226.24
 1367.41        3334.75           6657          51.00       221.88
 1367.44        3335.00           6661          49.00       213.17
 1367.47        3335.25           6664          51.00       221.88
 1367.50        3335.50           6668          51.00       221.88
 1367.53        3335.75           6672          62.00       269.84
 1367.56        3336.00           6676          66.00       287.27
 1367.59        3336.25           6679         213.00       928.10
 1367.62        3336.50           6683        1279.00      5575.82
 1367.65        3336.75           6687        3245.00     14150.57
 1367.68        3337.00           6691        5553.00     24222.03
 1367.71        3337.25           6694        7646.00     33360.03
 1367.74        3337.50           6698       10287.00     44897.03
 1367.77        3337.75           6702       12709.00     55483.67
 1367.80        3338.00           6705       14770.00     64497.14
 1367.83        3338.25           6709       17399.00     76001.05
 1367.86        3338.50           6713       20109.00     87866.89
 1367.89        3338.75           6717       22623.00     98881.34
 1367.92        3339.00           6720       24529.00    107236.40
 1367.95        3339.25           6724       27121.00    118604.60
 1367.98        3339.50           6728       29749.00    130137.80
 1368.01        3339.75           6732       32509.00    142258.10
 1368.04        3340.00           6735       34349.00    150342.70
 1368.07        3340.25           6739       36673.00    160558.90
 1368.10        3340.50           6743       39597.00    173420.90
 1368.13        3340.75           6747       41856.00    183363.70
 1368.16        3341.00           6750       43383.00    190087.70
 1368.19        3341.25           6754       44414.00    194629.10
 1368.22        3341.50           6758       45026.00    197325.30
 1368.25        3341.75           6762       45397.00    198960.00
 1368.28        3342.00           6765       44706.00    195915.50
 1368.31        3342.25           6769       43320.00    189810.30
 1368.34        3342.50           6773       41021.00    179687.90
 1368.37        3342.75           6777       38840.00    170090.20
 1368.40        3343.00           6780       36578.00    160141.20
 1368.43        3343.25           6784       34121.00    149340.70
 1368.46        3343.50           6788       31463.00    137663.80
 1368.49        3343.75           6792       29055.00    127091.40
 1368.52        3344.00           6795       27101.00    118516.80
 1368.55        3344.25           6799       24592.00    107512.60
 1368.58        3344.50           6803       21830.00     95406.31
 1368.61        3344.75           6807       19342.00     84507.78
 1368.64        3345.00           6810       17407.00     76036.06
 1368.67        3345.25           6814       14697.00     64177.81
 1368.70        3345.50           6818       12096.00     52803.65
 1368.73        3345.75           6822        9607.00     41925.81
 1368.76        3346.00           6825        7480.00     32635.11
 1368.79        3346.25           6829        4890.00     21328.32
 1368.82        3346.50           6833        2493.00     10870.23
 1368.85        3346.75           6837         939.00      4093.30
 1368.88        3347.00           6840         434.00      1891.55
 1368.91        3347.25           6844         145.00       631.66
 1368.94        3347.50           6848          62.00       269.84
 1368.97        3347.75           6852          54.00       234.96
 1369.00        3348.00           6855          58.00       252.40
 1369.03        3348.25           6859          58.00       252.40
 1369.06        3348.50           6863          50.00       217.53
 1369.09        3348.75           6867          47.00       204.45
 1369.11        3349.00           6870          50.00       217.53
 1369.15        3349.25           6874          43.00       187.01
 1369.18        3349.50           6878          49.00       213.17
 1369.20        3349.75           6882          50.00       217.53
 1369.23        3350.00           6885          46.00       200.09
 1369.26        3350.25           6889          39.00       169.57
 1369.30        3350.50           6893          49.00       213.17
 1369.32        3350.75           6897          54.00       234.96
 1369.35        3351.00           6900          53.00       230.60
HL scan finished at 22:50:31
end
