************************************************************
  HS Scan of (1) Internal mercury lamp
************************************************************
Integration time is 0.2294 seconds per sample
dh050117Sodankyla 67.3675-26.633 2.589593pr990
************************************************************
Dead Time -------------------------  2.7E-08 
Number of Cycles Used -------------  4 
Starting Wavelength (Angstroms) ---  2950 
Final Wavelength (Angstoms) -------  2984 
Wavelength Increment (Angstroms) --  .25 
Filter Wheel #1 Position ---------- (1) Ground quartz diffuser (ND=2.32)
Filter Wheel #2 Position ---------- (1) Neutral Density 0.494



************************************************************
HS scan start time = 23:30:33
Dark Count =  .2 


Time (GMT)  Wavelength (Ang)  Step Number  Raw Counts  Counts/Second

 1411.05        2950.00           1223          80.00       347.87
 1411.18        2950.25           1226          78.00       339.15
 1411.21        2950.50           1229          73.00       317.35
 1411.25        2950.75           1233          78.00       339.15
 1411.31        2951.00           1236          74.00       321.71
 1411.34        2951.25           1239          82.00       356.59
 1411.38        2951.50           1243          80.00       347.87
 1411.41        2951.75           1246          83.00       360.95
 1411.47        2952.00           1249          80.00       347.87
 1411.50        2952.25           1253          84.00       365.30
 1411.54        2952.50           1256          76.00       330.43
 1411.60        2952.75           1259          83.00       360.95
 1411.63        2953.00           1263          81.00       352.23
 1411.67        2953.25           1266          76.00       330.43
 1411.70        2953.50           1269          79.00       343.51
 1411.76        2953.75           1273          78.00       339.15
 1411.80        2954.00           1276          69.00       299.92
 1411.83        2954.25           1279          80.00       347.87
 1411.89        2954.50           1283          77.00       334.79
 1411.93        2954.75           1286          74.00       321.71
 1411.96        2955.00           1289          81.00       352.23
 1412.01        2955.25           1293          71.00       308.63
 1412.05        2955.50           1296          84.00       365.30
 1412.09        2955.75           1299          72.00       312.99
 1412.12        2956.00           1303          72.00       312.99
 1412.18        2956.25           1306          69.00       299.92
 1412.22        2956.50           1309          85.00       369.66
 1412.25        2956.75           1313          75.00       326.07
 1412.30        2957.00           1316          68.00       295.56
 1412.34        2957.25           1319          67.00       291.20
 1412.38        2957.50           1323          74.00       321.71
 1412.41        2957.75           1326          86.00       374.02
 1412.47        2958.00           1329          68.00       295.56
 1412.51        2958.25           1333          80.00       347.87
 1412.54        2958.50           1336          72.00       312.99
 1412.58        2958.75           1339          83.00       360.95
 1412.64        2959.00           1343          83.00       360.95
 1412.67        2959.25           1346          77.00       334.79
 1412.71        2959.50           1349          68.00       295.56
 1412.77        2959.75           1353          67.00       291.20
 1412.80        2960.00           1356          73.00       317.35
 1412.83        2960.25           1359          81.00       352.23
 1412.87        2960.50           1363          79.00       343.51
 1412.93        2960.75           1366          81.00       352.23
 1412.96        2961.00           1369          98.00       426.33
 1413.00        2961.25           1373          96.00       417.62
 1413.06        2961.50           1376         142.00       618.14
 1413.09        2961.75           1379         790.00      3443.21
 1413.13        2962.00           1383        2942.00     12828.33
 1413.16        2962.25           1386        5192.00     22645.93
 1413.22        2962.50           1389        7975.00     34796.41
 1413.25        2962.75           1393       11857.00     51758.42
 1413.29        2963.00           1396       14834.00     64776.67
 1413.33        2963.25           1400       19294.00     84297.14
 1413.36        2963.50           1403       22366.00     97754.62
 1413.40        2963.75           1406       25973.00    113568.30
 1413.43        2964.00           1410       30144.00    131871.50
 1413.49        2964.25           1413       33379.00    146079.80
 1413.53        2964.50           1416       36717.00    160752.00
 1413.56        2964.75           1420       40909.00    179194.50
 1413.60        2965.00           1423       44046.00    193007.60
 1413.66        2965.25           1426       47182.00    206826.60
 1413.69        2965.50           1430       51347.00    225196.00
 1413.73        2965.75           1433       54662.00    239829.60
 1413.79        2966.00           1436       57503.00    252380.00
 1413.82        2966.25           1440       61599.00    270489.60
 1413.86        2966.50           1443       64220.00    282087.20
 1413.89        2966.75           1446       65667.00    288493.00
 1413.95        2967.00           1450       66618.00    292704.30
 1413.99        2967.25           1453       66918.00    294033.00
 1414.02        2967.50           1456       67553.00    296845.70
 1414.08        2967.75           1460       66955.00    294196.90
 1414.12        2968.00           1463       67289.00    295676.30
 1414.15        2968.25           1466       66408.00    291774.30
 1414.18        2968.50           1470       64391.00    282844.00
 1414.24        2968.75           1473       62010.00    272307.80
 1414.28        2969.00           1476       59293.00    260292.00
 1414.31        2969.25           1480       55499.00    243526.30
 1414.37        2969.50           1483       52145.00    228717.60
 1414.41        2969.75           1487       47988.00    210380.00
 1414.44        2970.00           1490       44517.00    195082.40
 1414.48        2970.25           1493       41265.00    180761.50
 1414.54        2970.50           1497       37136.00    162594.50
 1414.57        2970.75           1500       33875.00    148259.30
 1414.61        2971.00           1503       30492.00    133399.40
 1414.67        2971.25           1507       26243.00    114752.60
 1414.70        2971.50           1510       22824.00     99761.83
 1414.74        2971.75           1513       19579.00     85545.22
 1414.77        2972.00           1517       15324.00     66920.28
 1414.83        2972.25           1520       12164.00     53100.49
 1414.87        2972.50           1523        8956.00     39081.32
 1414.90        2972.75           1527        4733.00     20642.71
 1414.96        2973.00           1530        2338.00     10193.74
 1415.00        2973.25           1533        1108.00      4829.75
 1415.03        2973.50           1537         338.00      1472.60
 1415.06        2973.75           1540         159.00       692.25
 1415.12        2974.00           1544          98.00       426.33
 1415.16        2974.25           1547          89.00       387.10
 1415.19        2974.50           1550          76.00       330.43
 1415.25        2974.75           1554          76.00       330.43
 1415.29        2975.00           1557          63.00       273.76
 1415.32        2975.25           1560          67.00       291.20
 1415.37        2975.50           1564          75.00       326.07
 1415.41        2975.75           1567          73.00       317.35
 1415.45        2976.00           1570          72.00       312.99
 1415.48        2976.25           1574          67.00       291.20
 1415.54        2976.50           1577          60.00       260.68
 1415.58        2976.75           1580          66.00       286.84
 1415.61        2977.00           1584          73.00       317.35
 1415.65        2977.25           1587          71.00       308.63
 1415.70        2977.50           1591          63.00       273.76
 1415.74        2977.75           1594          66.00       286.84
 1415.77        2978.00           1597          66.00       286.84
 1415.83        2978.25           1601          72.00       312.99
 1415.87        2978.50           1604          67.00       291.20
 1415.90        2978.75           1607          71.00       308.63
 1415.94        2979.00           1611          66.00       286.84
 1416.00        2979.25           1614          71.00       308.63
 1416.03        2979.50           1617          65.00       282.48
 1416.07        2979.75           1621          66.00       286.84
 1416.13        2980.00           1624          69.00       299.92
 1416.16        2980.25           1628          69.00       299.92
 1416.19        2980.50           1631          62.00       269.40
 1416.24        2980.75           1634          70.00       304.27
 1416.29        2981.00           1638          63.00       273.76
 1416.32        2981.25           1641          59.00       256.32
 1416.36        2981.50           1644          67.00       291.20
 1416.42        2981.75           1648          56.00       243.24
 1416.45        2982.00           1651          71.00       308.63
 1416.49        2982.25           1654          65.00       282.48
 1416.53        2982.50           1658          63.00       273.76
 1416.58        2982.75           1661          64.00       278.12
 1416.62        2983.00           1665          70.00       304.27
 1416.65        2983.25           1668          64.00       278.12
 1416.71        2983.50           1671          64.00       278.12
 1416.74        2983.75           1675          61.00       265.04
 1416.78        2984.00           1678          68.00       295.56
HS scan finished at 23:37:08
end
