************************************************************
  HS Scan of (1) Internal mercury lamp
************************************************************
Integration time is 0.2294 seconds per sample
dh190117Sodankyla 67.3675-26.633 2.589593pr990
************************************************************
Dead Time -------------------------  2.7E-08 
Number of Cycles Used -------------  4 
Starting Wavelength (Angstroms) ---  2950 
Final Wavelength (Angstoms) -------  2984 
Wavelength Increment (Angstroms) --  .25 
Filter Wheel #1 Position ---------- (1) Ground quartz diffuser (ND=2.32)
Filter Wheel #2 Position ---------- (1) Neutral Density 0.494



************************************************************
HS scan start time = 23:34:59
Dark Count =  .3 


Time (GMT)  Wavelength (Ang)  Step Number  Raw Counts  Counts/Second

 1415.49        2950.00           1223          77.00       334.35
 1415.59        2950.25           1226          71.00       308.20
 1415.63        2950.50           1229          75.00       325.63
 1415.67        2950.75           1233          82.00       356.15
 1415.72        2951.00           1236          79.00       343.07
 1415.75        2951.25           1239          74.00       321.28
 1415.79        2951.50           1243          78.00       338.71
 1415.82        2951.75           1246          77.00       334.35
 1415.85        2952.00           1249          84.00       364.87
 1415.90        2952.25           1253          76.00       329.99
 1415.95        2952.50           1256          76.00       329.99
 1415.98        2952.75           1259          82.00       356.15
 1416.02        2953.00           1263          74.00       321.28
 1416.05        2953.25           1266          80.00       347.43
 1416.08        2953.50           1269          73.00       316.92
 1416.14        2953.75           1273          74.00       321.28
 1416.18        2954.00           1276          79.00       343.07
 1416.21        2954.25           1279          76.00       329.99
 1416.25        2954.50           1283          82.00       356.15
 1416.28        2954.75           1286          74.00       321.28
 1416.31        2955.00           1289          80.00       347.43
 1416.36        2955.25           1293          77.00       334.35
 1416.41        2955.50           1296          72.00       312.56
 1416.44        2955.75           1299          73.00       316.92
 1416.48        2956.00           1303          76.00       329.99
 1416.51        2956.25           1306          73.00       316.92
 1416.54        2956.50           1309          75.00       325.63
 1416.59        2956.75           1313          75.00       325.63
 1416.64        2957.00           1316          75.00       325.63
 1416.67        2957.25           1319          74.00       321.28
 1416.71        2957.50           1323          72.00       312.56
 1416.74        2957.75           1326          73.00       316.92
 1416.77        2958.00           1329          76.00       329.99
 1416.81        2958.25           1333          72.00       312.56
 1416.87        2958.50           1336          76.00       329.99
 1416.90        2958.75           1339          83.00       360.51
 1416.94        2959.00           1343          74.00       321.28
 1416.97        2959.25           1346          76.00       329.99
 1417.01        2959.50           1349          72.00       312.56
 1417.04        2959.75           1353          73.00       316.92
 1417.10        2960.00           1356          69.00       299.48
 1417.13        2960.25           1359          76.00       329.99
 1417.17        2960.50           1363          83.00       360.51
 1417.20        2960.75           1366          86.00       373.59
 1417.24        2961.00           1369          90.00       391.02
 1417.27        2961.25           1373         114.00       495.65
 1417.33        2961.50           1376         262.00      1140.84
 1417.36        2961.75           1379        1212.00      5282.79
 1417.40        2962.00           1383        3597.00     15685.37
 1417.43        2962.25           1386        6083.00     26534.70
 1417.47        2962.50           1389        8704.00     37980.08
 1417.50        2962.75           1393       12873.00     56199.87
 1417.56        2963.00           1396       15996.00     69860.07
 1417.60        2963.25           1400       20128.00     87949.22
 1417.63        2963.50           1403       23518.00    102803.30
 1417.67        2963.75           1406       26889.00    117585.90
 1417.70        2964.00           1410       31223.00    136608.90
 1417.74        2964.25           1413       34506.00    151031.80
 1417.79        2964.50           1416       37754.00    165312.10
 1417.83        2964.75           1420       41874.00    183442.10
 1417.87        2965.00           1423       44980.00    197121.80
 1417.90        2965.25           1426       48176.00    211208.40
 1417.94        2965.50           1430       52533.00    230429.60
 1417.97        2965.75           1433       55800.00    244855.40
 1418.03        2966.00           1436       58647.00    257435.70
 1418.06        2966.25           1440       62775.00    275691.90
 1418.10        2966.50           1443       64905.00    285118.90
 1418.13        2966.75           1446       66191.00    290812.90
 1418.17        2967.00           1450       67040.00    294573.00
 1418.20        2967.25           1453       67363.00    296003.60
 1418.26        2967.50           1456       67159.00    295100.00
 1418.29        2967.75           1460       67239.00    295454.40
 1418.33        2968.00           1463       67057.00    294648.20
 1418.36        2968.25           1466       65934.00    289674.80
 1418.40        2968.50           1470       63432.00    278599.20
 1418.43        2968.75           1473       61345.00    269365.70
 1418.49        2969.00           1476       58362.00    256176.00
 1418.52        2969.25           1480       54253.00    238023.10
 1418.56        2969.50           1483       51227.00    224666.00
 1418.59        2969.75           1487       47232.00    207046.60
 1418.63        2970.00           1490       43800.00    191923.50
 1418.67        2970.25           1493       40569.00    177697.50
 1418.71        2970.50           1497       36353.00    159151.00
 1418.76        2970.75           1500       32886.00    143913.40
 1418.79        2971.00           1503       29770.00    130229.10
 1418.83        2971.25           1507       25455.00    111296.00
 1418.86        2971.50           1510       22103.00     96601.68
 1418.90        2971.75           1513       18809.00     82172.96
 1418.93        2972.00           1517       14646.00     63953.85
 1418.99        2972.25           1520       11215.00     48951.76
 1419.03        2972.50           1523        7978.00     34809.08
 1419.06        2972.75           1527        3894.00     16981.19
 1419.10        2973.00           1530        1843.00      8034.44
 1419.13        2973.25           1533         824.00      3591.02
 1419.17        2973.50           1537         239.00      1040.57
 1419.22        2973.75           1540         142.00       617.71
 1419.26        2974.00           1544          92.00       399.74
 1419.29        2974.25           1547          81.00       351.79
 1419.33        2974.50           1550          80.00       347.43
 1419.36        2974.75           1554          74.00       321.28
 1419.40        2975.00           1557          70.00       303.84
 1419.45        2975.25           1560          66.00       286.40
 1419.49        2975.50           1564          68.00       295.12
 1419.52        2975.75           1567          68.00       295.12
 1419.56        2976.00           1570          67.00       290.76
 1419.59        2976.25           1574          66.00       286.40
 1419.63        2976.50           1577          69.00       299.48
 1419.68        2976.75           1580          69.00       299.48
 1419.72        2977.00           1584          75.00       325.63
 1419.75        2977.25           1587          74.00       321.28
 1419.79        2977.50           1591          59.00       255.89
 1419.82        2977.75           1594          65.00       282.04
 1419.86        2978.00           1597          66.00       286.40
 1419.91        2978.25           1601          73.00       316.92
 1419.95        2978.50           1604          77.00       334.35
 1419.98        2978.75           1607          75.00       325.63
 1420.02        2979.00           1611          66.00       286.40
 1420.05        2979.25           1614          63.00       273.32
 1420.09        2979.50           1617          64.00       277.68
 1420.14        2979.75           1621          70.00       303.84
 1420.18        2980.00           1624          64.00       277.68
 1420.21        2980.25           1628          64.00       277.68
 1420.25        2980.50           1631          70.00       303.84
 1420.28        2980.75           1634          62.00       268.96
 1420.32        2981.00           1638          65.00       282.04
 1420.37        2981.25           1641          68.00       295.12
 1420.41        2981.50           1644          59.00       255.89
 1420.44        2981.75           1648          64.00       277.68
 1420.48        2982.00           1651          61.00       264.61
 1420.51        2982.25           1654          59.00       255.89
 1420.55        2982.50           1658          65.00       282.04
 1420.60        2982.75           1661          60.00       260.25
 1420.64        2983.00           1665          62.00       268.96
 1420.67        2983.25           1668          61.00       264.61
 1420.71        2983.50           1671          73.00       316.92
 1420.74        2983.75           1675          68.00       295.12
 1420.78        2984.00           1678          66.00       286.40
HS scan finished at 23:41:08
end
