************************************************************
  HS Scan of (1) Internal mercury lamp
************************************************************
Integration time is 0.2294 seconds per sample
dh260117Sodankyla 67.3675-26.633 2.643241pr990
************************************************************
Dead Time -------------------------  2.7E-08 
Number of Cycles Used -------------  4 
Starting Wavelength (Angstroms) ---  2950 
Final Wavelength (Angstoms) -------  2984 
Wavelength Increment (Angstroms) --  .25 
Filter Wheel #1 Position ---------- (1) Ground quartz diffuser (ND=2.32)
Filter Wheel #2 Position ---------- (1) Neutral Density 0.494



************************************************************
HS scan start time = 23:33:59
Dark Count =  .2 


Time (GMT)  Wavelength (Ang)  Step Number  Raw Counts  Counts/Second

 1414.49        2950.00           1223          76.00       330.43
 1414.60        2950.25           1226          84.00       365.30
 1414.63        2950.50           1229          78.00       339.15
 1414.69        2950.75           1233          70.00       304.27
 1414.72        2951.00           1236          76.00       330.43
 1414.76        2951.25           1239          83.00       360.95
 1414.79        2951.50           1243          75.00       326.07
 1414.83        2951.75           1246          77.00       334.79
 1414.86        2952.00           1249          79.00       343.51
 1414.92        2952.25           1253          78.00       339.15
 1414.96        2952.50           1256          80.00       347.87
 1414.99        2952.75           1259          79.00       343.51
 1415.02        2953.00           1263          83.00       360.95
 1415.06        2953.25           1266          79.00       343.51
 1415.09        2953.50           1269          78.00       339.15
 1415.15        2953.75           1273          80.00       347.87
 1415.19        2954.00           1276          74.00       321.71
 1415.22        2954.25           1279          80.00       347.87
 1415.25        2954.50           1283          74.00       321.71
 1415.29        2954.75           1286          72.00       312.99
 1415.32        2955.00           1289          80.00       347.87
 1415.38        2955.25           1293          79.00       343.51
 1415.41        2955.50           1296          88.00       382.74
 1415.45        2955.75           1299          79.00       343.51
 1415.48        2956.00           1303          77.00       334.79
 1415.52        2956.25           1306          73.00       317.35
 1415.58        2956.50           1309          76.00       330.43
 1415.61        2956.75           1313          69.00       299.92
 1415.65        2957.00           1316          75.00       326.07
 1415.68        2957.25           1319          75.00       326.07
 1415.72        2957.50           1323          72.00       312.99
 1415.75        2957.75           1326          74.00       321.71
 1415.81        2958.00           1329          74.00       321.71
 1415.84        2958.25           1333          73.00       317.35
 1415.88        2958.50           1336          78.00       339.15
 1415.91        2958.75           1339          72.00       312.99
 1415.95        2959.00           1343          73.00       317.35
 1415.98        2959.25           1346          73.00       317.35
 1416.04        2959.50           1349          71.00       308.63
 1416.07        2959.75           1353          74.00       321.71
 1416.11        2960.00           1356          76.00       330.43
 1416.14        2960.25           1359          69.00       299.92
 1416.18        2960.50           1363          77.00       334.79
 1416.22        2960.75           1366          83.00       360.95
 1416.27        2961.00           1369          96.00       417.62
 1416.30        2961.25           1373          96.00       417.62
 1416.34        2961.50           1376         163.00       709.69
 1416.37        2961.75           1379         886.00      3861.78
 1416.41        2962.00           1383        3199.00     13949.46
 1416.46        2962.25           1386        5563.00     24265.24
 1416.50        2962.50           1389        7941.00     34647.92
 1416.53        2962.75           1393       12131.00     52956.23
 1416.57        2963.00           1396       15200.00     66377.80
 1416.60        2963.25           1400       19454.00     84997.81
 1416.64        2963.50           1403       22835.00     99810.04
 1416.70        2963.75           1406       26135.00    114278.80
 1416.73        2964.00           1410       30322.00    132653.00
 1416.77        2964.25           1413       33748.00    147701.20
 1416.80        2964.50           1416       37012.00    162049.20
 1416.84        2964.75           1420       41234.00    180625.00
 1416.88        2965.00           1423       44313.00    194183.70
 1416.93        2965.25           1426       47347.00    207553.90
 1416.97        2965.50           1430       51545.00    226069.70
 1417.00        2965.75           1433       54686.00    239935.60
 1417.04        2966.00           1436       57908.00    254169.90
 1417.07        2966.25           1440       61848.00    271591.10
 1417.13        2966.50           1443       64244.00    282193.40
 1417.16        2966.75           1446       65930.00    289657.50
 1417.20        2967.00           1450       66647.00    292832.70
 1417.23        2967.25           1453       67231.00    295419.40
 1417.27        2967.50           1456       66933.00    294099.40
 1417.30        2967.75           1460       67143.00    295029.60
 1417.36        2968.00           1463       67051.00    294622.10
 1417.40        2968.25           1466       66261.00    291123.30
 1417.43        2968.50           1470       64377.00    282782.10
 1417.46        2968.75           1473       61649.00    270710.80
 1417.50        2969.00           1476       58974.00    258881.70
 1417.53        2969.25           1480       55102.00    241772.80
 1417.59        2969.50           1483       51845.00    227393.60
 1417.63        2969.75           1487       47732.00    209251.30
 1417.66        2970.00           1490       44391.00    194527.30
 1417.70        2970.25           1493       41363.00    181192.90
 1417.73        2970.50           1497       36891.00    161517.10
 1417.77        2970.75           1500       33810.00    147973.60
 1417.83        2971.00           1503       30395.00    132973.50
 1417.86        2971.25           1507       26015.00    113752.50
 1417.90        2971.50           1510       22883.00    100020.40
 1417.93        2971.75           1513       19565.00     85483.92
 1417.97        2972.00           1517       15145.00     66137.18
 1418.00        2972.25           1520       11928.00     52068.79
 1418.06        2972.50           1523        8749.00     38177.08
 1418.09        2972.75           1527        4507.00     19656.46
 1418.13        2973.00           1530        2207.00      9622.38
 1418.16        2973.25           1533        1006.00      4385.00
 1418.20        2973.50           1537         300.00      1306.93
 1418.24        2973.75           1540         153.00       666.10
 1418.29        2974.00           1544          92.00       400.18
 1418.33        2974.25           1547          87.00       378.38
 1418.36        2974.50           1550          75.00       326.07
 1418.39        2974.75           1554          72.00       312.99
 1418.43        2975.00           1557          89.00       387.10
 1418.49        2975.25           1560          74.00       321.71
 1418.52        2975.50           1564          77.00       334.79
 1418.56        2975.75           1567          65.00       282.48
 1418.59        2976.00           1570          65.00       282.48
 1418.63        2976.25           1574          62.00       269.40
 1418.66        2976.50           1577          66.00       286.84
 1418.72        2976.75           1580          70.00       304.27
 1418.75        2977.00           1584          65.00       282.48
 1418.79        2977.25           1587          69.00       299.92
 1418.82        2977.50           1591          55.00       238.89
 1418.86        2977.75           1594          70.00       304.27
 1418.89        2978.00           1597          66.00       286.84
 1418.95        2978.25           1601          67.00       291.20
 1418.98        2978.50           1604          66.00       286.84
 1419.02        2978.75           1607          64.00       278.12
 1419.05        2979.00           1611          60.00       260.68
 1419.09        2979.25           1614          67.00       291.20
 1419.13        2979.50           1617          60.00       260.68
 1419.18        2979.75           1621          68.00       295.56
 1419.21        2980.00           1624          71.00       308.63
 1419.25        2980.25           1628          60.00       260.68
 1419.28        2980.50           1631          73.00       317.35
 1419.32        2980.75           1634          63.00       273.76
 1419.37        2981.00           1638          67.00       291.20
 1419.41        2981.25           1641          65.00       282.48
 1419.44        2981.50           1644          66.00       286.84
 1419.48        2981.75           1648          64.00       278.12
 1419.51        2982.00           1651          63.00       273.76
 1419.55        2982.25           1654          70.00       304.27
 1419.60        2982.50           1658          66.00       286.84
 1419.64        2982.75           1661          66.00       286.84
 1419.67        2983.00           1665          64.00       278.12
 1419.71        2983.25           1668          69.00       299.92
 1419.74        2983.50           1671          56.00       243.24
 1419.78        2983.75           1675          68.00       295.56
 1419.83        2984.00           1678          71.00       308.63
HS scan finished at 23:40:10
end
