************************************************************
  HS Scan of (1) Internal mercury lamp
************************************************************
Integration time is 0.2294 seconds per sample
dh020217Sodankyla 67.3675-26.633 2.643241pr990
************************************************************
Dead Time -------------------------  2.7E-08 
Number of Cycles Used -------------  4 
Starting Wavelength (Angstroms) ---  2950 
Final Wavelength (Angstoms) -------  2984 
Wavelength Increment (Angstroms) --  .25 
Filter Wheel #1 Position ---------- (1) Ground quartz diffuser (ND=2.32)
Filter Wheel #2 Position ---------- (1) Neutral Density 0.494



************************************************************
HS scan start time = 23:44:48
Dark Count =  .1 


Time (GMT)  Wavelength (Ang)  Step Number  Raw Counts  Counts/Second

 1425.31        2950.00           1223          77.00       335.23
 1425.41        2950.25           1226          76.00       330.87
 1425.45        2950.50           1229          72.00       313.43
 1425.50        2950.75           1233          67.00       291.63
 1425.54        2951.00           1236          73.00       317.79
 1425.57        2951.25           1239          77.00       335.23
 1425.61        2951.50           1243          80.00       348.30
 1425.64        2951.75           1246          81.00       352.66
 1425.69        2952.00           1249          77.00       335.23
 1425.74        2952.25           1253          78.00       339.58
 1425.77        2952.50           1256          82.00       357.02
 1425.81        2952.75           1259          71.00       309.07
 1425.84        2953.00           1263          81.00       352.66
 1425.87        2953.25           1266          77.00       335.23
 1425.93        2953.50           1269          76.00       330.87
 1425.97        2953.75           1273          79.00       343.94
 1426.00        2954.00           1276          81.00       352.66
 1426.04        2954.25           1279          74.00       322.15
 1426.07        2954.50           1283          75.00       326.51
 1426.12        2954.75           1286          78.00       339.58
 1426.16        2955.00           1289          84.00       365.74
 1426.20        2955.25           1293          73.00       317.79
 1426.23        2955.50           1296          70.00       304.71
 1426.27        2955.75           1299          73.00       317.79
 1426.30        2956.00           1303          76.00       330.87
 1426.36        2956.25           1306          74.00       322.15
 1426.40        2956.50           1309          74.00       322.15
 1426.43        2956.75           1313          74.00       322.15
 1426.47        2957.00           1316          78.00       339.58
 1426.50        2957.25           1319          74.00       322.15
 1426.54        2957.50           1323          77.00       335.23
 1426.59        2957.75           1326          80.00       348.30
 1426.63        2958.00           1329          83.00       361.38
 1426.66        2958.25           1333          62.00       269.84
 1426.70        2958.50           1336          79.00       343.94
 1426.73        2958.75           1339          77.00       335.23
 1426.79        2959.00           1343          79.00       343.94
 1426.83        2959.25           1346          72.00       313.43
 1426.86        2959.50           1349          68.00       295.99
 1426.90        2959.75           1353          72.00       313.43
 1426.93        2960.00           1356          79.00       343.94
 1426.97        2960.25           1359          83.00       361.38
 1427.03        2960.50           1363          86.00       374.46
 1427.06        2960.75           1366          92.00       400.61
 1427.09        2961.00           1369          89.00       387.54
 1427.13        2961.25           1373         107.00       466.00
 1427.16        2961.50           1376         273.00      1189.66
 1427.22        2961.75           1379        1273.00      5549.66
 1427.26        2962.00           1383        3642.00     15882.57
 1427.29        2962.25           1386        6229.00     27172.94
 1427.33        2962.50           1389        8806.00     38426.51
 1427.36        2962.75           1393       13027.00     56874.11
 1427.40        2963.00           1396       16118.00     70394.79
 1427.45        2963.25           1400       20426.00     89255.38
 1427.49        2963.50           1403       23691.00    103562.50
 1427.52        2963.75           1406       27157.00    118762.50
 1427.56        2964.00           1410       31422.00    137483.70
 1427.60        2964.25           1413       34582.00    151366.70
 1427.65        2964.50           1416       38042.00    166579.70
 1427.69        2964.75           1420       42171.00    184750.60
 1427.73        2965.00           1423       45313.00    198589.90
 1427.76        2965.25           1426       48328.00    211879.50
 1427.80        2965.50           1430       52351.00    229627.20
 1427.84        2965.75           1433       55653.00    244206.90
 1427.89        2966.00           1436       58713.00    257728.40
 1427.92        2966.25           1440       62596.00    274900.80
 1427.96        2966.50           1443       65037.00    285704.20
 1427.99        2966.75           1446       65858.00    289339.20
 1428.03        2967.00           1450       66943.00    294144.20
 1428.09        2967.25           1453       66934.00    294104.30
 1428.12        2967.50           1456       67372.00    296044.30
 1428.16        2967.75           1460       67197.00    295269.20
 1428.19        2968.00           1463       66873.00    293834.10
 1428.23        2968.25           1466       65737.00    288803.40
 1428.28        2968.50           1470       63776.00    280122.50
 1428.32        2968.75           1473       60745.00    266712.80
 1428.35        2969.00           1476       58082.00    254939.30
 1428.39        2969.25           1480       54159.00    237608.90
 1428.42        2969.50           1483       51189.00    224499.20
 1428.46        2969.75           1487       47011.00    206073.20
 1428.52        2970.00           1490       43501.00    190607.40
 1428.55        2970.25           1493       40258.00    176329.70
 1428.59        2970.50           1497       35924.00    157265.80
 1428.62        2970.75           1500       32493.00    142187.80
 1428.66        2971.00           1503       29516.00    129115.00
 1428.72        2971.25           1507       25122.00    109836.60
 1428.75        2971.50           1510       21898.00     95704.26
 1428.79        2971.75           1513       18353.00     80177.31
 1428.82        2972.00           1517       14335.00     62594.37
 1428.86        2972.25           1520       10899.00     47571.53
 1428.92        2972.50           1523        7716.00     33665.72
 1428.95        2972.75           1527        3685.00     16070.18
 1428.99        2973.00           1530        1731.00      7546.87
 1429.02        2973.25           1533         739.00      3221.29
 1429.06        2973.50           1537         244.00      1063.24
 1429.09        2973.75           1540         141.00       614.22
 1429.15        2974.00           1544          97.00       422.41
 1429.19        2974.25           1547          82.00       357.02
 1429.22        2974.50           1550          78.00       339.58
 1429.26        2974.75           1554          73.00       317.79
 1429.29        2975.00           1557          73.00       317.79
 1429.35        2975.25           1560          73.00       317.79
 1429.38        2975.50           1564          70.00       304.71
 1429.42        2975.75           1567          67.00       291.63
 1429.45        2976.00           1570          65.00       282.91
 1429.49        2976.25           1574          69.00       300.35
 1429.53        2976.50           1577          71.00       309.07
 1429.58        2976.75           1580          68.00       295.99
 1429.61        2977.00           1584          76.00       330.87
 1429.65        2977.25           1587          71.00       309.07
 1429.68        2977.50           1591          67.00       291.63
 1429.72        2977.75           1594          61.00       265.48
 1429.78        2978.00           1597          67.00       291.63
 1429.81        2978.25           1601          63.00       274.20
 1429.85        2978.50           1604          74.00       322.15
 1429.88        2978.75           1607          71.00       309.07
 1429.92        2979.00           1611          66.00       287.27
 1429.95        2979.25           1614          66.00       287.27
 1430.01        2979.50           1617          69.00       300.35
 1430.04        2979.75           1621          71.00       309.07
 1430.08        2980.00           1624          61.00       265.48
 1430.11        2980.25           1628          72.00       313.43
 1430.15        2980.50           1631          66.00       287.27
 1430.21        2980.75           1634          67.00       291.63
 1430.24        2981.00           1638          72.00       313.43
 1430.27        2981.25           1641          69.00       300.35
 1430.31        2981.50           1644          66.00       287.27
 1430.34        2981.75           1648          68.00       295.99
 1430.39        2982.00           1651          68.00       295.99
 1430.44        2982.25           1654          59.00       256.76
 1430.47        2982.50           1658          64.00       278.55
 1430.51        2982.75           1661          67.00       291.63
 1430.54        2983.00           1665          58.00       252.40
 1430.57        2983.25           1668          63.00       274.20
 1430.63        2983.50           1671          59.00       256.76
 1430.67        2983.75           1675          64.00       278.55
 1430.70        2984.00           1678          64.00       278.55
HS scan finished at 23:51:02
end
