************************************************************
  HS Scan of (1) Internal mercury lamp
************************************************************
Integration time is 0.2294 seconds per sample
dh090219Sodankyla 67.3675-26.633 2.535944pr990
************************************************************
Dead Time -------------------------  2.7E-08 
Number of Cycles Used -------------  4 
Starting Wavelength (Angstroms) ---  2950 
Final Wavelength (Angstoms) -------  2984 
Wavelength Increment (Angstroms) --  .25 
Filter Wheel #1 Position ---------- (1) Ground quartz diffuser (ND=2.32)
Filter Wheel #2 Position ---------- (1) Neutral Density 0.494



************************************************************
HS scan start time = 23:20:45
Dark Count =  .2 


Time (GMT)  Wavelength (Ang)  Step Number  Raw Counts  Counts/Second

 1401.27        2950.00           1223         114.00       496.08
 1401.38        2950.25           1226          96.00       417.62
 1401.41        2950.50           1229         103.00       448.13
 1401.44        2950.75           1233         103.00       448.13
 1401.47        2951.00           1236          96.00       417.62
 1401.50        2951.25           1239         100.00       435.05
 1401.53        2951.50           1243          95.00       413.26
 1401.56        2951.75           1246         102.00       443.77
 1401.60        2952.00           1249         106.00       461.21
 1401.63        2952.25           1253         105.00       456.85
 1401.66        2952.50           1256         100.00       435.05
 1401.69        2952.75           1259         102.00       443.77
 1401.72        2953.00           1263         106.00       461.21
 1401.75        2953.25           1266         101.00       439.41
 1401.78        2953.50           1269         102.00       443.77
 1401.82        2953.75           1273          99.00       430.69
 1401.84        2954.00           1276         106.00       461.21
 1401.87        2954.25           1279         105.00       456.85
 1401.91        2954.50           1283         102.00       443.77
 1401.94        2954.75           1286         104.00       452.49
 1401.97        2955.00           1289         107.00       465.57
 1402.01        2955.25           1293         104.00       452.49
 1402.03        2955.50           1296         101.00       439.41
 1402.06        2955.75           1299          97.00       421.98
 1402.09        2956.00           1303          95.00       413.26
 1402.13        2956.25           1306          93.00       404.54
 1402.16        2956.50           1309         101.00       439.41
 1402.19        2956.75           1313         108.00       469.93
 1402.22        2957.00           1316          98.00       426.33
 1402.25        2957.25           1319          96.00       417.62
 1402.28        2957.50           1323          89.00       387.10
 1402.31        2957.75           1326          90.00       391.46
 1402.34        2958.00           1329          96.00       417.62
 1402.37        2958.25           1333          96.00       417.62
 1402.40        2958.50           1336          98.00       426.33
 1402.43        2958.75           1339         104.00       452.49
 1402.46        2959.00           1343         105.00       456.85
 1402.49        2959.25           1346          93.00       404.54
 1402.52        2959.50           1349         107.00       465.57
 1402.56        2959.75           1353         106.00       461.21
 1402.59        2960.00           1356          96.00       417.62
 1402.62        2960.25           1359         100.00       435.05
 1402.65        2960.50           1363         105.00       456.85
 1402.68        2960.75           1366         113.00       491.72
 1402.71        2961.00           1369         115.00       500.44
 1402.75        2961.25           1373         110.00       478.65
 1402.78        2961.50           1376         144.00       626.86
 1402.81        2961.75           1379         551.00      2401.20
 1402.84        2962.00           1383        2462.00     10734.59
 1402.87        2962.25           1386        4576.00     19957.57
 1402.90        2962.50           1389        6867.00     29957.96
 1402.93        2962.75           1393       10299.00     44949.03
 1402.96        2963.00           1396       13069.00     57057.32
 1402.99        2963.25           1400       16547.00     72271.68
 1403.02        2963.50           1403       19445.00     84958.40
 1403.06        2963.75           1406       22197.00     97014.04
 1403.09        2964.00           1410       25270.00    110485.20
 1403.12        2964.25           1413       27911.00    122070.40
 1403.15        2964.50           1416       30500.00    133434.50
 1403.18        2964.75           1420       33971.00    148681.10
 1403.21        2965.00           1423       36445.00    159556.00
 1403.24        2965.25           1426       39151.00    171458.00
 1403.27        2965.50           1430       42563.00    186476.20
 1403.30        2965.75           1433       44994.00    197183.90
 1403.33        2966.00           1436       47482.00    208149.10
 1403.37        2966.25           1440       50600.00    221900.10
 1403.40        2966.50           1443       52484.00    230213.80
 1403.43        2966.75           1446       53205.00    233396.40
 1403.46        2967.00           1450       53959.00    236725.30
 1403.49        2967.25           1453       54226.00    237904.30
 1403.52        2967.50           1456       54351.00    238456.20
 1403.55        2967.75           1460       54336.00    238390.00
 1403.59        2968.00           1463       54061.00    237175.70
 1403.62        2968.25           1466       53107.00    232963.80
 1403.65        2968.50           1470       51119.00    224189.90
 1403.68        2968.75           1473       49020.00    214930.70
 1403.71        2969.00           1476       46830.00    205274.90
 1403.74        2969.25           1480       43730.00    191615.60
 1403.78        2969.50           1483       41290.00    180871.60
 1403.81        2969.75           1487       38155.00    167076.30
 1403.84        2970.00           1490       35604.00    155858.50
 1403.87        2970.25           1493       33075.00    144744.20
 1403.90        2970.50           1497       29512.00    129097.00
 1403.93        2970.75           1500       27040.00    118248.80
 1403.96        2971.00           1503       24136.00    105512.90
 1404.00        2971.25           1507       20789.00     90845.06
 1404.03        2971.50           1510       18209.00     79546.43
 1404.06        2971.75           1513       15779.00     68911.01
 1404.09        2972.00           1517       12282.00     53616.36
 1404.12        2972.25           1520        9668.00     42191.90
 1404.15        2972.50           1523        7233.00     31556.08
 1404.18        2972.75           1527        3873.00     16890.00
 1404.22        2973.00           1530        1785.00      7781.93
 1404.25        2973.25           1533         805.00      3508.62
 1404.28        2973.50           1537         290.00      1263.34
 1404.31        2973.75           1540         140.00       609.43
 1404.34        2974.00           1544         112.00       487.36
 1404.37        2974.25           1547         103.00       448.13
 1404.40        2974.50           1550          99.00       430.69
 1404.44        2974.75           1554          90.00       391.46
 1404.47        2975.00           1557          83.00       360.95
 1404.50        2975.25           1560          89.00       387.10
 1404.53        2975.50           1564          88.00       382.74
 1404.56        2975.75           1567          95.00       413.26
 1404.59        2976.00           1570          98.00       426.33
 1404.62        2976.25           1574          92.00       400.18
 1404.65        2976.50           1577          90.00       391.46
 1404.69        2976.75           1580          90.00       391.46
 1404.71        2977.00           1584          95.00       413.26
 1404.75        2977.25           1587          75.00       326.07
 1404.78        2977.50           1591          90.00       391.46
 1404.81        2977.75           1594          88.00       382.74
 1404.84        2978.00           1597          85.00       369.66
 1404.87        2978.25           1601          89.00       387.10
 1404.90        2978.50           1604          89.00       387.10
 1404.93        2978.75           1607          91.00       395.82
 1404.97        2979.00           1611          84.00       365.30
 1405.00        2979.25           1614          84.00       365.30
 1405.03        2979.50           1617          77.00       334.79
 1405.06        2979.75           1621          83.00       360.95
 1405.09        2980.00           1624          85.00       369.66
 1405.12        2980.25           1628          88.00       382.74
 1405.15        2980.50           1631          79.00       343.51
 1405.19        2980.75           1634          86.00       374.02
 1405.22        2981.00           1638          91.00       395.82
 1405.25        2981.25           1641          82.00       356.59
 1405.28        2981.50           1644          86.00       374.02
 1405.31        2981.75           1648          88.00       382.74
 1405.34        2982.00           1651          72.00       312.99
 1405.37        2982.25           1654          80.00       347.87
 1405.41        2982.50           1658          90.00       391.46
 1405.44        2982.75           1661          79.00       343.51
 1405.47        2983.00           1665          88.00       382.74
 1405.50        2983.25           1668          84.00       365.30
 1405.53        2983.50           1671          89.00       387.10
 1405.56        2983.75           1675          87.00       378.38
 1405.59        2984.00           1678          81.00       352.23
HS scan finished at 23:25:54
end
