************************************************************
  HS Scan of (1) Internal mercury lamp
************************************************************
Integration time is 0.2294 seconds per sample
dh160217Sodankyla 67.3675-26.633 2.643241pr990
************************************************************
Dead Time -------------------------  2.7E-08 
Number of Cycles Used -------------  4 
Starting Wavelength (Angstroms) ---  2950 
Final Wavelength (Angstoms) -------  2984 
Wavelength Increment (Angstroms) --  .25 
Filter Wheel #1 Position ---------- (1) Ground quartz diffuser (ND=2.32)
Filter Wheel #2 Position ---------- (1) Neutral Density 0.494



************************************************************
HS scan start time = 23:46:24
Dark Count =  .2 


Time (GMT)  Wavelength (Ang)  Step Number  Raw Counts  Counts/Second

 1426.90        2950.00           1223          77.00       334.79
 1427.01        2950.25           1226          72.00       312.99
 1427.04        2950.50           1229          86.00       374.02
 1427.10        2950.75           1233          82.00       356.59
 1427.14        2951.00           1236          80.00       347.87
 1427.17        2951.25           1239          81.00       352.23
 1427.20        2951.50           1243          81.00       352.23
 1427.24        2951.75           1246          83.00       360.95
 1427.30        2952.00           1249          79.00       343.51
 1427.33        2952.25           1253          82.00       356.59
 1427.37        2952.50           1256          77.00       334.79
 1427.40        2952.75           1259          79.00       343.51
 1427.44        2953.00           1263          75.00       326.07
 1427.47        2953.25           1266          75.00       326.07
 1427.53        2953.50           1269          77.00       334.79
 1427.56        2953.75           1273          82.00       356.59
 1427.60        2954.00           1276          76.00       330.43
 1427.63        2954.25           1279          78.00       339.15
 1427.67        2954.50           1283          87.00       378.38
 1427.73        2954.75           1286          76.00       330.43
 1427.76        2955.00           1289          74.00       321.71
 1427.80        2955.25           1293          75.00       326.07
 1427.83        2955.50           1296          72.00       312.99
 1427.87        2955.75           1299          70.00       304.27
 1427.91        2956.00           1303          81.00       352.23
 1427.96        2956.25           1306          83.00       360.95
 1428.00        2956.50           1309          74.00       321.71
 1428.03        2956.75           1313          82.00       356.59
 1428.06        2957.00           1316          80.00       347.87
 1428.10        2957.25           1319          81.00       352.23
 1428.16        2957.50           1323          83.00       360.95
 1428.19        2957.75           1326          80.00       347.87
 1428.23        2958.00           1329          82.00       356.59
 1428.26        2958.25           1333          80.00       347.87
 1428.30        2958.50           1336          76.00       330.43
 1428.34        2958.75           1339          84.00       365.30
 1428.39        2959.00           1343          74.00       321.71
 1428.42        2959.25           1346          65.00       282.48
 1428.46        2959.50           1349          78.00       339.15
 1428.49        2959.75           1353          75.00       326.07
 1428.53        2960.00           1356          84.00       365.30
 1428.59        2960.25           1359          85.00       369.66
 1428.62        2960.50           1363          83.00       360.95
 1428.66        2960.75           1366          93.00       404.54
 1428.69        2961.00           1369          91.00       395.82
 1428.72        2961.25           1373         110.00       478.65
 1428.78        2961.50           1376         274.00      1193.59
 1428.82        2961.75           1379        1174.00      5117.53
 1428.85        2962.00           1383        3601.00     15703.26
 1428.89        2962.25           1386        6140.00     26783.97
 1428.92        2962.50           1389        8828.00     38522.18
 1428.96        2962.75           1393       12933.00     56462.65
 1429.02        2963.00           1396       15886.00     69379.19
 1429.05        2963.25           1400       20337.00     88865.10
 1429.09        2963.50           1403       23621.00    103255.20
 1429.12        2963.75           1406       26729.00    116884.40
 1429.16        2964.00           1410       31222.00    136604.90
 1429.22        2964.25           1413       34559.00    151265.20
 1429.25        2964.50           1416       37877.00    165853.50
 1429.29        2964.75           1420       42138.00    184604.90
 1429.32        2965.00           1423       45124.00    197756.70
 1429.36        2965.25           1426       48285.00    211689.50
 1429.39        2965.50           1430       52610.00    230770.00
 1429.45        2965.75           1433       55723.00    244515.70
 1429.49        2966.00           1436       58700.00    257670.50
 1429.52        2966.25           1440       62722.00    275457.90
 1429.56        2966.50           1443       64814.00    284716.50
 1429.59        2966.75           1446       66303.00    291309.30
 1429.65        2967.00           1450       67314.00    295787.00
 1429.69        2967.25           1453       67359.00    295986.30
 1429.72        2967.50           1456       67344.00    295919.90
 1429.76        2967.75           1460       67204.00    295299.70
 1429.79        2968.00           1463       66877.00    293851.40
 1429.83        2968.25           1466       66252.00    291083.40
 1429.89        2968.50           1470       63794.00    280201.70
 1429.92        2968.75           1473       61537.00    270215.40
 1429.95        2969.00           1476       58580.00    257140.00
 1429.99        2969.25           1480       54389.00    238624.00
 1430.02        2969.50           1483       51507.00    225902.00
 1430.07        2969.75           1487       47352.00    207576.00
 1430.12        2970.00           1490       44163.00    193522.90
 1430.15        2970.25           1493       40650.00    178054.50
 1430.19        2970.50           1497       36422.00    159454.90
 1430.22        2970.75           1500       33052.00    144643.10
 1430.26        2971.00           1503       29883.00    130725.70
 1430.32        2971.25           1507       25499.00    111489.40
 1430.35        2971.50           1510       22188.00     96974.59
 1430.39        2971.75           1513       18696.00     81678.63
 1430.42        2972.00           1517       14487.00     63258.78
 1430.46        2972.25           1520       11155.00     48689.95
 1430.52        2972.50           1523        8022.00     35001.68
 1430.55        2972.75           1527        3962.00     17278.33
 1430.59        2973.00           1530        1876.00      8178.79
 1430.62        2973.25           1533         830.00      3617.62
 1430.66        2973.50           1537         254.00      1106.40
 1430.69        2973.75           1540         130.00       565.83
 1430.75        2974.00           1544          94.00       408.90
 1430.78        2974.25           1547          85.00       369.66
 1430.82        2974.50           1550          83.00       360.95
 1430.85        2974.75           1554          77.00       334.79
 1430.89        2975.00           1557          70.00       304.27
 1430.95        2975.25           1560          72.00       312.99
 1430.98        2975.50           1564          74.00       321.71
 1431.02        2975.75           1567          73.00       317.35
 1431.05        2976.00           1570          72.00       312.99
 1431.09        2976.25           1574          73.00       317.35
 1431.13        2976.50           1577          68.00       295.56
 1431.18        2976.75           1580          62.00       269.40
 1431.21        2977.00           1584          70.00       304.27
 1431.25        2977.25           1587          66.00       286.84
 1431.28        2977.50           1591          61.00       265.04
 1431.31        2977.75           1594          69.00       299.92
 1431.37        2978.00           1597          74.00       321.71
 1431.41        2978.25           1601          73.00       317.35
 1431.44        2978.50           1604          63.00       273.76
 1431.48        2978.75           1607          67.00       291.20
 1431.51        2979.00           1611          64.00       278.12
 1431.57        2979.25           1614          62.00       269.40
 1431.61        2979.50           1617          66.00       286.84
 1431.64        2979.75           1621          72.00       312.99
 1431.67        2980.00           1624          68.00       295.56
 1431.71        2980.25           1628          67.00       291.20
 1431.74        2980.50           1631          62.00       269.40
 1431.80        2980.75           1634          73.00       317.35
 1431.84        2981.00           1638          68.00       295.56
 1431.87        2981.25           1641          70.00       304.27
 1431.91        2981.50           1644          70.00       304.27
 1431.94        2981.75           1648          62.00       269.40
 1432.00        2982.00           1651          63.00       273.76
 1432.03        2982.25           1654          68.00       295.56
 1432.07        2982.50           1658          60.00       260.68
 1432.10        2982.75           1661          68.00       295.56
 1432.14        2983.00           1665          61.00       265.04
 1432.17        2983.25           1668          66.00       286.84
 1432.23        2983.50           1671          66.00       286.84
 1432.27        2983.75           1675          61.00       265.04
 1432.30        2984.00           1678          62.00       269.40
HS scan finished at 23:52:38
end
