************************************************************
  HS Scan of (1) Internal mercury lamp
************************************************************
Integration time is 0.2294 seconds per sample
dh090217Sodankyla 67.3675-26.633 2.643241pr990
************************************************************
Dead Time -------------------------  2.7E-08 
Number of Cycles Used -------------  4 
Starting Wavelength (Angstroms) ---  2950 
Final Wavelength (Angstoms) -------  2984 
Wavelength Increment (Angstroms) --  .25 
Filter Wheel #1 Position ---------- (1) Ground quartz diffuser (ND=2.32)
Filter Wheel #2 Position ---------- (1) Neutral Density 0.494



************************************************************
HS scan start time = 23:46:46
Dark Count =  .1 


Time (GMT)  Wavelength (Ang)  Step Number  Raw Counts  Counts/Second

 1427.27        2950.00           1223          72.00       313.43
 1427.37        2950.25           1226          77.00       335.23
 1427.41        2950.50           1229          76.00       330.87
 1427.44        2950.75           1233          81.00       352.66
 1427.48        2951.00           1236          77.00       335.23
 1427.51        2951.25           1239          76.00       330.87
 1427.54        2951.50           1243          80.00       348.30
 1427.58        2951.75           1246          83.00       361.38
 1427.64        2952.00           1249          77.00       335.23
 1427.67        2952.25           1253          77.00       335.23
 1427.71        2952.50           1256          82.00       357.02
 1427.74        2952.75           1259          78.00       339.58
 1427.78        2953.00           1263          71.00       309.07
 1427.84        2953.25           1266          78.00       339.58
 1427.87        2953.50           1269          78.00       339.58
 1427.90        2953.75           1273          70.00       304.71
 1427.94        2954.00           1276          86.00       374.46
 1427.97        2954.25           1279          69.00       300.35
 1428.03        2954.50           1283          76.00       330.87
 1428.07        2954.75           1286          77.00       335.23
 1428.10        2955.00           1289          76.00       330.87
 1428.14        2955.25           1293          80.00       348.30
 1428.17        2955.50           1296          76.00       330.87
 1428.23        2955.75           1299          83.00       361.38
 1428.26        2956.00           1303          75.00       326.51
 1428.30        2956.25           1306          89.00       387.54
 1428.33        2956.50           1309          72.00       313.43
 1428.37        2956.75           1313          73.00       317.79
 1428.43        2957.00           1316          74.00       322.15
 1428.46        2957.25           1319          74.00       322.15
 1428.50        2957.50           1323          81.00       352.66
 1428.53        2957.75           1326          79.00       343.94
 1428.56        2958.00           1329          75.00       326.51
 1428.62        2958.25           1333          78.00       339.58
 1428.66        2958.50           1336          65.00       282.91
 1428.69        2958.75           1339          75.00       326.51
 1428.73        2959.00           1343          76.00       330.87
 1428.76        2959.25           1346          86.00       374.46
 1428.82        2959.50           1349          71.00       309.07
 1428.86        2959.75           1353          72.00       313.43
 1428.89        2960.00           1356          70.00       304.71
 1428.93        2960.25           1359          70.00       304.71
 1428.96        2960.50           1363          89.00       387.54
 1429.01        2960.75           1366          72.00       313.43
 1429.05        2961.00           1369          97.00       422.41
 1429.09        2961.25           1373          95.00       413.69
 1429.12        2961.50           1376         188.00       819.11
 1429.16        2961.75           1379         973.00      4241.55
 1429.21        2962.00           1383        3233.00     14098.22
 1429.25        2962.25           1386        5464.00     23833.55
 1429.28        2962.50           1389        8083.00     35268.53
 1429.32        2962.75           1393       12069.00     52685.62
 1429.35        2963.00           1396       15122.00     66037.00
 1429.41        2963.25           1400       19212.00     83938.49
 1429.45        2963.50           1403       22617.00     98855.05
 1429.48        2963.75           1406       25821.00    112902.10
 1429.52        2964.00           1410       30046.00    131441.70
 1429.55        2964.25           1413       33532.00    146752.50
 1429.61        2964.50           1416       36791.00    161077.80
 1429.65        2964.75           1420       41141.00    180216.10
 1429.68        2965.00           1423       43697.00    191470.70
 1429.72        2965.25           1426       47043.00    206214.30
 1429.75        2965.50           1430       51297.00    224975.80
 1429.81        2965.75           1433       54320.00    238319.80
 1429.85        2966.00           1436       57200.00    251041.50
 1429.88        2966.25           1440       61276.00    269061.30
 1429.92        2966.50           1443       63508.00    278936.40
 1429.95        2966.75           1446       64632.00    283911.30
 1430.01        2967.00           1450       65959.00    289786.40
 1430.05        2967.25           1453       66188.00    290800.50
 1430.08        2967.50           1456       66324.00    291402.70
 1430.12        2967.75           1460       66187.00    290796.00
 1430.15        2968.00           1463       66261.00    291123.70
 1430.19        2968.25           1466       65229.00    286554.20
 1430.25        2968.50           1470       63110.00    277175.10
 1430.28        2968.75           1473       60555.00    265872.50
 1430.31        2969.00           1476       57821.00    253785.80
 1430.35        2969.25           1480       54097.00    237335.10
 1430.38        2969.50           1483       50708.00    222377.00
 1430.44        2969.75           1487       46700.00    204702.40
 1430.48        2970.00           1490       43695.00    191461.90
 1430.51        2970.25           1493       40360.00    176778.60
 1430.55        2970.50           1497       36070.00    157907.60
 1430.58        2970.75           1500       32918.00    144054.90
 1430.64        2971.00           1503       29730.00    130054.40
 1430.68        2971.25           1507       25359.00    110875.90
 1430.71        2971.50           1510       22225.00     97137.18
 1430.75        2971.75           1513       18983.00     82935.72
 1430.78        2972.00           1517       14671.00     64064.08
 1430.84        2972.25           1520       11562.00     50469.34
 1430.88        2972.50           1523        8428.00     36775.38
 1430.91        2972.75           1527        4223.00     18417.61
 1430.95        2973.00           1530        2052.00      8946.80
 1430.98        2973.25           1533         935.00      4075.86
 1431.04        2973.50           1537         278.00      1211.46
 1431.07        2973.75           1540         131.00       570.63
 1431.11        2974.00           1544          99.00       431.13
 1431.14        2974.25           1547          83.00       361.38
 1431.18        2974.50           1550          82.00       357.02
 1431.23        2974.75           1554          69.00       300.35
 1431.27        2975.00           1557          71.00       309.07
 1431.30        2975.25           1560          70.00       304.71
 1431.34        2975.50           1564          73.00       317.79
 1431.37        2975.75           1567          70.00       304.71
 1431.43        2976.00           1570          68.00       295.99
 1431.47        2976.25           1574          73.00       317.79
 1431.50        2976.50           1577          71.00       309.07
 1431.53        2976.75           1580          72.00       313.43
 1431.57        2977.00           1584          67.00       291.63
 1431.63        2977.25           1587          64.00       278.55
 1431.66        2977.50           1591          65.00       282.91
 1431.70        2977.75           1594          74.00       322.15
 1431.73        2978.00           1597          66.00       287.27
 1431.77        2978.25           1601          65.00       282.91
 1431.83        2978.50           1604          60.00       261.12
 1431.86        2978.75           1607          70.00       304.71
 1431.89        2979.00           1611          74.00       322.15
 1431.93        2979.25           1614          68.00       295.99
 1431.96        2979.50           1617          67.00       291.63
 1432.02        2979.75           1621          68.00       295.99
 1432.06        2980.00           1624          59.00       256.76
 1432.09        2980.25           1628          76.00       330.87
 1432.13        2980.50           1631          63.00       274.20
 1432.16        2980.75           1634          65.00       282.91
 1432.22        2981.00           1638          64.00       278.55
 1432.25        2981.25           1641          65.00       282.91
 1432.29        2981.50           1644          62.00       269.84
 1432.32        2981.75           1648          63.00       274.20
 1432.36        2982.00           1651          61.00       265.48
 1432.41        2982.25           1654          62.00       269.84
 1432.45        2982.50           1658          62.00       269.84
 1432.48        2982.75           1661          63.00       274.20
 1432.52        2983.00           1665          63.00       274.20
 1432.55        2983.25           1668          71.00       309.07
 1432.61        2983.50           1671          65.00       282.91
 1432.65        2983.75           1675          62.00       269.84
 1432.68        2984.00           1678          66.00       287.27
HS scan finished at 23:53:01
end
