************************************************************
  HS Scan of (1) Internal mercury lamp
************************************************************
Integration time is 0.2294 seconds per sample
dh230219Sodankyla 67.3675-26.633 2.589593pr990
************************************************************
Dead Time -------------------------  2.7E-08 
Number of Cycles Used -------------  4 
Starting Wavelength (Angstroms) ---  2950 
Final Wavelength (Angstoms) -------  2984 
Wavelength Increment (Angstroms) --  .25 
Filter Wheel #1 Position ---------- (1) Ground quartz diffuser (ND=2.32)
Filter Wheel #2 Position ---------- (1) Neutral Density 0.494



************************************************************
HS scan start time = 23:33:11
Dark Count =  .3 


Time (GMT)  Wavelength (Ang)  Step Number  Raw Counts  Counts/Second

 1413.71        2950.00           1223          99.00       430.26
 1413.81        2950.25           1226         100.00       434.62
 1413.84        2950.50           1229          91.00       395.38
 1413.87        2950.75           1233         101.00       438.98
 1413.91        2951.00           1236          94.00       408.46
 1413.94        2951.25           1239         106.00       460.77
 1413.97        2951.50           1243          99.00       430.26
 1414.00        2951.75           1246         103.00       447.70
 1414.03        2952.00           1249          93.00       404.10
 1414.06        2952.25           1253          99.00       430.26
 1414.10        2952.50           1256         100.00       434.62
 1414.13        2952.75           1259         105.00       456.41
 1414.16        2953.00           1263          99.00       430.26
 1414.19        2953.25           1266          97.00       421.54
 1414.22        2953.50           1269          97.00       421.54
 1414.25        2953.75           1273          97.00       421.54
 1414.29        2954.00           1276          88.00       382.31
 1414.32        2954.25           1279         100.00       434.62
 1414.35        2954.50           1283          85.00       369.23
 1414.38        2954.75           1286          98.00       425.90
 1414.41        2955.00           1289          86.00       373.59
 1414.44        2955.25           1293          91.00       395.38
 1414.48        2955.50           1296          98.00       425.90
 1414.51        2955.75           1299         101.00       438.98
 1414.54        2956.00           1303          97.00       421.54
 1414.57        2956.25           1306          97.00       421.54
 1414.60        2956.50           1309         103.00       447.70
 1414.63        2956.75           1313          94.00       408.46
 1414.67        2957.00           1316          89.00       386.66
 1414.69        2957.25           1319         103.00       447.70
 1414.72        2957.50           1323         104.00       452.05
 1414.76        2957.75           1326          99.00       430.26
 1414.79        2958.00           1329          97.00       421.54
 1414.82        2958.25           1333         109.00       473.85
 1414.85        2958.50           1336          96.00       417.18
 1414.88        2958.75           1339          93.00       404.10
 1414.91        2959.00           1343          96.00       417.18
 1414.95        2959.25           1346          97.00       421.54
 1414.98        2959.50           1349          94.00       408.46
 1415.01        2959.75           1353          93.00       404.10
 1415.04        2960.00           1356          90.00       391.02
 1415.07        2960.25           1359         105.00       456.41
 1415.10        2960.50           1363          94.00       408.46
 1415.14        2960.75           1366          97.00       421.54
 1415.17        2961.00           1369         119.00       517.44
 1415.20        2961.25           1373         111.00       482.57
 1415.23        2961.50           1376         166.00       722.33
 1415.26        2961.75           1379         838.00      3652.06
 1415.30        2962.00           1383        2881.00     12561.80
 1415.33        2962.25           1386        5041.00     21986.46
 1415.36        2962.50           1389        7505.00     32743.41
 1415.39        2962.75           1393       10664.00     46543.64
 1415.42        2963.00           1396       13454.00     58740.44
 1415.45        2963.25           1400       17056.00     74498.87
 1415.48        2963.50           1403       19352.00     84550.69
 1415.52        2963.75           1406       22154.00     96825.16
 1415.55        2964.00           1410       25545.00    111690.70
 1415.58        2964.25           1413       27914.00    122083.10
 1415.61        2964.50           1416       30454.00    133232.10
 1415.64        2964.75           1420       33914.00    148430.20
 1415.67        2965.00           1423       36368.00    159217.00
 1415.71        2965.25           1426       38726.00    169587.70
 1415.74        2965.50           1430       42026.00    184111.30
 1415.77        2965.75           1433       44639.00    195619.40
 1415.81        2966.00           1436       46899.00    205578.60
 1415.84        2966.25           1440       50078.00    219596.80
 1415.87        2966.50           1443       51452.00    225658.90
 1415.90        2966.75           1446       52484.00    230213.40
 1415.93        2967.00           1450       52631.00    230862.20
 1415.96        2967.25           1453       52781.00    231524.30
 1416.00        2967.50           1456       52793.00    231577.30
 1416.03        2967.75           1460       52914.00    232111.40
 1416.06        2968.00           1463       52602.00    230734.20
 1416.09        2968.25           1466       51450.00    225650.00
 1416.12        2968.50           1470       49330.00    216297.40
 1416.15        2968.75           1473       47274.00    207231.70
 1416.19        2969.00           1476       44850.00    196549.00
 1416.22        2969.25           1480       41857.00    183367.20
 1416.25        2969.50           1483       39979.00    175100.90
 1416.28        2969.75           1487       36570.00    160105.20
 1416.31        2970.00           1490       34145.00    149445.30
 1416.34        2970.25           1493       31669.00    138567.60
 1416.38        2970.50           1497       27955.00    122263.00
 1416.41        2970.75           1500       25540.00    111668.80
 1416.44        2971.00           1503       22983.00    100458.30
 1416.48        2971.25           1507       19609.00     85676.16
 1416.51        2971.50           1510       17174.00     75015.35
 1416.54        2971.75           1513       14663.00     64028.21
 1416.57        2972.00           1517       11489.00     50149.38
 1416.60        2972.25           1520        8739.00     38132.96
 1416.63        2972.50           1523        6340.00     27656.65
 1416.67        2972.75           1527        3202.00     13962.11
 1416.70        2973.00           1530        1378.00      6006.64
 1416.73        2973.25           1533         628.00      2736.47
 1416.76        2973.50           1537         227.00       988.26
 1416.79        2973.75           1540         130.00       565.40
 1416.82        2974.00           1544         112.00       486.93
 1416.86        2974.25           1547         108.00       469.49
 1416.89        2974.50           1550         100.00       434.62
 1416.92        2974.75           1554          92.00       399.74
 1416.95        2975.00           1557          93.00       404.10
 1416.98        2975.25           1560          91.00       395.38
 1417.01        2975.50           1564          89.00       386.66
 1417.05        2975.75           1567          96.00       417.18
 1417.07        2976.00           1570          97.00       421.54
 1417.10        2976.25           1574          82.00       356.15
 1417.14        2976.50           1577          91.00       395.38
 1417.17        2976.75           1580          84.00       364.87
 1417.20        2977.00           1584          78.00       338.71
 1417.23        2977.25           1587          82.00       356.15
 1417.26        2977.50           1591          89.00       386.66
 1417.29        2977.75           1594          88.00       382.31
 1417.33        2978.00           1597          86.00       373.59
 1417.36        2978.25           1601          84.00       364.87
 1417.39        2978.50           1604          86.00       373.59
 1417.42        2978.75           1607          82.00       356.15
 1417.45        2979.00           1611          91.00       395.38
 1417.48        2979.25           1614          85.00       369.23
 1417.51        2979.50           1617          79.00       343.07
 1417.55        2979.75           1621          84.00       364.87
 1417.58        2980.00           1624          95.00       412.82
 1417.61        2980.25           1628          88.00       382.31
 1417.64        2980.50           1631          90.00       391.02
 1417.67        2980.75           1634          89.00       386.66
 1417.70        2981.00           1638          87.00       377.95
 1417.74        2981.25           1641          85.00       369.23
 1417.77        2981.50           1644          82.00       356.15
 1417.80        2981.75           1648          81.00       351.79
 1417.83        2982.00           1651          89.00       386.66
 1417.86        2982.25           1654          94.00       408.46
 1417.89        2982.50           1658          87.00       377.95
 1417.93        2982.75           1661          85.00       369.23
 1417.96        2983.00           1665          73.00       316.92
 1417.99        2983.25           1668          80.00       347.43
 1418.02        2983.50           1671          77.00       334.35
 1418.05        2983.75           1675          88.00       382.31
 1418.08        2984.00           1678          72.00       312.56
HS scan finished at 23:38:24
end
