************************************************************
  HS Scan of (1) Internal mercury lamp
************************************************************
Integration time is 0.2294 seconds per sample
dh020317Sodankyla 67.3675-26.633 2.428648pr990
************************************************************
Dead Time -------------------------  2.7E-08 
Number of Cycles Used -------------  4 
Starting Wavelength (Angstroms) ---  2950 
Final Wavelength (Angstoms) -------  2984 
Wavelength Increment (Angstroms) --  .25 
Filter Wheel #1 Position ---------- (1) Ground quartz diffuser (ND=2.32)
Filter Wheel #2 Position ---------- (1) Neutral Density 0.494



************************************************************
HS scan start time = 23:44:30
Dark Count =  .1 


Time (GMT)  Wavelength (Ang)  Step Number  Raw Counts  Counts/Second

 1425.00        2950.00           1223          87.00       378.82
 1425.13        2950.25           1226          86.00       374.46
 1425.16        2950.50           1229          88.00       383.18
 1425.19        2950.75           1233          87.00       378.82
 1425.25        2951.00           1236          80.00       348.30
 1425.29        2951.25           1239          83.00       361.38
 1425.32        2951.50           1243          84.00       365.74
 1425.38        2951.75           1246          90.00       391.90
 1425.42        2952.00           1249          87.00       378.82
 1425.45        2952.25           1253          79.00       343.94
 1425.49        2952.50           1256          88.00       383.18
 1425.55        2952.75           1259          86.00       374.46
 1425.58        2953.00           1263          82.00       357.02
 1425.62        2953.25           1266          78.00       339.58
 1425.68        2953.50           1269          81.00       352.66
 1425.71        2953.75           1273          77.00       335.23
 1425.74        2954.00           1276          76.00       330.87
 1425.80        2954.25           1279          78.00       339.58
 1425.84        2954.50           1283          88.00       383.18
 1425.87        2954.75           1286          84.00       365.74
 1425.93        2955.00           1289          76.00       330.87
 1425.97        2955.25           1293          86.00       374.46
 1426.00        2955.50           1296          72.00       313.43
 1426.04        2955.75           1299          81.00       352.66
 1426.10        2956.00           1303          86.00       374.46
 1426.13        2956.25           1306          77.00       335.23
 1426.16        2956.50           1309          79.00       343.94
 1426.22        2956.75           1313          83.00       361.38
 1426.26        2957.00           1316          72.00       313.43
 1426.29        2957.25           1319          85.00       370.10
 1426.35        2957.50           1323          73.00       317.79
 1426.39        2957.75           1326          79.00       343.94
 1426.42        2958.00           1329          81.00       352.66
 1426.47        2958.25           1333          78.00       339.58
 1426.52        2958.50           1336          79.00       343.94
 1426.55        2958.75           1339          80.00       348.30
 1426.59        2959.00           1343          72.00       313.43
 1426.65        2959.25           1346          85.00       370.10
 1426.68        2959.50           1349          82.00       357.02
 1426.72        2959.75           1353          90.00       391.90
 1426.78        2960.00           1356          72.00       313.43
 1426.81        2960.25           1359          80.00       348.30
 1426.85        2960.50           1363          86.00       374.46
 1426.91        2960.75           1366          87.00       378.82
 1426.94        2961.00           1369          96.00       418.05
 1426.98        2961.25           1373         103.00       448.57
 1427.01        2961.50           1376         226.00       984.77
 1427.07        2961.75           1379        1216.00      5301.11
 1427.10        2962.00           1383        3711.00     16183.62
 1427.14        2962.25           1386        6138.00     26775.67
 1427.20        2962.50           1389        9287.00     40527.76
 1427.23        2962.75           1393       13662.00     59650.92
 1427.27        2963.00           1396       17102.00     74701.08
 1427.31        2963.25           1400       21685.00     94770.96
 1427.36        2963.50           1403       25369.00    110919.80
 1427.40        2963.75           1406       28789.00    125923.90
 1427.43        2964.00           1410       33580.00    146963.40
 1427.49        2964.25           1413       37515.00    164261.80
 1427.53        2964.50           1416       40752.00    178503.80
 1427.56        2964.75           1420       45158.00    197906.90
 1427.63        2965.00           1423       48732.00    213661.00
 1427.66        2965.25           1426       52077.00    228417.90
 1427.70        2965.50           1430       56603.00    248403.70
 1427.76        2965.75           1433       59976.00    263312.20
 1427.79        2966.00           1436       63513.00    278958.50
 1427.83        2966.25           1440       68169.00    299575.10
 1427.89        2966.50           1443       70519.00    309989.50
 1427.92        2966.75           1446       71985.00    316489.40
 1427.96        2967.00           1450       72915.00    320613.90
 1428.00        2967.25           1453       73215.00    321944.60
 1428.05        2967.50           1456       73476.00    323102.40
 1428.08        2967.75           1460       73561.00    323479.50
 1428.12        2968.00           1463       73069.00    321297.00
 1428.18        2968.25           1466       72476.00    318666.80
 1428.21        2968.50           1470       69672.00    306235.20
 1428.25        2968.75           1473       67231.00    295419.80
 1428.31        2969.00           1476       63965.00    280958.90
 1428.34        2969.25           1480       59934.00    263126.50
 1428.38        2969.50           1483       56561.00    248218.10
 1428.44        2969.75           1487       51944.00    227830.90
 1428.47        2970.00           1490       48318.00    211835.50
 1428.51        2970.25           1493       44492.00    194972.70
 1428.55        2970.50           1497       40104.00    175651.90
 1428.61        2970.75           1500       36303.00    158932.10
 1428.64        2971.00           1503       32749.00    143312.40
 1428.68        2971.25           1507       28074.00    122786.10
 1428.74        2971.50           1510       24341.00    106412.10
 1428.77        2971.75           1513       20913.00     91388.69
 1428.81        2972.00           1517       16297.00     71178.08
 1428.87        2972.25           1520       12631.00     55142.64
 1428.90        2972.50           1523        8932.00     38976.92
 1428.94        2972.75           1527        4583.00     19988.55
 1429.00        2973.00           1530        2354.00     10263.96
 1429.03        2973.25           1533        1050.00      4577.29
 1429.07        2973.50           1537         323.00      1407.64
 1429.11        2973.75           1540         168.00       731.92
 1429.16        2974.00           1544         107.00       466.00
 1429.19        2974.25           1547          97.00       422.41
 1429.23        2974.50           1550          84.00       365.74
 1429.29        2974.75           1554          79.00       343.94
 1429.32        2975.00           1557          76.00       330.87
 1429.36        2975.25           1560          77.00       335.23
 1429.42        2975.50           1564          75.00       326.51
 1429.45        2975.75           1567          78.00       339.58
 1429.49        2976.00           1570          74.00       322.15
 1429.55        2976.25           1574          79.00       343.94
 1429.58        2976.50           1577          76.00       330.87
 1429.62        2976.75           1580          69.00       300.35
 1429.65        2977.00           1584          81.00       352.66
 1429.71        2977.25           1587          76.00       330.87
 1429.75        2977.50           1591          77.00       335.23
 1429.78        2977.75           1594          71.00       309.07
 1429.84        2978.00           1597          72.00       313.43
 1429.87        2978.25           1601          71.00       309.07
 1429.91        2978.50           1604          69.00       300.35
 1429.97        2978.75           1607          66.00       287.27
 1430.00        2979.00           1611          77.00       335.23
 1430.04        2979.25           1614          73.00       317.79
 1430.07        2979.50           1617          77.00       335.23
 1430.13        2979.75           1621          74.00       322.15
 1430.17        2980.00           1624          64.00       278.55
 1430.20        2980.25           1628          75.00       326.51
 1430.26        2980.50           1631          70.00       304.71
 1430.30        2980.75           1634          69.00       300.35
 1430.33        2981.00           1638          64.00       278.55
 1430.39        2981.25           1641          76.00       330.87
 1430.43        2981.50           1644          75.00       326.51
 1430.46        2981.75           1648          68.00       295.99
 1430.51        2982.00           1651          78.00       339.58
 1430.55        2982.25           1654          70.00       304.71
 1430.59        2982.50           1658          66.00       287.27
 1430.62        2982.75           1661          72.00       313.43
 1430.68        2983.00           1665          73.00       317.79
 1430.72        2983.25           1668          69.00       300.35
 1430.75        2983.50           1671          75.00       326.51
 1430.81        2983.75           1675          71.00       309.07
 1430.85        2984.00           1678          76.00       330.87
HS scan finished at 23:51:10
end
