************************************************************
  HS Scan of (1) Internal mercury lamp
************************************************************
Integration time is 0.2294 seconds per sample
dh090317Sodankyla 67.3675-26.633 2.589593pr990
************************************************************
Dead Time -------------------------  2.7E-08 
Number of Cycles Used -------------  4 
Starting Wavelength (Angstroms) ---  2950 
Final Wavelength (Angstoms) -------  2984 
Wavelength Increment (Angstroms) --  .25 
Filter Wheel #1 Position ---------- (1) Ground quartz diffuser (ND=2.32)
Filter Wheel #2 Position ---------- (1) Neutral Density 0.494



************************************************************
HS scan start time = 23:41:23
Dark Count =  .1 


Time (GMT)  Wavelength (Ang)  Step Number  Raw Counts  Counts/Second

 1421.86        2950.00           1223          83.00       361.38
 1421.99        2950.25           1226          80.00       348.30
 1422.02        2950.50           1229          87.00       378.82
 1422.06        2950.75           1233          76.00       330.87
 1422.10        2951.00           1236          79.00       343.94
 1422.15        2951.25           1239          79.00       343.94
 1422.19        2951.50           1243          83.00       361.38
 1422.22        2951.75           1246          91.00       396.26
 1422.28        2952.00           1249          79.00       343.94
 1422.31        2952.25           1253          92.00       400.61
 1422.35        2952.50           1256          84.00       365.74
 1422.38        2952.75           1259          85.00       370.10
 1422.44        2953.00           1263          93.00       404.97
 1422.48        2953.25           1266          85.00       370.10
 1422.51        2953.50           1269          81.00       352.66
 1422.55        2953.75           1273          74.00       322.15
 1422.60        2954.00           1276          85.00       370.10
 1422.64        2954.25           1279          80.00       348.30
 1422.67        2954.50           1283          80.00       348.30
 1422.72        2954.75           1286          80.00       348.30
 1422.76        2955.00           1289          72.00       313.43
 1422.80        2955.25           1293          90.00       391.90
 1422.83        2955.50           1296          77.00       335.23
 1422.89        2955.75           1299          88.00       383.18
 1422.93        2956.00           1303          76.00       330.87
 1422.96        2956.25           1306          76.00       330.87
 1423.01        2956.50           1309          86.00       374.46
 1423.06        2956.75           1313          74.00       322.15
 1423.09        2957.00           1316          82.00       357.02
 1423.12        2957.25           1319          89.00       387.54
 1423.18        2957.50           1323          90.00       391.90
 1423.22        2957.75           1326          74.00       322.15
 1423.25        2958.00           1329          79.00       343.94
 1423.29        2958.25           1333          75.00       326.51
 1423.34        2958.50           1336          78.00       339.58
 1423.38        2958.75           1339          79.00       343.94
 1423.41        2959.00           1343          72.00       313.43
 1423.47        2959.25           1346          76.00       330.87
 1423.51        2959.50           1349          84.00       365.74
 1423.54        2959.75           1353          81.00       352.66
 1423.58        2960.00           1356          75.00       326.51
 1423.63        2960.25           1359          83.00       361.38
 1423.67        2960.50           1363          83.00       361.38
 1423.70        2960.75           1366          95.00       413.69
 1423.75        2961.00           1369         101.00       439.85
 1423.80        2961.25           1373         102.00       444.21
 1423.83        2961.50           1376         271.00      1180.94
 1423.87        2961.75           1379        1303.00      5680.47
 1423.92        2962.00           1383        3823.00     16672.28
 1423.96        2962.25           1386        6458.00     28172.68
 1423.99        2962.50           1389        9350.00     40803.00
 1424.04        2962.75           1393       13837.00     60416.26
 1424.09        2963.00           1396       17176.00     75024.97
 1424.12        2963.25           1400       21507.00     93991.06
 1424.16        2963.50           1403       25117.00    109814.70
 1424.21        2963.75           1406       28784.00    125902.00
 1424.25        2964.00           1410       33273.00    145614.50
 1424.29        2964.25           1413       36858.00    161372.40
 1424.32        2964.50           1416       40376.00    176849.00
 1424.38        2964.75           1420       44998.00    197202.00
 1424.42        2965.00           1423       48317.00    211831.00
 1424.45        2965.25           1426       51568.00    226171.60
 1424.50        2965.50           1430       56009.00    245779.50
 1424.55        2965.75           1433       59392.00    260730.10
 1424.58        2966.00           1436       62765.00    275648.50
 1424.61        2966.25           1440       67209.00    295322.40
 1424.67        2966.50           1443       69588.00    305863.00
 1424.71        2966.75           1446       71107.00    312596.30
 1424.74        2967.00           1450       71531.00    314476.20
 1424.78        2967.25           1453       72383.00    318254.40
 1424.84        2967.50           1456       72078.00    316901.80
 1424.87        2967.75           1460       72456.00    318578.10
 1424.91        2968.00           1463       72039.00    316728.80
 1424.96        2968.25           1466       70759.00    311053.50
 1425.00        2968.50           1470       68457.00    300851.10
 1425.03        2968.75           1473       65792.00    289047.00
 1425.07        2969.00           1476       62870.00    276113.10
 1425.13        2969.25           1480       58461.00    256614.50
 1425.16        2969.50           1483       55123.00    241866.00
 1425.20        2969.75           1487       50529.00    221587.20
 1425.23        2970.00           1490       47271.00    207219.40
 1425.29        2970.25           1493       43815.00    191990.50
 1425.32        2970.50           1497       38807.00    169945.00
 1425.36        2970.75           1500       35428.00    155085.30
 1425.42        2971.00           1503       31818.00    139222.90
 1425.45        2971.25           1507       27307.00    119420.60
 1425.49        2971.50           1510       23756.00    103847.40
 1425.52        2971.75           1513       20240.00     88440.68
 1425.58        2972.00           1517       15548.00     67900.75
 1425.62        2972.25           1520       12125.00     52930.43
 1425.65        2972.50           1523        8631.00     37662.09
 1425.69        2972.75           1527        4232.00     18456.89
 1425.72        2973.00           1530        2054.00      8955.52
 1425.76        2973.25           1533         958.00      4176.15
 1425.79        2973.50           1537         292.00      1272.49
 1425.85        2973.75           1540         142.00       618.58
 1425.88        2974.00           1544          99.00       431.13
 1425.92        2974.25           1547          85.00       370.10
 1425.95        2974.50           1550          83.00       361.38
 1426.01        2974.75           1554          76.00       330.87
 1426.05        2975.00           1557          79.00       343.94
 1426.08        2975.25           1560          78.00       339.58
 1426.13        2975.50           1564          78.00       339.58
 1426.17        2975.75           1567          78.00       339.58
 1426.21        2976.00           1570          80.00       348.30
 1426.24        2976.25           1574          72.00       313.43
 1426.30        2976.50           1577          66.00       287.27
 1426.34        2976.75           1580          71.00       309.07
 1426.37        2977.00           1584          74.00       322.15
 1426.40        2977.25           1587          65.00       282.91
 1426.46        2977.50           1591          71.00       309.07
 1426.50        2977.75           1594          72.00       313.43
 1426.53        2978.00           1597          66.00       287.27
 1426.59        2978.25           1601          77.00       335.23
 1426.62        2978.50           1604          64.00       278.55
 1426.66        2978.75           1607          69.00       300.35
 1426.69        2979.00           1611          80.00       348.30
 1426.75        2979.25           1614          67.00       291.63
 1426.79        2979.50           1617          75.00       326.51
 1426.82        2979.75           1621          68.00       295.99
 1426.85        2980.00           1624          70.00       304.71
 1426.91        2980.25           1628          69.00       300.35
 1426.95        2980.50           1631          76.00       330.87
 1426.98        2980.75           1634          65.00       282.91
 1427.04        2981.00           1638          57.00       248.04
 1427.07        2981.25           1641          74.00       322.15
 1427.11        2981.50           1644          79.00       343.94
 1427.14        2981.75           1648          72.00       313.43
 1427.20        2982.00           1651          66.00       287.27
 1427.24        2982.25           1654          76.00       330.87
 1427.27        2982.50           1658          66.00       287.27
 1427.31        2982.75           1661          73.00       317.79
 1427.34        2983.00           1665          78.00       339.58
 1427.37        2983.25           1668          73.00       317.79
 1427.41        2983.50           1671          68.00       295.99
 1427.47        2983.75           1675          72.00       313.43
 1427.50        2984.00           1678          68.00       295.99
HS scan finished at 23:47:50
end
