************************************************************
  HS Scan of (1) Internal mercury lamp
************************************************************
Integration time is 0.2294 seconds per sample
dh290517El Arenosillo 37.1 6.73 3.072425pr1000
************************************************************
Dead Time -------------------------  2.7E-08 
Number of Cycles Used -------------  4 
Starting Wavelength (Angstroms) ---  2950 
Final Wavelength (Angstoms) -------  2984 
Wavelength Increment (Angstroms) --  .25 
Filter Wheel #1 Position ---------- (1) Ground quartz diffuser (ND=2.32)
Filter Wheel #2 Position ---------- (1) Neutral Density 0.494



************************************************************
HS scan start time = 20:18:56
Dark Count =  .5 


Time (GMT)  Wavelength (Ang)  Step Number  Raw Counts  Counts/Second

 1219.53        2950.00           1223          77.00       333.48
 1219.71        2950.25           1226          84.00       364.00
 1219.74        2950.50           1229          81.00       350.92
 1219.77        2950.75           1233          79.00       342.20
 1219.80        2951.00           1236          75.00       324.76
 1219.83        2951.25           1239          75.00       324.76
 1219.86        2951.50           1243          91.00       394.51
 1219.89        2951.75           1246          81.00       350.92
 1219.92        2952.00           1249          77.00       333.48
 1219.95        2952.25           1253          79.00       342.20
 1219.98        2952.50           1256          86.00       372.72
 1220.01        2952.75           1259          76.00       329.12
 1220.04        2953.00           1263          79.00       342.20
 1220.07        2953.25           1266          80.00       346.56
 1220.10        2953.50           1269          81.00       350.92
 1220.13        2953.75           1273          87.00       377.07
 1220.16        2954.00           1276          78.00       337.84
 1220.19        2954.25           1279          73.00       316.04
 1220.22        2954.50           1283          74.00       320.40
 1220.25        2954.75           1286          81.00       350.92
 1220.28        2955.00           1289          82.00       355.28
 1220.31        2955.25           1293          70.00       302.97
 1220.34        2955.50           1296          79.00       342.20
 1220.37        2955.75           1299          76.00       329.12
 1220.40        2956.00           1303          78.00       337.84
 1220.43        2956.25           1306          85.00       368.36
 1220.47        2956.50           1309          72.00       311.69
 1220.49        2956.75           1313          81.00       350.92
 1220.52        2957.00           1316          76.00       329.12
 1220.55        2957.25           1319          82.00       355.28
 1220.59        2957.50           1323          73.00       316.04
 1220.62        2957.75           1326          82.00       355.28
 1220.65        2958.00           1329          75.00       324.76
 1220.68        2958.25           1333          87.00       377.07
 1220.71        2958.50           1336          79.00       342.20
 1220.74        2958.75           1339          78.00       337.84
 1220.77        2959.00           1343          84.00       364.00
 1220.80        2959.25           1346          79.00       342.20
 1220.83        2959.50           1349          78.00       337.84
 1220.86        2959.75           1353          74.00       320.40
 1220.89        2960.00           1356          83.00       359.64
 1220.92        2960.25           1359          77.00       333.48
 1220.95        2960.50           1363          98.00       425.03
 1220.98        2960.75           1366          94.00       407.59
 1221.01        2961.00           1369         106.00       459.90
 1221.04        2961.25           1373         122.00       529.65
 1221.07        2961.50           1376         359.00      1562.84
 1221.10        2961.75           1379        1756.00      7654.15
 1221.13        2962.00           1383        5142.00     22426.39
 1221.16        2962.25           1386        8549.00     37302.16
 1221.19        2962.50           1389       12130.00     52950.54
 1221.22        2962.75           1393       17369.00     75867.99
 1221.25        2963.00           1396       21786.00     95211.75
 1221.29        2963.25           1400       27224.00    119054.70
 1221.32        2963.50           1403       31698.00    138694.10
 1221.34        2963.75           1406       36265.00    158763.30
 1221.38        2964.00           1410       41706.00    182701.60
 1221.41        2964.25           1413       46308.00    202972.90
 1221.44        2964.50           1416       50560.00    221722.30
 1221.47        2964.75           1420       56315.00    247129.60
 1221.50        2965.00           1423       60232.00    264442.50
 1221.53        2965.25           1426       64268.00    282298.30
 1221.56        2965.50           1430       69594.00    305887.80
 1221.59        2965.75           1433       74191.00    326272.80
 1221.62        2966.00           1436       78023.00    343282.60
 1221.65        2966.25           1440       83022.00    365496.30
 1221.68        2966.50           1443       86013.00    378800.00
 1221.71        2966.75           1446       87469.00    385279.60
 1221.74        2967.00           1450       88593.00    390283.40
 1221.77        2967.25           1453       88822.00    391303.00
 1221.80        2967.50           1456       89171.00    392857.00
 1221.83        2967.75           1460       89392.00    393841.10
 1221.86        2968.00           1463       88531.00    390007.30
 1221.90        2968.25           1466       87223.00    384184.70
 1221.93        2968.50           1470       84079.00    370196.60
 1221.96        2968.75           1473       80743.00    355365.90
 1221.98        2969.00           1476       76753.00    337643.50
 1222.02        2969.25           1480       71399.00    313889.20
 1222.05        2969.50           1483       67366.00    296016.00
 1222.08        2969.75           1487       61701.00    270939.50
 1222.11        2970.00           1490       57733.00    253395.20
 1222.14        2970.25           1493       53145.00    233130.30
 1222.17        2970.50           1497       47564.00    208509.30
 1222.20        2970.75           1500       43084.00    188769.20
 1222.23        2971.00           1503       39115.00    171298.30
 1222.26        2971.25           1507       33264.00    145573.20
 1222.29        2971.50           1510       28782.00    125891.50
 1222.32        2971.75           1513       24236.00    105950.00
 1222.35        2972.00           1517       18454.00     80617.75
 1222.38        2972.25           1520       14323.00     62540.13
 1222.41        2972.50           1523        9972.00     43518.85
 1222.44        2972.75           1527        4595.00     20039.18
 1222.47        2973.00           1530        2113.00      9211.10
 1222.51        2973.25           1533         895.00      3899.71
 1222.54        2973.50           1537         272.00      1183.56
 1222.57        2973.75           1540         139.00       603.76
 1222.60        2974.00           1544         102.00       442.46
 1222.63        2974.25           1547         104.00       451.18
 1222.66        2974.50           1550          87.00       377.07
 1222.69        2974.75           1554          75.00       324.76
 1222.72        2975.00           1557          84.00       364.00
 1222.75        2975.25           1560          71.00       307.33
 1222.78        2975.50           1564          69.00       298.61
 1222.81        2975.75           1567          70.00       302.97
 1222.84        2976.00           1570          69.00       298.61
 1222.87        2976.25           1574          67.00       289.89
 1222.90        2976.50           1577          69.00       298.61
 1222.93        2976.75           1580          68.00       294.25
 1222.96        2977.00           1584          67.00       289.89
 1222.99        2977.25           1587          77.00       333.48
 1223.02        2977.50           1591          78.00       337.84
 1223.05        2977.75           1594          66.00       285.53
 1223.08        2978.00           1597          69.00       298.61
 1223.11        2978.25           1601          76.00       329.12
 1223.14        2978.50           1604          68.00       294.25
 1223.17        2978.75           1607          72.00       311.69
 1223.21        2979.00           1611          71.00       307.33
 1223.24        2979.25           1614          69.00       298.61
 1223.26        2979.50           1617          75.00       324.76
 1223.30        2979.75           1621          70.00       302.97
 1223.33        2980.00           1624          74.00       320.40
 1223.36        2980.25           1628          70.00       302.97
 1223.39        2980.50           1631          66.00       285.53
 1223.42        2980.75           1634          69.00       298.61
 1223.45        2981.00           1638          70.00       302.97
 1223.48        2981.25           1641          65.00       281.17
 1223.51        2981.50           1644          71.00       307.33
 1223.54        2981.75           1648          69.00       298.61
 1223.57        2982.00           1651          74.00       320.40
 1223.60        2982.25           1654          71.00       307.33
 1223.63        2982.50           1658          71.00       307.33
 1223.66        2982.75           1661          63.00       272.45
 1223.69        2983.00           1665          70.00       302.97
 1223.72        2983.25           1668          68.00       294.25
 1223.75        2983.50           1671          61.00       263.73
 1223.78        2983.75           1675          65.00       281.17
 1223.81        2984.00           1678          64.00       276.81
HS scan finished at 20:24:08
end
