************************************************************
  HS Scan of (1) Internal mercury lamp
************************************************************
Integration time is 0.2294 seconds per sample
dh010617El Arenosillo 37.1 6.73 3.018777pr1000
************************************************************
Dead Time -------------------------  2.7E-08 
Number of Cycles Used -------------  4 
Starting Wavelength (Angstroms) ---  2950 
Final Wavelength (Angstoms) -------  2984 
Wavelength Increment (Angstroms) --  .25 
Filter Wheel #1 Position ---------- (1) Ground quartz diffuser (ND=2.32)
Filter Wheel #2 Position ---------- (1) Neutral Density 0.494



************************************************************
HS scan start time = 02:04:01
Dark Count =  .1 


Time (GMT)  Wavelength (Ang)  Step Number  Raw Counts  Counts/Second

  124.63        2950.00           1223          76.00       330.87
  124.80        2950.25           1226          83.00       361.38
  124.83        2950.50           1229          82.00       357.02
  124.86        2950.75           1233          82.00       357.02
  124.89        2951.00           1236          88.00       383.18
  124.93        2951.25           1239          78.00       339.58
  124.96        2951.50           1243          77.00       335.23
  124.99        2951.75           1246          78.00       339.58
  125.02        2952.00           1249          85.00       370.10
  125.05        2952.25           1253          79.00       343.94
  125.08        2952.50           1256          82.00       357.02
  125.11        2952.75           1259          69.00       300.35
  125.15        2953.00           1263          94.00       409.33
  125.18        2953.25           1266          84.00       365.74
  125.20        2953.50           1269          79.00       343.94
  125.24        2953.75           1273          78.00       339.58
  125.27        2954.00           1276          75.00       326.51
  125.30        2954.25           1279          78.00       339.58
  125.33        2954.50           1283          68.00       295.99
  125.36        2954.75           1286          76.00       330.87
  125.39        2955.00           1289          76.00       330.87
  125.42        2955.25           1293          75.00       326.51
  125.46        2955.50           1296          91.00       396.26
  125.49        2955.75           1299          86.00       374.46
  125.52        2956.00           1303          78.00       339.58
  125.55        2956.25           1306          80.00       348.30
  125.58        2956.50           1309          77.00       335.23
  125.61        2956.75           1313          80.00       348.30
  125.64        2957.00           1316          76.00       330.87
  125.67        2957.25           1319          80.00       348.30
  125.70        2957.50           1323          84.00       365.74
  125.73        2957.75           1326          75.00       326.51
  125.77        2958.00           1329          77.00       335.23
  125.80        2958.25           1333          73.00       317.79
  125.83        2958.50           1336          80.00       348.30
  125.86        2958.75           1339          91.00       396.26
  125.89        2959.00           1343          80.00       348.30
  125.92        2959.25           1346          77.00       335.23
  125.95        2959.50           1349          80.00       348.30
  125.98        2959.75           1353          78.00       339.58
  126.01        2960.00           1356          75.00       326.51
  126.05        2960.25           1359          89.00       387.54
  126.08        2960.50           1363          85.00       370.10
  126.11        2960.75           1366         106.00       461.64
  126.14        2961.00           1369         110.00       479.08
  126.17        2961.25           1373         135.00       588.07
  126.20        2961.50           1376         479.00      2087.74
  126.23        2961.75           1379        2066.00      9007.86
  126.26        2962.00           1383        5679.00     24772.01
  126.29        2962.25           1386        9028.00     39396.29
  126.32        2962.50           1389       12806.00     55907.79
  126.36        2962.75           1393       18437.00     80545.08
  126.39        2963.00           1396       22666.00     99069.80
  126.42        2963.25           1400       28523.00    124756.50
  126.45        2963.50           1403       32887.00    143918.70
  126.48        2963.75           1406       37304.00    163333.80
  126.51        2964.00           1410       43277.00    189620.90
  126.54        2964.25           1413       47547.00    208436.10
  126.57        2964.50           1416       51997.00    228064.80
  126.60        2964.75           1420       57691.00    253211.30
  126.63        2965.00           1423       61938.00    271989.70
  126.67        2965.25           1426       66081.00    290326.60
  126.70        2965.50           1430       71787.00    315611.40
  126.73        2965.75           1433       75681.00    332886.60
  126.76        2966.00           1436       79980.00    351977.40
  126.79        2966.25           1440       85325.00    375740.80
  126.82        2966.50           1443       87717.00    386385.30
  126.85        2966.75           1446       89036.00    392257.60
  126.88        2967.00           1450       90233.00    397588.30
  126.91        2967.25           1453       90418.00    398412.30
  126.95        2967.50           1456       90518.00    398857.70
  126.98        2967.75           1460       90548.00    398991.40
  127.01        2968.00           1463       90120.00    397085.00
  127.04        2968.25           1466       88114.00    388152.60
  127.07        2968.50           1470       84730.00    373093.90
  127.10        2968.75           1473       81144.00    357149.80
  127.13        2969.00           1476       77233.00    339776.40
  127.16        2969.25           1480       71588.00    314729.00
  127.20        2969.50           1483       67952.00    298613.70
  127.23        2969.75           1487       62387.00    273976.10
  127.26        2970.00           1490       57490.00    252323.00
  127.29        2970.25           1493       53548.00    234911.10
  127.32        2970.50           1497       47764.00    209392.80
  127.36        2970.75           1500       43208.00    189317.00
  127.38        2971.00           1503       38896.00    170336.50
  127.42        2971.25           1507       33109.00    144894.00
  127.45        2971.50           1510       28341.00    123957.80
  127.48        2971.75           1513       24022.00    105013.60
  127.51        2972.00           1517       18339.00     80116.01
  127.54        2972.25           1520       13781.00     60171.35
  127.57        2972.50           1523        9515.00     41523.86
  127.60        2972.75           1527        4179.00     18225.62
  127.64        2973.00           1530        1877.00      8183.59
  127.67        2973.25           1533         797.00      3474.17
  127.70        2973.50           1537         215.00       936.82
  127.73        2973.75           1540         133.00       579.35
  127.76        2974.00           1544          98.00       426.77
  127.79        2974.25           1547          89.00       387.54
  127.82        2974.50           1550          94.00       409.33
  127.85        2974.75           1554          79.00       343.94
  127.88        2975.00           1557          79.00       343.94
  127.91        2975.25           1560          76.00       330.87
  127.94        2975.50           1564          74.00       322.15
  127.98        2975.75           1567          76.00       330.87
  128.01        2976.00           1570          63.00       274.20
  128.04        2976.25           1574          71.00       309.07
  128.07        2976.50           1577          68.00       295.99
  128.10        2976.75           1580          78.00       339.58
  128.13        2977.00           1584          65.00       282.91
  128.16        2977.25           1587          72.00       313.43
  128.20        2977.50           1591          65.00       282.91
  128.22        2977.75           1594          69.00       300.35
  128.25        2978.00           1597          66.00       287.27
  128.29        2978.25           1601          81.00       352.66
  128.32        2978.50           1604          69.00       300.35
  128.35        2978.75           1607          65.00       282.91
  128.38        2979.00           1611          72.00       313.43
  128.41        2979.25           1614          70.00       304.71
  128.44        2979.50           1617          73.00       317.79
  128.47        2979.75           1621          75.00       326.51
  128.51        2980.00           1624          73.00       317.79
  128.54        2980.25           1628          67.00       291.63
  128.57        2980.50           1631          74.00       322.15
  128.60        2980.75           1634          74.00       322.15
  128.63        2981.00           1638          70.00       304.71
  128.66        2981.25           1641          61.00       265.48
  128.69        2981.50           1644          65.00       282.91
  128.72        2981.75           1648          73.00       317.79
  128.75        2982.00           1651          73.00       317.79
  128.79        2982.25           1654          72.00       313.43
  128.82        2982.50           1658          72.00       313.43
  128.85        2982.75           1661          67.00       291.63
  128.88        2983.00           1665          72.00       313.43
  128.91        2983.25           1668          67.00       291.63
  128.94        2983.50           1671          60.00       261.12
  128.97        2983.75           1675          64.00       278.55
  129.00        2984.00           1678          59.00       256.76
HS scan finished at 02:09:19
end
************************************************************
  HS Scan of (1) Internal mercury lamp
************************************************************
Integration time is 0.2294 seconds per sample
dh010617El Arenosillo 37.1 6.73 3.179721pr1000
************************************************************
Dead Time -------------------------  2.7E-08 
Number of Cycles Used -------------  4 
Starting Wavelength (Angstroms) ---  2950 
Final Wavelength (Angstoms) -------  2984 
Wavelength Increment (Angstroms) --  .25 
Filter Wheel #1 Position ---------- (1) Ground quartz diffuser (ND=2.32)
Filter Wheel #2 Position ---------- (1) Neutral Density 0.494



************************************************************
HS scan start time = 21:39:29
Dark Count =  .6 


Time (GMT)  Wavelength (Ang)  Step Number  Raw Counts  Counts/Second

 1300.08        2950.00           1223          84.00       363.56
 1300.25        2950.25           1226          84.00       363.56
 1300.28        2950.50           1229          85.00       367.92
 1300.31        2950.75           1233          87.00       376.64
 1300.34        2951.00           1236          87.00       376.64
 1300.37        2951.25           1239          80.00       346.12
 1300.41        2951.50           1243          74.00       319.97
 1300.43        2951.75           1246          80.00       346.12
 1300.46        2952.00           1249          77.00       333.05
 1300.49        2952.25           1253          71.00       306.89
 1300.53        2952.50           1256          87.00       376.64
 1300.56        2952.75           1259          78.00       337.41
 1300.59        2953.00           1263          83.00       359.20
 1300.61        2953.25           1266          70.00       302.53
 1300.65        2953.50           1269          88.00       381.00
 1300.68        2953.75           1273          83.00       359.20
 1300.71        2954.00           1276          77.00       333.05
 1300.74        2954.25           1279          82.00       354.84
 1300.77        2954.50           1283          71.00       306.89
 1300.80        2954.75           1286          73.00       315.61
 1300.83        2955.00           1289          76.00       328.69
 1300.86        2955.25           1293          81.00       350.48
 1300.89        2955.50           1296          74.00       319.97
 1300.92        2955.75           1299          83.00       359.20
 1300.95        2956.00           1303          76.00       328.69
 1300.98        2956.25           1306          73.00       315.61
 1301.01        2956.50           1309          87.00       376.64
 1301.04        2956.75           1313          81.00       350.48
 1301.07        2957.00           1316          68.00       293.81
 1301.10        2957.25           1319          79.00       341.76
 1301.13        2957.50           1323          76.00       328.69
 1301.16        2957.75           1326          70.00       302.53
 1301.19        2958.00           1329          80.00       346.12
 1301.22        2958.25           1333          83.00       359.20
 1301.25        2958.50           1336          76.00       328.69
 1301.28        2958.75           1339          81.00       350.48
 1301.31        2959.00           1343          77.00       333.05
 1301.34        2959.25           1346          78.00       337.41
 1301.37        2959.50           1349          74.00       319.97
 1301.40        2959.75           1353          82.00       354.84
 1301.43        2960.00           1356          77.00       333.05
 1301.46        2960.25           1359          88.00       381.00
 1301.49        2960.50           1363          94.00       407.15
 1301.52        2960.75           1366          97.00       420.23
 1301.55        2961.00           1369         105.00       455.11
 1301.58        2961.25           1373         138.00       598.96
 1301.61        2961.50           1376         271.00      1178.76
 1301.64        2961.75           1379        1618.00      7051.91
 1301.67        2962.00           1383        5073.00     22124.81
 1301.70        2962.25           1386        8829.00     38524.80
 1301.74        2962.50           1389       12532.00     54707.61
 1301.76        2962.75           1393       18570.00     81125.19
 1301.79        2963.00           1396       23193.00    101377.40
 1301.82        2963.25           1400       29312.00    128217.30
 1301.86        2963.50           1403       34231.00    149821.90
 1301.89        2963.75           1406       38911.00    170400.30
 1301.92        2964.00           1410       45333.00    198675.80
 1301.95        2964.25           1413       50113.00    219749.90
 1301.98        2964.50           1416       54735.00    240150.20
 1302.01        2964.75           1420       60897.00    267382.90
 1302.04        2965.00           1423       65458.00    287565.90
 1302.07        2965.25           1426       70070.00    307997.00
 1302.10        2965.50           1430       76281.00    335547.60
 1302.13        2965.75           1433       80960.00    356329.80
 1302.16        2966.00           1436       85402.00    376081.10
 1302.19        2966.25           1440       90968.00    400860.10
 1302.22        2966.50           1443       94430.00    416289.30
 1302.25        2966.75           1446       95973.00    423170.20
 1302.28        2967.00           1450       97245.00    428844.50
 1302.31        2967.25           1453       97832.00    431463.70
 1302.34        2967.50           1456       97925.00    431878.70
 1302.37        2967.75           1460       97715.00    430941.60
 1302.40        2968.00           1463       97320.00    429179.10
 1302.43        2968.25           1466       96023.00    423393.20
 1302.46        2968.50           1470       92613.00    408189.80
 1302.49        2968.75           1473       88664.00    390599.00
 1302.52        2969.00           1476       84950.00    374070.30
 1302.55        2969.25           1480       79132.00    348207.80
 1302.59        2969.50           1483       74511.00    327692.10
 1302.62        2969.75           1487       68489.00    300990.70
 1302.65        2970.00           1490       63953.00    280903.60
 1302.68        2970.25           1493       59115.00    259503.30
 1302.71        2970.50           1497       52834.00    231757.00
 1302.74        2970.75           1500       48264.00    211595.10
 1302.77        2971.00           1503       43332.00    189860.90
 1302.80        2971.25           1507       36971.00    161867.20
 1302.83        2971.50           1510       32079.00    140367.10
 1302.86        2971.75           1513       27329.00    119515.00
 1302.89        2972.00           1517       21155.00     92446.69
 1302.92        2972.25           1520       16375.00     71517.22
 1302.95        2972.50           1523       11722.00     51166.55
 1302.98        2972.75           1527        5564.00     24267.86
 1303.01        2973.00           1530        2498.00     10889.86
 1303.04        2973.25           1533        1063.00      4631.79
 1303.07        2973.50           1537         332.00      1444.69
 1303.10        2973.75           1540         157.00       681.79
 1303.13        2974.00           1544         110.00       476.90
 1303.16        2974.25           1547          95.00       411.51
 1303.19        2974.50           1550          89.00       385.36
 1303.22        2974.75           1554          80.00       346.12
 1303.25        2975.00           1557          71.00       306.89
 1303.28        2975.25           1560          77.00       333.05
 1303.32        2975.50           1564          73.00       315.61
 1303.34        2975.75           1567          70.00       302.53
 1303.37        2976.00           1570          73.00       315.61
 1303.40        2976.25           1574          76.00       328.69
 1303.44        2976.50           1577          79.00       341.76
 1303.47        2976.75           1580          77.00       333.05
 1303.50        2977.00           1584          81.00       350.48
 1303.52        2977.25           1587          73.00       315.61
 1303.56        2977.50           1591          66.00       285.09
 1303.59        2977.75           1594          73.00       315.61
 1303.62        2978.00           1597          69.00       298.17
 1303.65        2978.25           1601          64.00       276.38
 1303.68        2978.50           1604          72.00       311.25
 1303.71        2978.75           1607          73.00       315.61
 1303.74        2979.00           1611          66.00       285.09
 1303.77        2979.25           1614          78.00       337.41
 1303.80        2979.50           1617          70.00       302.53
 1303.83        2979.75           1621          76.00       328.69
 1303.86        2980.00           1624          68.00       293.81
 1303.89        2980.25           1628          70.00       302.53
 1303.92        2980.50           1631          72.00       311.25
 1303.95        2980.75           1634          72.00       311.25
 1303.98        2981.00           1638          73.00       315.61
 1304.01        2981.25           1641          66.00       285.09
 1304.04        2981.50           1644          71.00       306.89
 1304.07        2981.75           1648          71.00       306.89
 1304.10        2982.00           1651          73.00       315.61
 1304.13        2982.25           1654          64.00       276.38
 1304.16        2982.50           1658          65.00       280.73
 1304.19        2982.75           1661          77.00       333.05
 1304.22        2983.00           1665          66.00       285.09
 1304.25        2983.25           1668          73.00       315.61
 1304.28        2983.50           1671          67.00       289.45
 1304.31        2983.75           1675          65.00       280.73
 1304.34        2984.00           1678          69.00       298.17
HS scan finished at 21:44:39
end
