************************************************************
  HS Scan of (1) Internal mercury lamp
************************************************************
Integration time is 0.2294 seconds per sample
dh310517El Arenosillo 37.1 6.73 3.072425pr1000
************************************************************
Dead Time -------------------------  2.7E-08 
Number of Cycles Used -------------  4 
Starting Wavelength (Angstroms) ---  2950 
Final Wavelength (Angstoms) -------  2984 
Wavelength Increment (Angstroms) --  .25 
Filter Wheel #1 Position ---------- (1) Ground quartz diffuser (ND=2.32)
Filter Wheel #2 Position ---------- (1) Neutral Density 0.494



************************************************************
HS scan start time = 21:39:30
Dark Count =  .5 


Time (GMT)  Wavelength (Ang)  Step Number  Raw Counts  Counts/Second

 1300.11        2950.00           1223          82.00       355.28
 1300.28        2950.25           1226          87.00       377.07
 1300.31        2950.50           1229          87.00       377.07
 1300.34        2950.75           1233          89.00       385.79
 1300.37        2951.00           1236          77.00       333.48
 1300.40        2951.25           1239          81.00       350.92
 1300.43        2951.50           1243          93.00       403.23
 1300.46        2951.75           1246          75.00       324.76
 1300.50        2952.00           1249          88.00       381.43
 1300.53        2952.25           1253          83.00       359.64
 1300.56        2952.50           1256          86.00       372.72
 1300.59        2952.75           1259          77.00       333.48
 1300.62        2953.00           1263          82.00       355.28
 1300.65        2953.25           1266          79.00       342.20
 1300.68        2953.50           1269          81.00       350.92
 1300.71        2953.75           1273          81.00       350.92
 1300.74        2954.00           1276          78.00       337.84
 1300.77        2954.25           1279          81.00       350.92
 1300.80        2954.50           1283          70.00       302.97
 1300.83        2954.75           1286          80.00       346.56
 1300.86        2955.00           1289          85.00       368.36
 1300.89        2955.25           1293          80.00       346.56
 1300.92        2955.50           1296          79.00       342.20
 1300.95        2955.75           1299          77.00       333.48
 1300.98        2956.00           1303          79.00       342.20
 1301.01        2956.25           1306          68.00       294.25
 1301.04        2956.50           1309          75.00       324.76
 1301.07        2956.75           1313          79.00       342.20
 1301.10        2957.00           1316          82.00       355.28
 1301.13        2957.25           1319          79.00       342.20
 1301.16        2957.50           1323          72.00       311.69
 1301.19        2957.75           1326          81.00       350.92
 1301.22        2958.00           1329          74.00       320.40
 1301.26        2958.25           1333          79.00       342.20
 1301.29        2958.50           1336          79.00       342.20
 1301.31        2958.75           1339          76.00       329.12
 1301.35        2959.00           1343          80.00       346.56
 1301.38        2959.25           1346          72.00       311.69
 1301.41        2959.50           1349          69.00       298.61
 1301.44        2959.75           1353          75.00       324.76
 1301.47        2960.00           1356          80.00       346.56
 1301.50        2960.25           1359          79.00       342.20
 1301.53        2960.50           1363          84.00       364.00
 1301.56        2960.75           1366          95.00       411.95
 1301.59        2961.00           1369         101.00       438.10
 1301.62        2961.25           1373         126.00       547.09
 1301.65        2961.50           1376         264.00      1148.68
 1301.68        2961.75           1379        1496.00      6520.33
 1301.71        2962.00           1383        4827.00     21051.63
 1301.74        2962.25           1386        8249.00     35991.81
 1301.77        2962.50           1389       11998.00     52373.49
 1301.80        2962.75           1393       17569.00     76743.43
 1301.83        2963.00           1396       22006.00     96175.75
 1301.86        2963.25           1400       27821.00    121674.10
 1301.89        2963.50           1403       32353.00    141571.10
 1301.92        2963.75           1406       36867.00    161410.30
 1301.95        2964.00           1410       42951.00    188183.50
 1301.98        2964.25           1413       47416.00    207856.80
 1302.01        2964.50           1416       52059.00    228336.70
 1302.05        2964.75           1420       57919.00    254217.10
 1302.08        2965.00           1423       62163.00    272983.30
 1302.11        2965.25           1426       66612.00    292676.50
 1302.14        2965.50           1430       72494.00    318744.90
 1302.17        2965.75           1433       76868.00    338154.00
 1302.20        2966.00           1436       80986.00    356445.90
 1302.23        2966.25           1440       86424.00    380628.90
 1302.26        2966.50           1443       89767.00    395511.00
 1302.29        2966.75           1446       91599.00    403671.80
 1302.32        2967.00           1450       92468.00    407544.00
 1302.35        2967.25           1453       92829.00    409152.90
 1302.38        2967.50           1456       92722.00    408676.00
 1302.41        2967.75           1460       93207.00    410837.70
 1302.44        2968.00           1463       92784.00    408952.40
 1302.47        2968.25           1466       91342.00    402526.70
 1302.50        2968.50           1470       88246.00    388738.50
 1302.53        2968.75           1473       84566.00    372362.70
 1302.57        2969.00           1476       80978.00    356410.30
 1302.59        2969.25           1480       75226.00    330865.40
 1302.62        2969.50           1483       70901.00    311681.20
 1302.65        2969.75           1487       65094.00    285954.80
 1302.69        2970.00           1490       61240.00    268900.40
 1302.72        2970.25           1493       56318.00    247142.80
 1302.75        2970.50           1497       50164.00    219975.30
 1302.78        2970.75           1500       46001.00    201619.90
 1302.81        2971.00           1503       41484.00    181724.30
 1302.84        2971.25           1507       35281.00    154437.30
 1302.87        2971.50           1510       30821.00    134842.70
 1302.90        2971.75           1513       26213.00    114619.70
 1302.93        2972.00           1517       20110.00     87869.51
 1302.96        2972.25           1520       15647.00     68332.15
 1302.99        2972.50           1523       11214.00     48946.51
 1303.02        2972.75           1527        5299.00     23111.63
 1303.05        2973.00           1530        2454.00     10698.38
 1303.08        2973.25           1533        1075.00      4684.55
 1303.11        2973.50           1537         308.00      1340.50
 1303.14        2973.75           1540         167.00       725.82
 1303.17        2974.00           1544         114.00       494.78
 1303.20        2974.25           1547         108.00       468.62
 1303.23        2974.50           1550          95.00       411.95
 1303.26        2974.75           1554          79.00       342.20
 1303.29        2975.00           1557          75.00       324.76
 1303.33        2975.25           1560          75.00       324.76
 1303.36        2975.50           1564          78.00       337.84
 1303.39        2975.75           1567          74.00       320.40
 1303.41        2976.00           1570          74.00       320.40
 1303.45        2976.25           1574          74.00       320.40
 1303.48        2976.50           1577          60.00       259.37
 1303.51        2976.75           1580          71.00       307.33
 1303.54        2977.00           1584          69.00       298.61
 1303.57        2977.25           1587          73.00       316.04
 1303.60        2977.50           1591          73.00       316.04
 1303.63        2977.75           1594          71.00       307.33
 1303.66        2978.00           1597          70.00       302.97
 1303.69        2978.25           1601          69.00       298.61
 1303.72        2978.50           1604          69.00       298.61
 1303.75        2978.75           1607          72.00       311.69
 1303.78        2979.00           1611          73.00       316.04
 1303.81        2979.25           1614          80.00       346.56
 1303.84        2979.50           1617          73.00       316.04
 1303.87        2979.75           1621          69.00       298.61
 1303.90        2980.00           1624          75.00       324.76
 1303.93        2980.25           1628          68.00       294.25
 1303.96        2980.50           1631          76.00       329.12
 1303.99        2980.75           1634          67.00       289.89
 1304.02        2981.00           1638          65.00       281.17
 1304.06        2981.25           1641          65.00       281.17
 1304.09        2981.50           1644          69.00       298.61
 1304.11        2981.75           1648          83.00       359.64
 1304.14        2982.00           1651          68.00       294.25
 1304.18        2982.25           1654          74.00       320.40
 1304.21        2982.50           1658          64.00       276.81
 1304.24        2982.75           1661          69.00       298.61
 1304.27        2983.00           1665          65.00       281.17
 1304.30        2983.25           1668          65.00       281.17
 1304.33        2983.50           1671          69.00       298.61
 1304.36        2983.75           1675          68.00       294.25
 1304.39        2984.00           1678          72.00       311.69
HS scan finished at 21:44:42
end
