************************************************************
  HS Scan of (1) Internal mercury lamp
************************************************************
Integration time is 0.2294 seconds per sample
dh070617ElArenosillo 37.1 6.73 2.911481pr1000
************************************************************
Dead Time -------------------------  2.7E-08 
Number of Cycles Used -------------  4 
Starting Wavelength (Angstroms) ---  2950 
Final Wavelength (Angstoms) -------  2984 
Wavelength Increment (Angstroms) --  .25 
Filter Wheel #1 Position ---------- (1) Ground quartz diffuser (ND=2.32)
Filter Wheel #2 Position ---------- (1) Neutral Density 0.494



************************************************************
HS scan start time = 04:19:30
Dark Count =  .1 


Time (GMT)  Wavelength (Ang)  Step Number  Raw Counts  Counts/Second

  260.10        2950.00           1223          81.00       352.66
  260.27        2950.25           1226          82.00       357.02
  260.30        2950.50           1229          84.00       365.74
  260.33        2950.75           1233          91.00       396.26
  260.36        2951.00           1236          88.00       383.18
  260.39        2951.25           1239          91.00       396.26
  260.42        2951.50           1243          84.00       365.74
  260.45        2951.75           1246          89.00       387.54
  260.48        2952.00           1249          80.00       348.30
  260.52        2952.25           1253          79.00       343.94
  260.55        2952.50           1256          82.00       357.02
  260.58        2952.75           1259          80.00       348.30
  260.61        2953.00           1263          84.00       365.74
  260.64        2953.25           1266          77.00       335.23
  260.67        2953.50           1269          85.00       370.10
  260.70        2953.75           1273          77.00       335.23
  260.73        2954.00           1276          76.00       330.87
  260.76        2954.25           1279          82.00       357.02
  260.79        2954.50           1283          76.00       330.87
  260.82        2954.75           1286          80.00       348.30
  260.85        2955.00           1289          82.00       357.02
  260.88        2955.25           1293          78.00       339.58
  260.91        2955.50           1296          87.00       378.82
  260.95        2955.75           1299          74.00       322.15
  260.97        2956.00           1303          77.00       335.23
  261.01        2956.25           1306          72.00       313.43
  261.04        2956.50           1309          80.00       348.30
  261.07        2956.75           1313          77.00       335.23
  261.10        2957.00           1316          68.00       295.99
  261.13        2957.25           1319          84.00       365.74
  261.16        2957.50           1323          78.00       339.58
  261.19        2957.75           1326          83.00       361.38
  261.22        2958.00           1329          78.00       339.58
  261.25        2958.25           1333          79.00       343.94
  261.28        2958.50           1336          78.00       339.58
  261.31        2958.75           1339          72.00       313.43
  261.34        2959.00           1343          75.00       326.51
  261.37        2959.25           1346          77.00       335.23
  261.40        2959.50           1349          82.00       357.02
  261.44        2959.75           1353          82.00       357.02
  261.47        2960.00           1356          76.00       330.87
  261.50        2960.25           1359          80.00       348.30
  261.53        2960.50           1363          92.00       400.61
  261.56        2960.75           1366          88.00       383.18
  261.59        2961.00           1369          93.00       404.97
  261.62        2961.25           1373         101.00       439.85
  261.65        2961.50           1376         172.00       749.36
  261.68        2961.75           1379         998.00      4350.55
  261.71        2962.00           1383        3673.00     16017.83
  261.74        2962.25           1386        6502.00     28364.78
  261.77        2962.50           1389        9612.00     41947.66
  261.80        2962.75           1393       14440.00     63053.64
  261.83        2963.00           1396       18263.00     79783.28
  261.87        2963.25           1400       23332.00    101988.80
  261.90        2963.50           1403       27243.00    119139.80
  261.93        2963.75           1406       31445.00    137584.70
  261.96        2964.00           1410       36317.00    158993.60
  261.99        2964.25           1413       40709.00    178314.60
  262.02        2964.50           1416       44349.00    194342.70
  262.05        2964.75           1420       49541.00    217229.00
  262.08        2965.00           1423       53047.00    232699.40
  262.12        2965.25           1426       57171.00    250913.40
  262.15        2965.50           1430       62190.00    273104.50
  262.18        2965.75           1433       65913.00    289582.70
  262.21        2966.00           1436       69389.00    304981.00
  262.24        2966.25           1440       74377.00    327099.80
  262.27        2966.50           1443       77044.00    338937.20
  262.30        2966.75           1446       78794.00    346708.70
  262.33        2967.00           1450       79966.00    351915.20
  262.36        2967.25           1453       80672.00    355052.20
  262.39        2967.50           1456       80441.00    354025.70
  262.42        2967.75           1460       80366.00    353692.50
  262.45        2968.00           1463       80333.00    353545.80
  262.48        2968.25           1466       79394.00    349373.90
  262.51        2968.50           1470       76955.00    338542.10
  262.55        2968.75           1473       73969.00    325289.50
  262.58        2969.00           1476       70606.00    310375.20
  262.61        2969.25           1480       66015.00    290034.40
  262.64        2969.50           1483       62130.00    272839.10
  262.67        2969.75           1487       57226.00    251156.40
  262.70        2970.00           1490       53415.00    234324.00
  262.73        2970.25           1493       49529.00    217176.00
  262.76        2970.50           1497       44252.00    193915.40
  262.79        2970.75           1500       40498.00    177385.90
  262.82        2971.00           1503       36455.00    159600.40
  262.86        2971.25           1507       31370.00    137255.30
  262.89        2971.50           1510       27450.00    120048.00
  262.92        2971.75           1513       23428.00    102409.60
  262.95        2972.00           1517       18285.00     79879.60
  262.98        2972.25           1520       14303.00     62454.40
  263.01        2972.50           1523       10332.00     45093.67
  263.04        2972.75           1527        5313.00     23174.48
  263.07        2973.00           1530        2529.00     11027.26
  263.10        2973.25           1533        1121.00      4886.87
  263.13        2973.50           1537         329.00      1433.80
  263.16        2973.75           1540         164.00       714.49
  263.20        2974.00           1544         109.00       474.72
  263.23        2974.25           1547          92.00       400.61
  263.26        2974.50           1550          89.00       387.54
  263.29        2974.75           1554          80.00       348.30
  263.32        2975.00           1557          76.00       330.87
  263.35        2975.25           1560          69.00       300.35
  263.38        2975.50           1564          60.00       261.12
  263.41        2975.75           1567          70.00       304.71
  263.44        2976.00           1570          68.00       295.99
  263.47        2976.25           1574          73.00       317.79
  263.50        2976.50           1577          71.00       309.07
  263.53        2976.75           1580          71.00       309.07
  263.57        2977.00           1584          69.00       300.35
  263.59        2977.25           1587          69.00       300.35
  263.63        2977.50           1591          76.00       330.87
  263.66        2977.75           1594          59.00       256.76
  263.69        2978.00           1597          68.00       295.99
  263.72        2978.25           1601          75.00       326.51
  263.75        2978.50           1604          66.00       287.27
  263.78        2978.75           1607          66.00       287.27
  263.81        2979.00           1611          74.00       322.15
  263.84        2979.25           1614          62.00       269.84
  263.87        2979.50           1617          60.00       261.12
  263.90        2979.75           1621          65.00       282.91
  263.93        2980.00           1624          72.00       313.43
  263.96        2980.25           1628          79.00       343.94
  263.99        2980.50           1631          68.00       295.99
  264.02        2980.75           1634          73.00       317.79
  264.06        2981.00           1638          67.00       291.63
  264.09        2981.25           1641          68.00       295.99
  264.12        2981.50           1644          64.00       278.55
  264.15        2981.75           1648          73.00       317.79
  264.18        2982.00           1651          57.00       248.04
  264.21        2982.25           1654          68.00       295.99
  264.24        2982.50           1658          65.00       282.91
  264.27        2982.75           1661          66.00       287.27
  264.30        2983.00           1665          76.00       330.87
  264.33        2983.25           1668          70.00       304.71
  264.36        2983.50           1671          71.00       309.07
  264.40        2983.75           1675          66.00       287.27
  264.43        2984.00           1678          75.00       326.51
HS scan finished at 04:24:44
end
