************************************************************
  HS Scan of (1) Internal mercury lamp
************************************************************
Integration time is 0.2294 seconds per sample
dh060617ElArenosillo 37.1 6.73 3.018777pr1000
************************************************************
Dead Time -------------------------  2.7E-08 
Number of Cycles Used -------------  4 
Starting Wavelength (Angstroms) ---  2950 
Final Wavelength (Angstoms) -------  2984 
Wavelength Increment (Angstroms) --  .25 
Filter Wheel #1 Position ---------- (1) Ground quartz diffuser (ND=2.32)
Filter Wheel #2 Position ---------- (1) Neutral Density 0.494



************************************************************
HS scan start time = 02:10:22
Dark Count =  .2 


Time (GMT)  Wavelength (Ang)  Step Number  Raw Counts  Counts/Second

  130.98        2950.00           1223          85.00       369.66
  131.15        2950.25           1226          85.00       369.66
  131.18        2950.50           1229          75.00       326.07
  131.21        2950.75           1233          79.00       343.51
  131.23        2951.00           1236          86.00       374.02
  131.27        2951.25           1239          76.00       330.43
  131.30        2951.50           1243          77.00       334.79
  131.33        2951.75           1246          82.00       356.59
  131.36        2952.00           1249          84.00       365.30
  131.39        2952.25           1253          79.00       343.51
  131.42        2952.50           1256          77.00       334.79
  131.45        2952.75           1259          87.00       378.38
  131.49        2953.00           1263          69.00       299.92
  131.51        2953.25           1266          77.00       334.79
  131.54        2953.50           1269          83.00       360.95
  131.58        2953.75           1273          77.00       334.79
  131.61        2954.00           1276          80.00       347.87
  131.64        2954.25           1279          84.00       365.30
  131.67        2954.50           1283          85.00       369.66
  131.70        2954.75           1286          74.00       321.71
  131.73        2955.00           1289          80.00       347.87
  131.76        2955.25           1293          72.00       312.99
  131.79        2955.50           1296          76.00       330.43
  131.82        2955.75           1299          86.00       374.02
  131.86        2956.00           1303          83.00       360.95
  131.89        2956.25           1306          75.00       326.07
  131.92        2956.50           1309          73.00       317.35
  131.95        2956.75           1313          80.00       347.87
  131.98        2957.00           1316          73.00       317.35
  132.01        2957.25           1319          83.00       360.95
  132.04        2957.50           1323          83.00       360.95
  132.07        2957.75           1326          77.00       334.79
  132.10        2958.00           1329          77.00       334.79
  132.13        2958.25           1333          79.00       343.51
  132.17        2958.50           1336          83.00       360.95
  132.20        2958.75           1339          78.00       339.15
  132.23        2959.00           1343          74.00       321.71
  132.26        2959.25           1346          81.00       352.23
  132.29        2959.50           1349          73.00       317.35
  132.32        2959.75           1353          80.00       347.87
  132.35        2960.00           1356          77.00       334.79
  132.38        2960.25           1359          89.00       387.10
  132.41        2960.50           1363          87.00       378.38
  132.45        2960.75           1366          96.00       417.62
  132.48        2961.00           1369         102.00       443.77
  132.51        2961.25           1373         149.00       648.66
  132.54        2961.50           1376         765.00      3334.21
  132.57        2961.75           1379        2606.00     11362.68
  132.60        2962.00           1383        6189.00     26997.88
  132.63        2962.25           1386        9400.00     41021.00
  132.66        2962.50           1389       13367.00     58360.42
  132.70        2962.75           1393       18700.00     81696.15
  132.73        2963.00           1396       22601.00     98784.49
  132.76        2963.25           1400       28024.00    122566.20
  132.79        2963.50           1403       32448.00    141989.70
  132.82        2963.75           1406       36716.00    160747.60
  132.85        2964.00           1410       42332.00    185459.00
  132.88        2964.25           1413       46736.00    204860.60
  132.91        2964.50           1416       50704.00    222358.90
  132.94        2964.75           1420       55855.00    245098.80
  132.97        2965.00           1423       60098.00    263851.20
  133.01        2965.25           1426       63927.00    280790.30
  133.04        2965.50           1430       69615.00    305982.20
  133.07        2965.75           1433       73280.00    322232.50
  133.10        2966.00           1436       77316.00    340144.50
  133.13        2966.25           1440       82197.00    361829.80
  133.16        2966.50           1443       83925.00    369513.10
  133.19        2966.75           1446       85109.00    374779.40
  133.23        2967.00           1450       86091.00    379148.40
  133.26        2967.25           1453       86060.00    379010.50
  133.29        2967.50           1456       86374.00    380407.70
  133.32        2967.75           1460       86301.00    380082.80
  133.35        2968.00           1463       85209.00    375224.30
  133.38        2968.25           1466       83335.00    366889.40
  133.41        2968.50           1470       79891.00    351581.50
  133.45        2968.75           1473       76361.00    335904.50
  133.48        2969.00           1476       72246.00    317646.40
  133.51        2969.25           1480       67186.00    295220.00
  133.54        2969.50           1483       63340.00    278192.50
  133.57        2969.75           1487       57922.00    254231.70
  133.60        2970.00           1490       53857.00    236275.00
  133.63        2970.25           1493       49539.00    217219.70
  133.66        2970.50           1497       43867.00    192219.10
  133.70        2970.75           1500       39963.00    175031.00
  133.73        2971.00           1503       35722.00    156377.30
  133.76        2971.25           1507       30008.00    131274.40
  133.79        2971.50           1510       25889.00    113199.90
  133.82        2971.75           1513       21656.00     94643.46
  133.85        2972.00           1517       16241.00     70932.58
  133.88        2972.25           1520       11984.00     52313.60
  133.92        2972.50           1523        7682.00     33516.81
  133.94        2972.75           1527        3207.00     13984.36
  133.98        2973.00           1530        1454.00      6338.49
  134.01        2973.25           1533         583.00      2540.71
  134.04        2973.50           1537         190.00       827.39
  134.07        2973.75           1540         112.00       487.36
  134.10        2974.00           1544          98.00       426.33
  134.13        2974.25           1547          84.00       365.30
  134.16        2974.50           1550          82.00       356.59
  134.19        2974.75           1554          91.00       395.82
  134.23        2975.00           1557          80.00       347.87
  134.26        2975.25           1560          74.00       321.71
  134.29        2975.50           1564          75.00       326.07
  134.32        2975.75           1567          74.00       321.71
  134.35        2976.00           1570          70.00       304.27
  134.38        2976.25           1574          67.00       291.20
  134.41        2976.50           1577          77.00       334.79
  134.44        2976.75           1580          76.00       330.43
  134.47        2977.00           1584          68.00       295.56
  134.50        2977.25           1587          71.00       308.63
  134.54        2977.50           1591          76.00       330.43
  134.57        2977.75           1594          67.00       291.20
  134.60        2978.00           1597          65.00       282.48
  134.63        2978.25           1601          72.00       312.99
  134.66        2978.50           1604          65.00       282.48
  134.69        2978.75           1607          65.00       282.48
  134.72        2979.00           1611          74.00       321.71
  134.75        2979.25           1614          71.00       308.63
  134.78        2979.50           1617          65.00       282.48
  134.82        2979.75           1621          79.00       343.51
  134.85        2980.00           1624          72.00       312.99
  134.88        2980.25           1628          80.00       347.87
  134.91        2980.50           1631          73.00       317.35
  134.94        2980.75           1634          74.00       321.71
  134.97        2981.00           1638          67.00       291.20
  135.00        2981.25           1641          67.00       291.20
  135.03        2981.50           1644          69.00       299.92
  135.06        2981.75           1648          66.00       286.84
  135.10        2982.00           1651          67.00       291.20
  135.13        2982.25           1654          64.00       278.12
  135.16        2982.50           1658          75.00       326.07
  135.19        2982.75           1661          65.00       282.48
  135.22        2983.00           1665          67.00       291.20
  135.25        2983.25           1668          69.00       299.92
  135.28        2983.50           1671          71.00       308.63
  135.31        2983.75           1675          64.00       278.12
  135.34        2984.00           1678          64.00       278.12
HS scan finished at 02:15:40
end
************************************************************
  HS Scan of (1) Internal mercury lamp
************************************************************
Integration time is 0.2294 seconds per sample
dh060617ElArenosillo 37.1 6.73 3.126073pr1000
************************************************************
Dead Time -------------------------  2.7E-08 
Number of Cycles Used -------------  4 
Starting Wavelength (Angstroms) ---  2950 
Final Wavelength (Angstoms) -------  2984 
Wavelength Increment (Angstroms) --  .25 
Filter Wheel #1 Position ---------- (1) Ground quartz diffuser (ND=2.32)
Filter Wheel #2 Position ---------- (1) Neutral Density 0.494



************************************************************
HS scan start time = 20:41:31
Dark Count =  .2 


Time (GMT)  Wavelength (Ang)  Step Number  Raw Counts  Counts/Second

 1242.12        2950.00           1223          82.00       356.59
 1242.29        2950.25           1226          79.00       343.51
 1242.32        2950.50           1229          84.00       365.30
 1242.35        2950.75           1233          87.00       378.38
 1242.38        2951.00           1236          81.00       352.23
 1242.41        2951.25           1239          77.00       334.79
 1242.44        2951.50           1243          84.00       365.30
 1242.47        2951.75           1246          80.00       347.87
 1242.50        2952.00           1249          82.00       356.59
 1242.53        2952.25           1253          80.00       347.87
 1242.56        2952.50           1256          75.00       326.07
 1242.59        2952.75           1259          80.00       347.87
 1242.62        2953.00           1263          81.00       352.23
 1242.65        2953.25           1266          84.00       365.30
 1242.68        2953.50           1269          77.00       334.79
 1242.71        2953.75           1273          79.00       343.51
 1242.74        2954.00           1276          77.00       334.79
 1242.77        2954.25           1279          77.00       334.79
 1242.80        2954.50           1283          78.00       339.15
 1242.83        2954.75           1286          70.00       304.27
 1242.86        2955.00           1289          82.00       356.59
 1242.89        2955.25           1293          77.00       334.79
 1242.93        2955.50           1296          82.00       356.59
 1242.95        2955.75           1299          92.00       400.18
 1242.98        2956.00           1303          77.00       334.79
 1243.01        2956.25           1306          87.00       378.38
 1243.05        2956.50           1309          68.00       295.56
 1243.08        2956.75           1313          85.00       369.66
 1243.10        2957.00           1316          81.00       352.23
 1243.13        2957.25           1319          87.00       378.38
 1243.16        2957.50           1323          76.00       330.43
 1243.20        2957.75           1326          72.00       312.99
 1243.23        2958.00           1329          79.00       343.51
 1243.25        2958.25           1333          88.00       382.74
 1243.29        2958.50           1336          75.00       326.07
 1243.32        2958.75           1339          85.00       369.66
 1243.35        2959.00           1343          76.00       330.43
 1243.37        2959.25           1346          73.00       317.35
 1243.41        2959.50           1349          82.00       356.59
 1243.44        2959.75           1353          81.00       352.23
 1243.47        2960.00           1356          78.00       339.15
 1243.50        2960.25           1359          75.00       326.07
 1243.53        2960.50           1363          85.00       369.66
 1243.56        2960.75           1366          96.00       417.62
 1243.59        2961.00           1369         111.00       483.01
 1243.62        2961.25           1373         125.00       544.04
 1243.65        2961.50           1376         385.00      1677.50
 1243.68        2961.75           1379        1861.00      8113.37
 1243.71        2962.00           1383        5355.00     23357.36
 1243.74        2962.25           1386        8998.00     39264.80
 1243.77        2962.50           1389       12651.00     55229.64
 1243.80        2962.75           1393       18404.00     80400.16
 1243.83        2963.00           1396       22908.00    100130.00
 1243.86        2963.25           1400       28911.00    126459.00
 1243.89        2963.50           1403       33463.00    146448.90
 1243.92        2963.75           1406       37727.00    165193.80
 1243.95        2964.00           1410       44079.00    193152.90
 1243.98        2964.25           1413       48516.00    212708.10
 1244.01        2964.50           1416       52908.00    232085.40
 1244.04        2964.75           1420       58721.00    257763.30
 1244.07        2965.00           1423       63008.00    276723.30
 1244.10        2965.25           1426       67592.00    297018.50
 1244.13        2965.50           1430       73636.00    323811.70
 1244.16        2965.75           1433       77918.00    342817.60
 1244.19        2966.00           1436       82071.00    361269.60
 1244.22        2966.25           1440       87712.00    386362.60
 1244.26        2966.50           1443       89792.00    395623.70
 1244.29        2966.75           1446       91371.00    402657.30
 1244.32        2967.00           1450       92083.00    405829.70
 1244.35        2967.25           1453       92677.00    408476.80
 1244.38        2967.50           1456       93086.00    410299.60
 1244.41        2967.75           1460       93126.00    410478.00
 1244.44        2968.00           1463       92561.00    407959.90
 1244.47        2968.25           1466       90643.00    399414.10
 1244.50        2968.50           1470       87128.00    383763.20
 1244.53        2968.75           1473       83988.00    369793.30
 1244.56        2969.00           1476       79583.00    350213.10
 1244.59        2969.25           1480       74004.00    325444.40
 1244.62        2969.50           1483       70155.00    308375.60
 1244.65        2969.75           1487       64063.00    281392.30
 1244.68        2970.00           1490       59817.00    262608.70
 1244.71        2970.25           1493       55210.00    242249.80
 1244.74        2970.50           1497       49639.00    217660.80
 1244.77        2970.75           1500       44566.00    195298.30
 1244.80        2971.00           1503       40332.00    176654.90
 1244.83        2971.25           1507       34431.00    150702.60
 1244.86        2971.50           1510       29584.00    129413.10
 1244.90        2971.75           1513       25174.00    110064.20
 1244.93        2972.00           1517       19446.00     84962.78
 1244.95        2972.25           1520       14599.00     63748.69
 1244.98        2972.50           1523       10177.00     44415.92
 1245.02        2972.75           1527        4521.00     19717.56
 1245.05        2973.00           1530        2105.00      9177.51
 1245.08        2973.25           1533         890.00      3879.22
 1245.11        2973.50           1537         247.00      1075.88
 1245.14        2973.75           1540         142.00       618.14
 1245.17        2974.00           1544          99.00       430.69
 1245.20        2974.25           1547          94.00       408.90
 1245.23        2974.50           1550          79.00       343.51
 1245.26        2974.75           1554          82.00       356.59
 1245.29        2975.00           1557          77.00       334.79
 1245.32        2975.25           1560          76.00       330.43
 1245.35        2975.50           1564          71.00       308.63
 1245.38        2975.75           1567          65.00       282.48
 1245.41        2976.00           1570          74.00       321.71
 1245.44        2976.25           1574          67.00       291.20
 1245.47        2976.50           1577          67.00       291.20
 1245.50        2976.75           1580          72.00       312.99
 1245.53        2977.00           1584          62.00       269.40
 1245.56        2977.25           1587          76.00       330.43
 1245.59        2977.50           1591          73.00       317.35
 1245.62        2977.75           1594          68.00       295.56
 1245.65        2978.00           1597          77.00       334.79
 1245.68        2978.25           1601          73.00       317.35
 1245.71        2978.50           1604          71.00       308.63
 1245.74        2978.75           1607          68.00       295.56
 1245.77        2979.00           1611          80.00       347.87
 1245.80        2979.25           1614          71.00       308.63
 1245.83        2979.50           1617          71.00       308.63
 1245.86        2979.75           1621          72.00       312.99
 1245.89        2980.00           1624          69.00       299.92
 1245.92        2980.25           1628          76.00       330.43
 1245.95        2980.50           1631          73.00       317.35
 1245.98        2980.75           1634          69.00       299.92
 1246.01        2981.00           1638          70.00       304.27
 1246.04        2981.25           1641          63.00       273.76
 1246.07        2981.50           1644          70.00       304.27
 1246.11        2981.75           1648          71.00       308.63
 1246.14        2982.00           1651          61.00       265.04
 1246.17        2982.25           1654          66.00       286.84
 1246.20        2982.50           1658          76.00       330.43
 1246.23        2982.75           1661          70.00       304.27
 1246.26        2983.00           1665          80.00       347.87
 1246.29        2983.25           1668          65.00       282.48
 1246.32        2983.50           1671          68.00       295.56
 1246.35        2983.75           1675          65.00       282.48
 1246.38        2984.00           1678          66.00       286.84
HS scan finished at 20:46:42
end
