************************************************************
  HS Scan of (1) Internal mercury lamp
************************************************************
Integration time is 0.2294 seconds per sample
dh050617ElArenosillo 37.1 6.73 2.911481pr1000
************************************************************
Dead Time -------------------------  2.7E-08 
Number of Cycles Used -------------  4 
Starting Wavelength (Angstroms) ---  2950 
Final Wavelength (Angstoms) -------  2984 
Wavelength Increment (Angstroms) --  .25 
Filter Wheel #1 Position ---------- (1) Ground quartz diffuser (ND=2.32)
Filter Wheel #2 Position ---------- (1) Neutral Density 0.494



************************************************************
HS scan start time = 02:08:28
Dark Count =  .1 


Time (GMT)  Wavelength (Ang)  Step Number  Raw Counts  Counts/Second

  129.07        2950.00           1223          87.00       378.82
  129.24        2950.25           1226          81.00       352.66
  129.27        2950.50           1229          82.00       357.02
  129.30        2950.75           1233          85.00       370.10
  129.33        2951.00           1236          78.00       339.58
  129.37        2951.25           1239          82.00       357.02
  129.39        2951.50           1243          82.00       357.02
  129.43        2951.75           1246          80.00       348.30
  129.46        2952.00           1249          85.00       370.10
  129.49        2952.25           1253          90.00       391.90
  129.52        2952.50           1256          76.00       330.87
  129.55        2952.75           1259          88.00       383.18
  129.58        2953.00           1263          78.00       339.58
  129.61        2953.25           1266          72.00       313.43
  129.65        2953.50           1269          92.00       400.61
  129.67        2953.75           1273          83.00       361.38
  129.71        2954.00           1276          82.00       357.02
  129.74        2954.25           1279          82.00       357.02
  129.77        2954.50           1283          77.00       335.23
  129.80        2954.75           1286          83.00       361.38
  129.83        2955.00           1289          86.00       374.46
  129.86        2955.25           1293          80.00       348.30
  129.89        2955.50           1296          84.00       365.74
  129.92        2955.75           1299          86.00       374.46
  129.96        2956.00           1303          74.00       322.15
  129.98        2956.25           1306          80.00       348.30
  130.02        2956.50           1309          81.00       352.66
  130.05        2956.75           1313          70.00       304.71
  130.08        2957.00           1316          84.00       365.74
  130.11        2957.25           1319          75.00       326.51
  130.14        2957.50           1323          78.00       339.58
  130.17        2957.75           1326          76.00       330.87
  130.20        2958.00           1329          87.00       378.82
  130.23        2958.25           1333          82.00       357.02
  130.26        2958.50           1336          66.00       287.27
  130.29        2958.75           1339          73.00       317.79
  130.33        2959.00           1343          80.00       348.30
  130.36        2959.25           1346          85.00       370.10
  130.39        2959.50           1349          79.00       343.94
  130.42        2959.75           1353          72.00       313.43
  130.45        2960.00           1356          79.00       343.94
  130.48        2960.25           1359          87.00       378.82
  130.51        2960.50           1363          95.00       413.69
  130.54        2960.75           1366         101.00       439.85
  130.57        2961.00           1369         103.00       448.57
  130.60        2961.25           1373         119.00       518.32
  130.64        2961.50           1376         380.00      1656.13
  130.67        2961.75           1379        1658.00      7228.53
  130.70        2962.00           1383        4675.00     20390.04
  130.73        2962.25           1386        7729.00     33722.49
  130.76        2962.50           1389       10957.00     47825.01
  130.79        2962.75           1393       15990.00     69834.70
  130.82        2963.00           1396       19635.00     85790.92
  130.86        2963.25           1400       24862.00    108696.50
  130.89        2963.50           1403       28788.00    125919.50
  130.92        2963.75           1406       32537.00    142381.10
  130.95        2964.00           1410       37836.00    165673.60
  130.98        2964.25           1413       41622.00    182333.50
  131.01        2964.50           1416       45679.00    200202.60
  131.04        2964.75           1420       50719.00    222425.50
  131.08        2965.00           1423       54149.00    237564.70
  131.11        2965.25           1426       58246.00    255664.20
  131.14        2965.50           1430       63061.00    276958.30
  131.17        2965.75           1433       66802.00    293519.70
  131.20        2966.00           1436       70420.00    309550.70
  131.23        2966.25           1440       75370.00    331506.30
  131.26        2966.50           1443       77515.00    341028.50
  131.30        2966.75           1446       78719.00    346375.50
  131.33        2967.00           1450       79385.00    349334.00
  131.36        2967.25           1453       79859.00    351439.70
  131.39        2967.50           1456       79762.00    351008.80
  131.42        2967.75           1460       80031.00    352204.00
  131.45        2968.00           1463       79470.00    349711.50
  131.48        2968.25           1466       77780.00    342205.20
  131.51        2968.50           1470       75463.00    331919.00
  131.54        2968.75           1473       72044.00    316751.00
  131.57        2969.00           1476       68207.00    299743.50
  131.61        2969.25           1480       63939.00    280843.90
  131.64        2969.50           1483       60036.00    263577.50
  131.67        2969.75           1487       54965.00    241168.20
  131.70        2970.00           1490       51083.00    224031.50
  131.73        2970.25           1493       47612.00    208722.70
  131.76        2970.50           1497       42255.00    185120.40
  131.79        2970.75           1500       38267.00    167569.40
  131.83        2971.00           1503       34620.00    151533.70
  131.86        2971.25           1507       29310.00    128210.70
  131.89        2971.50           1510       25426.00    111169.70
  131.92        2971.75           1513       21499.00     93956.00
  131.95        2972.00           1517       16632.00     72644.09
  131.98        2972.25           1520       12462.00     54403.75
  132.01        2972.50           1523        8694.00     37937.27
  132.04        2972.75           1527        3930.00     17139.14
  132.08        2973.00           1530        1775.00      7738.76
  132.11        2973.25           1533         768.00      3347.73
  132.14        2973.50           1537         241.00      1050.16
  132.17        2973.75           1540         133.00       579.35
  132.20        2974.00           1544          97.00       422.41
  132.23        2974.25           1547          93.00       404.97
  132.26        2974.50           1550          82.00       357.02
  132.29        2974.75           1554          73.00       317.79
  132.32        2975.00           1557          70.00       304.71
  132.35        2975.25           1560          77.00       335.23
  132.38        2975.50           1564          75.00       326.51
  132.41        2975.75           1567          70.00       304.71
  132.45        2976.00           1570          60.00       261.12
  132.48        2976.25           1574          65.00       282.91
  132.51        2976.50           1577          76.00       330.87
  132.54        2976.75           1580          70.00       304.71
  132.57        2977.00           1584          78.00       339.58
  132.60        2977.25           1587          73.00       317.79
  132.63        2977.50           1591          81.00       352.66
  132.66        2977.75           1594          71.00       309.07
  132.69        2978.00           1597          73.00       317.79
  132.72        2978.25           1601          65.00       282.91
  132.76        2978.50           1604          78.00       339.58
  132.79        2978.75           1607          67.00       291.63
  132.82        2979.00           1611          75.00       326.51
  132.85        2979.25           1614          70.00       304.71
  132.88        2979.50           1617          77.00       335.23
  132.91        2979.75           1621          64.00       278.55
  132.94        2980.00           1624          69.00       300.35
  132.98        2980.25           1628          71.00       309.07
  133.00        2980.50           1631          71.00       309.07
  133.04        2980.75           1634          66.00       287.27
  133.07        2981.00           1638          74.00       322.15
  133.10        2981.25           1641          58.00       252.40
  133.13        2981.50           1644          64.00       278.55
  133.16        2981.75           1648          67.00       291.63
  133.19        2982.00           1651          66.00       287.27
  133.22        2982.25           1654          60.00       261.12
  133.26        2982.50           1658          66.00       287.27
  133.29        2982.75           1661          69.00       300.35
  133.32        2983.00           1665          75.00       326.51
  133.35        2983.25           1668          67.00       291.63
  133.38        2983.50           1671          60.00       261.12
  133.41        2983.75           1675          64.00       278.55
  133.44        2984.00           1678          63.00       274.20
HS scan finished at 02:13:46
end
************************************************************
  HS Scan of (1) Internal mercury lamp
************************************************************
Integration time is 0.2294 seconds per sample
dh050617ElArenosillo 37.1 6.73 3.126073pr1000
************************************************************
Dead Time -------------------------  2.7E-08 
Number of Cycles Used -------------  4 
Starting Wavelength (Angstroms) ---  2950 
Final Wavelength (Angstoms) -------  2984 
Wavelength Increment (Angstroms) --  .25 
Filter Wheel #1 Position ---------- (1) Ground quartz diffuser (ND=2.32)
Filter Wheel #2 Position ---------- (1) Neutral Density 0.494



************************************************************
HS scan start time = 20:41:42
Dark Count =  .3 


Time (GMT)  Wavelength (Ang)  Step Number  Raw Counts  Counts/Second

 1242.31        2950.00           1223          80.00       347.43
 1242.48        2950.25           1226          81.00       351.79
 1242.51        2950.50           1229          85.00       369.23
 1242.54        2950.75           1233          81.00       351.79
 1242.57        2951.00           1236          74.00       321.28
 1242.60        2951.25           1239          80.00       347.43
 1242.63        2951.50           1243          80.00       347.43
 1242.66        2951.75           1246          89.00       386.66
 1242.69        2952.00           1249          84.00       364.87
 1242.72        2952.25           1253          75.00       325.63
 1242.76        2952.50           1256          87.00       377.95
 1242.78        2952.75           1259          81.00       351.79
 1242.82        2953.00           1263          79.00       343.07
 1242.85        2953.25           1266          78.00       338.71
 1242.88        2953.50           1269          77.00       334.35
 1242.91        2953.75           1273          83.00       360.51
 1242.94        2954.00           1276          79.00       343.07
 1242.97        2954.25           1279          81.00       351.79
 1243.00        2954.50           1283          72.00       312.56
 1243.03        2954.75           1286          81.00       351.79
 1243.06        2955.00           1289          78.00       338.71
 1243.09        2955.25           1293          75.00       325.63
 1243.12        2955.50           1296          81.00       351.79
 1243.15        2955.75           1299          81.00       351.79
 1243.18        2956.00           1303          62.00       268.96
 1243.22        2956.25           1306          79.00       343.07
 1243.24        2956.50           1309          80.00       347.43
 1243.28        2956.75           1313          87.00       377.95
 1243.31        2957.00           1316          80.00       347.43
 1243.34        2957.25           1319          82.00       356.15
 1243.37        2957.50           1323          81.00       351.79
 1243.40        2957.75           1326          73.00       316.92
 1243.43        2958.00           1329          80.00       347.43
 1243.46        2958.25           1333          68.00       295.12
 1243.50        2958.50           1336          81.00       351.79
 1243.53        2958.75           1339          79.00       343.07
 1243.56        2959.00           1343          79.00       343.07
 1243.59        2959.25           1346          86.00       373.59
 1243.62        2959.50           1349          80.00       347.43
 1243.65        2959.75           1353          83.00       360.51
 1243.68        2960.00           1356          79.00       343.07
 1243.71        2960.25           1359          88.00       382.31
 1243.74        2960.50           1363          83.00       360.51
 1243.77        2960.75           1366         101.00       438.98
 1243.81        2961.00           1369         105.00       456.41
 1243.84        2961.25           1373         132.00       574.12
 1243.87        2961.50           1376         462.00      2012.75
 1243.90        2961.75           1379        2046.00      8919.76
 1243.93        2962.00           1383        5725.00     24971.93
 1243.96        2962.25           1386        9217.00     40221.08
 1243.99        2962.50           1389       13036.00     56912.59
 1244.02        2962.75           1393       18713.00     81752.62
 1244.06        2963.00           1396       23182.00    101330.50
 1244.09        2963.25           1400       29086.00    127226.60
 1244.12        2963.50           1403       33565.00    146896.60
 1244.15        2963.75           1406       38103.00    166847.20
 1244.18        2964.00           1410       44243.00    193874.90
 1244.21        2964.25           1413       48564.00    212919.30
 1244.24        2964.50           1416       53262.00    233647.60
 1244.27        2964.75           1420       59170.00    259747.70
 1244.30        2965.00           1423       63134.00    277280.50
 1244.33        2965.25           1426       67343.00    295915.00
 1244.37        2965.50           1430       73486.00    323145.90
 1244.40        2965.75           1433       77729.00    341977.90
 1244.43        2966.00           1436       81582.00    359095.60
 1244.46        2966.25           1440       87070.00    383504.60
 1244.49        2966.50           1443       89617.00    394844.00
 1244.52        2966.75           1446       90929.00    400687.70
 1244.55        2967.00           1450       91953.00    405250.00
 1244.59        2967.25           1453       92177.00    406248.20
 1244.62        2967.50           1456       92467.00    407540.50
 1244.65        2967.75           1460       92594.00    408106.50
 1244.68        2968.00           1463       91907.00    405045.10
 1244.71        2968.25           1466       89883.00    396028.60
 1244.74        2968.50           1470       86956.00    382997.30
 1244.77        2968.75           1473       82955.00    365199.30
 1244.80        2969.00           1476       78878.00    347080.90
 1244.83        2969.25           1480       73675.00    323984.40
 1244.86        2969.50           1483       69187.00    304084.90
 1244.90        2969.75           1487       63385.00    278391.20
 1244.93        2970.00           1490       59145.00    259637.20
 1244.96        2970.25           1493       54344.00    238424.90
 1244.99        2970.50           1497       48948.00    214612.70
 1245.02        2970.75           1500       44291.00    194086.30
 1245.05        2971.00           1503       39808.00    174348.50
 1245.08        2971.25           1507       33836.00    148087.40
 1245.12        2971.50           1510       29150.00    127507.50
 1245.15        2971.75           1513       24709.00    108024.70
 1245.18        2972.00           1517       18932.00     82711.53
 1245.21        2972.25           1520       14062.00     61399.44
 1245.24        2972.50           1523        9696.00     42313.79
 1245.27        2972.75           1527        4219.00     18399.29
 1245.30        2973.00           1530        1918.00      8361.52
 1245.33        2973.25           1533         801.00      3490.74
 1245.36        2973.50           1537         247.00      1075.45
 1245.40        2973.75           1540         123.00       534.88
 1245.43        2974.00           1544         102.00       443.34
 1245.46        2974.25           1547          95.00       412.82
 1245.49        2974.50           1550          90.00       391.02
 1245.52        2974.75           1554          83.00       360.51
 1245.55        2975.00           1557          81.00       351.79
 1245.58        2975.25           1560          78.00       338.71
 1245.61        2975.50           1564          75.00       325.63
 1245.64        2975.75           1567          71.00       308.20
 1245.67        2976.00           1570          80.00       347.43
 1245.70        2976.25           1574          65.00       282.04
 1245.73        2976.50           1577          70.00       303.84
 1245.77        2976.75           1580          81.00       351.79
 1245.79        2977.00           1584          66.00       286.40
 1245.83        2977.25           1587          72.00       312.56
 1245.86        2977.50           1591          72.00       312.56
 1245.89        2977.75           1594          76.00       329.99
 1245.92        2978.00           1597          73.00       316.92
 1245.95        2978.25           1601          69.00       299.48
 1245.98        2978.50           1604          73.00       316.92
 1246.01        2978.75           1607          71.00       308.20
 1246.04        2979.00           1611          68.00       295.12
 1246.08        2979.25           1614          70.00       303.84
 1246.10        2979.50           1617          66.00       286.40
 1246.14        2979.75           1621          74.00       321.28
 1246.17        2980.00           1624          80.00       347.43
 1246.20        2980.25           1628          71.00       308.20
 1246.23        2980.50           1631          70.00       303.84
 1246.26        2980.75           1634          74.00       321.28
 1246.29        2981.00           1638          71.00       308.20
 1246.32        2981.25           1641          73.00       316.92
 1246.35        2981.50           1644          73.00       316.92
 1246.38        2981.75           1648          74.00       321.28
 1246.42        2982.00           1651          74.00       321.28
 1246.45        2982.25           1654          68.00       295.12
 1246.48        2982.50           1658          57.00       247.17
 1246.51        2982.75           1661          68.00       295.12
 1246.54        2983.00           1665          65.00       282.04
 1246.57        2983.25           1668          70.00       303.84
 1246.60        2983.50           1671          68.00       295.12
 1246.63        2983.75           1675          64.00       277.68
 1246.66        2984.00           1678          77.00       334.35
HS scan finished at 20:46:59
end
