************************************************************
  HS Scan of (1) Internal mercury lamp
************************************************************
Integration time is 0.2294 seconds per sample
dh020617El Arenosillo 37.1 6.73 3.072425pr1000
************************************************************
Dead Time -------------------------  2.7E-08 
Number of Cycles Used -------------  4 
Starting Wavelength (Angstroms) ---  2950 
Final Wavelength (Angstoms) -------  2984 
Wavelength Increment (Angstroms) --  .25 
Filter Wheel #1 Position ---------- (1) Ground quartz diffuser (ND=2.32)
Filter Wheel #2 Position ---------- (1) Neutral Density 0.494



************************************************************
HS scan start time = 01:12:25
Dark Count =  .4 


Time (GMT)  Wavelength (Ang)  Step Number  Raw Counts  Counts/Second

   72.96        2950.00           1223          77.00       333.92
   73.06        2950.25           1226          80.00       347.00
   73.09        2950.50           1229          88.00       381.87
   73.12        2950.75           1233          85.00       368.79
   73.15        2951.00           1236          84.00       364.43
   73.18        2951.25           1239          83.00       360.07
   73.21        2951.50           1243          88.00       381.87
   73.24        2951.75           1246          78.00       338.28
   73.28        2952.00           1249          84.00       364.43
   73.30        2952.25           1253          84.00       364.43
   73.33        2952.50           1256          78.00       338.28
   73.37        2952.75           1259          82.00       355.71
   73.39        2953.00           1263          84.00       364.43
   73.43        2953.25           1266          78.00       338.28
   73.46        2953.50           1269          79.00       342.64
   73.49        2953.75           1273          79.00       342.64
   73.52        2954.00           1276          87.00       377.51
   73.55        2954.25           1279          80.00       347.00
   73.58        2954.50           1283          82.00       355.71
   73.61        2954.75           1286          82.00       355.71
   73.64        2955.00           1289          79.00       342.64
   73.67        2955.25           1293          91.00       394.95
   73.70        2955.50           1296          84.00       364.43
   73.73        2955.75           1299          79.00       342.64
   73.76        2956.00           1303          77.00       333.92
   73.79        2956.25           1306          81.00       351.35
   73.82        2956.50           1309          74.00       320.84
   73.85        2956.75           1313          79.00       342.64
   73.88        2957.00           1316          79.00       342.64
   73.91        2957.25           1319          93.00       403.67
   73.94        2957.50           1323          76.00       329.56
   73.97        2957.75           1326          81.00       351.35
   74.00        2958.00           1329          79.00       342.64
   74.03        2958.25           1333          71.00       307.76
   74.06        2958.50           1336          77.00       333.92
   74.09        2958.75           1339          79.00       342.64
   74.13        2959.00           1343          76.00       329.56
   74.15        2959.25           1346          83.00       360.07
   74.19        2959.50           1349          84.00       364.43
   74.22        2959.75           1353          74.00       320.84
   74.25        2960.00           1356          75.00       325.20
   74.28        2960.25           1359          87.00       377.51
   74.31        2960.50           1363          99.00       429.82
   74.34        2960.75           1366          95.00       412.38
   74.37        2961.00           1369         105.00       455.98
   74.40        2961.25           1373         117.00       508.29
   74.43        2961.50           1376         209.00       909.35
   74.46        2961.75           1379        1341.00      5844.86
   74.49        2962.00           1383        4486.00     19563.95
   74.52        2962.25           1386        7789.00     33983.22
   74.55        2962.50           1389       11382.00     49681.25
   74.58        2962.75           1393       16921.00     73907.58
   74.61        2963.00           1396       21320.00     93170.44
   74.64        2963.25           1400       27167.00    118805.10
   74.67        2963.50           1403       31678.00    138606.70
   74.70        2963.75           1406       36191.00    158438.30
   74.74        2964.00           1410       42148.00    184648.00
   74.77        2964.25           1413       46436.00    203537.50
   74.79        2964.50           1416       51361.00    225256.90
   74.83        2964.75           1420       56955.00    249957.70
   74.86        2965.00           1423       61005.00    267861.40
   74.89        2965.25           1426       65572.00    288071.50
   74.92        2965.50           1430       71348.00    313663.50
   74.95        2965.75           1433       75643.00    332716.60
   74.98        2966.00           1436       79814.00    351238.50
   75.01        2966.25           1440       85116.00    374809.70
   75.04        2966.50           1443       88445.00    389624.90
   75.07        2966.75           1446       90300.00    397885.40
   75.10        2967.00           1450       91246.00    402099.50
   75.13        2967.25           1453       91918.00    405093.60
   75.16        2967.50           1456       91837.00    404732.70
   75.19        2967.75           1460       92092.00    405869.00
   75.22        2968.00           1463       91743.00    404313.90
   75.25        2968.25           1466       90305.00    397907.70
   75.28        2968.50           1470       87478.00    385320.20
   75.32        2968.75           1473       83962.00    369676.70
   75.34        2969.00           1476       79915.00    351687.20
   75.38        2969.25           1480       74687.00    328474.00
   75.41        2969.50           1483       70310.00    309061.80
   75.44        2969.75           1487       64705.00    284233.10
   75.47        2970.00           1490       60522.00    265725.30
   75.50        2970.25           1493       55868.00    245155.30
   75.53        2970.50           1497       49919.00    218895.00
   75.56        2970.75           1500       45761.00    200562.70
   75.59        2971.00           1503       41320.00    181002.70
   75.62        2971.25           1507       35286.00    154459.70
   75.65        2971.50           1510       30669.00    134175.70
   75.68        2971.75           1513       26224.00    114668.40
   75.71        2972.00           1517       20133.00     87970.69
   75.74        2972.25           1520       15793.00     68971.40
   75.77        2972.50           1523       11382.00     49681.25
   75.80        2972.75           1527        5521.00     24081.04
   75.83        2973.00           1530        2559.00     11156.81
   75.86        2973.25           1533        1106.00      4820.16
   75.89        2973.50           1537         337.00      1467.36
   75.93        2973.75           1540         162.00       704.46
   75.96        2974.00           1544         105.00       455.98
   75.99        2974.25           1547         105.00       455.98
   76.02        2974.50           1550          98.00       425.46
   76.05        2974.75           1554          79.00       342.64
   76.08        2975.00           1557          80.00       347.00
   76.11        2975.25           1560          74.00       320.84
   76.14        2975.50           1564          78.00       338.28
   76.17        2975.75           1567          71.00       307.76
   76.20        2976.00           1570          78.00       338.28
   76.23        2976.25           1574          73.00       316.48
   76.26        2976.50           1577          69.00       299.04
   76.29        2976.75           1580          83.00       360.07
   76.32        2977.00           1584          73.00       316.48
   76.35        2977.25           1587          74.00       320.84
   76.38        2977.50           1591          70.00       303.40
   76.41        2977.75           1594          72.00       312.12
   76.44        2978.00           1597          67.00       290.32
   76.47        2978.25           1601          78.00       338.28
   76.50        2978.50           1604          75.00       325.20
   76.53        2978.75           1607          74.00       320.84
   76.56        2979.00           1611          64.00       277.25
   76.59        2979.25           1614          74.00       320.84
   76.62        2979.50           1617          73.00       316.48
   76.66        2979.75           1621          72.00       312.12
   76.69        2980.00           1624          68.00       294.68
   76.71        2980.25           1628          66.00       285.97
   76.75        2980.50           1631          76.00       329.56
   76.78        2980.75           1634          74.00       320.84
   76.81        2981.00           1638          67.00       290.32
   76.84        2981.25           1641          77.00       333.92
   76.87        2981.50           1644          66.00       285.97
   76.90        2981.75           1648          68.00       294.68
   76.93        2982.00           1651          75.00       325.20
   76.96        2982.25           1654          69.00       299.04
   76.99        2982.50           1658          73.00       316.48
   77.02        2982.75           1661          65.00       281.61
   77.05        2983.00           1665          70.00       303.40
   77.08        2983.25           1668          69.00       299.04
   77.11        2983.50           1671          70.00       303.40
   77.14        2983.75           1675          72.00       312.12
   77.17        2984.00           1678          65.00       281.61
HS scan finished at 01:17:29
end
************************************************************
  HS Scan of (1) Internal mercury lamp
************************************************************
Integration time is 0.2294 seconds per sample
dh020617El Arenosillo 37.1 6.73 3.126073pr1000
************************************************************
Dead Time -------------------------  2.7E-08 
Number of Cycles Used -------------  4 
Starting Wavelength (Angstroms) ---  2950 
Final Wavelength (Angstoms) -------  2984 
Wavelength Increment (Angstroms) --  .25 
Filter Wheel #1 Position ---------- (1) Ground quartz diffuser (ND=2.32)
Filter Wheel #2 Position ---------- (1) Neutral Density 0.494



************************************************************
HS scan start time = 02:04:07
Dark Count =  .3 


Time (GMT)  Wavelength (Ang)  Step Number  Raw Counts  Counts/Second

  124.72        2950.00           1223          79.00       343.07
  124.89        2950.25           1226          87.00       377.95
  124.92        2950.50           1229          78.00       338.71
  124.95        2950.75           1233          83.00       360.51
  124.98        2951.00           1236          78.00       338.71
  125.01        2951.25           1239          80.00       347.43
  125.05        2951.50           1243          86.00       373.59
  125.08        2951.75           1246          82.00       356.15
  125.11        2952.00           1249          80.00       347.43
  125.14        2952.25           1253          77.00       334.35
  125.17        2952.50           1256          79.00       343.07
  125.20        2952.75           1259          81.00       351.79
  125.23        2953.00           1263          85.00       369.23
  125.26        2953.25           1266          87.00       377.95
  125.29        2953.50           1269          82.00       356.15
  125.32        2953.75           1273          76.00       329.99
  125.35        2954.00           1276          84.00       364.87
  125.39        2954.25           1279          79.00       343.07
  125.42        2954.50           1283          78.00       338.71
  125.45        2954.75           1286          80.00       347.43
  125.48        2955.00           1289          76.00       329.99
  125.51        2955.25           1293          75.00       325.63
  125.54        2955.50           1296          79.00       343.07
  125.57        2955.75           1299          73.00       316.92
  125.60        2956.00           1303          70.00       303.84
  125.63        2956.25           1306          81.00       351.79
  125.66        2956.50           1309          86.00       373.59
  125.69        2956.75           1313          81.00       351.79
  125.73        2957.00           1316          78.00       338.71
  125.76        2957.25           1319          80.00       347.43
  125.79        2957.50           1323          84.00       364.87
  125.82        2957.75           1326          80.00       347.43
  125.85        2958.00           1329          83.00       360.51
  125.88        2958.25           1333          81.00       351.79
  125.91        2958.50           1336          77.00       334.35
  125.94        2958.75           1339          82.00       356.15
  125.97        2959.00           1343          83.00       360.51
  126.00        2959.25           1346          83.00       360.51
  126.03        2959.50           1349          82.00       356.15
  126.06        2959.75           1353          73.00       316.92
  126.09        2960.00           1356          77.00       334.35
  126.12        2960.25           1359          85.00       369.23
  126.15        2960.50           1363          93.00       404.10
  126.19        2960.75           1366         105.00       456.41
  126.22        2961.00           1369         107.00       465.13
  126.25        2961.25           1373         142.00       617.71
  126.28        2961.50           1376         580.00      2527.20
  126.31        2961.75           1379        2341.00     10206.39
  126.34        2962.00           1383        6224.00     27150.24
  126.37        2962.25           1386        9923.00     43305.62
  126.40        2962.50           1389       13839.00     60424.14
  126.44        2962.75           1393       19959.00     87209.02
  126.47        2963.00           1396       24242.00    105977.20
  126.50        2963.25           1400       30427.00    133113.60
  126.53        2963.50           1403       34974.00    153088.80
  126.56        2963.75           1406       39727.00    173992.00
  126.59        2964.00           1410       45951.00    201400.40
  126.62        2964.25           1413       50695.00    222318.70
  126.65        2964.50           1416       54995.00    241299.80
  126.68        2964.75           1420       61115.00    268348.40
  126.71        2965.00           1423       65581.00    288111.80
  126.74        2965.25           1426       70032.00    307830.00
  126.78        2965.50           1430       76030.00    334434.80
  126.81        2965.75           1433       80447.00    354051.50
  126.84        2966.00           1436       84842.00    373591.30
  126.87        2966.25           1440       90335.00    398041.80
  126.90        2966.50           1443       92803.00    409038.00
  126.93        2966.75           1446       94064.00    414658.90
  126.96        2967.00           1450       95201.00    419728.50
  126.99        2967.25           1453       95269.00    420031.80
  127.02        2967.50           1456       95584.00    421436.60
  127.05        2967.75           1460       95461.00    420888.00
  127.08        2968.00           1463       94828.00    418065.30
  127.12        2968.25           1466       92547.00    407897.00
  127.15        2968.50           1470       88813.00    391263.80
  127.18        2968.75           1473       85277.00    375526.40
  127.21        2969.00           1476       80837.00    355784.60
  127.24        2969.25           1480       75493.00    332051.30
  127.27        2969.50           1483       70903.00    311691.00
  127.30        2969.75           1487       65232.00    286566.60
  127.33        2970.00           1490       60589.00    266022.00
  127.36        2970.25           1493       56072.00    246056.90
  127.40        2970.50           1497       50031.00    219389.50
  127.43        2970.75           1500       45090.00    197606.40
  127.46        2971.00           1503       40724.00    178379.70
  127.49        2971.25           1507       34544.00    151198.80
  127.52        2971.50           1510       29610.00    129526.70
  127.55        2971.75           1513       25180.00    110090.10
  127.58        2972.00           1517       19126.00     83561.03
  127.61        2972.25           1520       14361.00     62707.22
  127.64        2972.50           1523        9735.00     42484.19
  127.67        2972.75           1527        4210.00     18360.01
  127.70        2973.00           1530        1859.00      8104.21
  127.73        2973.25           1533         784.00      3416.62
  127.76        2973.50           1537         238.00      1036.21
  127.80        2973.75           1540         134.00       582.83
  127.83        2974.00           1544         112.00       486.93
  127.86        2974.25           1547         100.00       434.62
  127.89        2974.50           1550          92.00       399.74
  127.92        2974.75           1554          88.00       382.31
  127.95        2975.00           1557          75.00       325.63
  127.98        2975.25           1560          79.00       343.07
  128.01        2975.50           1564          66.00       286.40
  128.04        2975.75           1567          75.00       325.63
  128.07        2976.00           1570          73.00       316.92
  128.10        2976.25           1574          69.00       299.48
  128.14        2976.50           1577          75.00       325.63
  128.17        2976.75           1580          72.00       312.56
  128.20        2977.00           1584          73.00       316.92
  128.23        2977.25           1587          73.00       316.92
  128.26        2977.50           1591          74.00       321.28
  128.29        2977.75           1594          71.00       308.20
  128.32        2978.00           1597          67.00       290.76
  128.35        2978.25           1601          74.00       321.28
  128.38        2978.50           1604          69.00       299.48
  128.41        2978.75           1607          71.00       308.20
  128.44        2979.00           1611          71.00       308.20
  128.48        2979.25           1614          72.00       312.56
  128.50        2979.50           1617          61.00       264.61
  128.54        2979.75           1621          76.00       329.99
  128.57        2980.00           1624          84.00       364.87
  128.60        2980.25           1628          70.00       303.84
  128.63        2980.50           1631          70.00       303.84
  128.66        2980.75           1634          69.00       299.48
  128.69        2981.00           1638          70.00       303.84
  128.72        2981.25           1641          76.00       329.99
  128.75        2981.50           1644          73.00       316.92
  128.78        2981.75           1648          70.00       303.84
  128.81        2982.00           1651          72.00       312.56
  128.84        2982.25           1654          71.00       308.20
  128.87        2982.50           1658          69.00       299.48
  128.90        2982.75           1661          71.00       308.20
  128.93        2983.00           1665          69.00       299.48
  128.97        2983.25           1668          62.00       268.96
  129.00        2983.50           1671          67.00       290.76
  129.03        2983.75           1675          71.00       308.20
  129.06        2984.00           1678          62.00       268.96
HS scan finished at 02:09:22
end
************************************************************
  HS Scan of (1) Internal mercury lamp
************************************************************
Integration time is 0.2294 seconds per sample
dh020617ElArenosillo 37.1 6.73 3.179721pr1000
************************************************************
Dead Time -------------------------  2.7E-08 
Number of Cycles Used -------------  4 
Starting Wavelength (Angstroms) ---  2950 
Final Wavelength (Angstoms) -------  2984 
Wavelength Increment (Angstroms) --  .25 
Filter Wheel #1 Position ---------- (1) Ground quartz diffuser (ND=2.32)
Filter Wheel #2 Position ---------- (1) Neutral Density 0.494



************************************************************
HS scan start time = 21:39:25
Dark Count =  .4 


Time (GMT)  Wavelength (Ang)  Step Number  Raw Counts  Counts/Second

 1300.03        2950.00           1223          77.00       333.92
 1300.20        2950.25           1226          90.00       390.59
 1300.23        2950.50           1229          78.00       338.28
 1300.26        2950.75           1233          80.00       347.00
 1300.29        2951.00           1236          74.00       320.84
 1300.32        2951.25           1239          82.00       355.71
 1300.35        2951.50           1243          75.00       325.20
 1300.38        2951.75           1246          85.00       368.79
 1300.41        2952.00           1249          88.00       381.87
 1300.44        2952.25           1253          80.00       347.00
 1300.47        2952.50           1256          80.00       347.00
 1300.50        2952.75           1259          73.00       316.48
 1300.53        2953.00           1263          82.00       355.71
 1300.56        2953.25           1266          80.00       347.00
 1300.59        2953.50           1269          83.00       360.07
 1300.62        2953.75           1273          73.00       316.48
 1300.65        2954.00           1276          87.00       377.51
 1300.68        2954.25           1279          91.00       394.95
 1300.71        2954.50           1283          71.00       307.76
 1300.74        2954.75           1286          77.00       333.92
 1300.77        2955.00           1289          77.00       333.92
 1300.80        2955.25           1293          87.00       377.51
 1300.83        2955.50           1296          75.00       325.20
 1300.86        2955.75           1299          75.00       325.20
 1300.89        2956.00           1303          74.00       320.84
 1300.93        2956.25           1306          71.00       307.76
 1300.95        2956.50           1309          69.00       299.04
 1300.98        2956.75           1313          82.00       355.71
 1301.01        2957.00           1316          84.00       364.43
 1301.05        2957.25           1319          79.00       342.64
 1301.08        2957.50           1323          85.00       368.79
 1301.11        2957.75           1326          82.00       355.71
 1301.14        2958.00           1329          82.00       355.71
 1301.17        2958.25           1333          73.00       316.48
 1301.20        2958.50           1336          74.00       320.84
 1301.23        2958.75           1339          79.00       342.64
 1301.26        2959.00           1343          73.00       316.48
 1301.29        2959.25           1346          81.00       351.35
 1301.32        2959.50           1349          81.00       351.35
 1301.35        2959.75           1353          71.00       307.76
 1301.38        2960.00           1356          79.00       342.64
 1301.41        2960.25           1359          83.00       360.07
 1301.44        2960.50           1363          92.00       399.31
 1301.47        2960.75           1366         102.00       442.90
 1301.50        2961.00           1369         108.00       469.06
 1301.53        2961.25           1373         120.00       521.37
 1301.56        2961.50           1376         264.00      1149.12
 1301.59        2961.75           1379        1496.00      6520.76
 1301.62        2962.00           1383        4913.00     21427.39
 1301.65        2962.25           1386        8551.00     37311.33
 1301.68        2962.50           1389       12228.00     53379.41
 1301.71        2962.75           1393       18111.00     79116.51
 1301.74        2963.00           1396       22648.00     98989.59
 1301.77        2963.25           1400       28629.00    125220.40
 1301.80        2963.50           1403       33545.00    146808.30
 1301.83        2963.75           1406       38045.00    166591.60
 1301.86        2964.00           1410       44338.00    194293.00
 1301.90        2964.25           1413       49224.00    215829.50
 1301.93        2964.50           1416       53651.00    235364.60
 1301.95        2964.75           1420       59612.00    261701.40
 1301.99        2965.00           1423       64458.00    283139.70
 1302.02        2965.25           1426       68543.00    301230.90
 1302.05        2965.50           1430       74902.00    329428.00
 1302.08        2965.75           1433       79260.00    348777.40
 1302.11        2966.00           1436       83632.00    368209.20
 1302.14        2966.25           1440       89009.00    392136.00
 1302.17        2966.50           1443       92636.00    408293.20
 1302.20        2966.75           1446       94242.00    415452.00
 1302.23        2967.00           1450       95448.00    420829.60
 1302.26        2967.25           1453       96191.00    424143.40
 1302.29        2967.50           1456       96340.00    424808.10
 1302.32        2967.75           1460       95954.00    423086.30
 1302.35        2968.00           1463       95714.00    422015.90
 1302.38        2968.25           1466       94626.00    417164.10
 1302.41        2968.50           1470       90902.00    400567.00
 1302.44        2968.75           1473       87503.00    385431.40
 1302.47        2969.00           1476       83459.00    367439.90
 1302.50        2969.25           1480       78015.00    343247.50
 1302.53        2969.50           1483       73246.00    322080.80
 1302.56        2969.75           1487       67287.00    295666.50
 1302.59        2970.00           1490       63103.00    277142.80
 1302.62        2970.25           1493       58198.00    255450.70
 1302.65        2970.50           1497       52037.00    228240.00
 1302.68        2970.75           1500       47366.00    207636.80
 1302.72        2971.00           1503       42859.00    187778.80
 1302.75        2971.25           1507       36624.00    160342.20
 1302.78        2971.50           1510       31807.00    139173.30
 1302.81        2971.75           1513       27167.00    118805.10
 1302.84        2972.00           1517       20762.00     90725.89
 1302.87        2972.25           1520       16291.00     71150.51
 1302.90        2972.50           1523       11673.00     50953.22
 1302.93        2972.75           1527        5493.00     23958.83
 1302.96        2973.00           1530        2540.00     11073.93
 1302.99        2973.25           1533        1066.00      4645.74
 1303.02        2973.50           1537         328.00      1428.13
 1303.05        2973.75           1540         157.00       682.66
 1303.08        2974.00           1544          97.00       421.10
 1303.11        2974.25           1547         100.00       434.18
 1303.14        2974.50           1550          90.00       390.59
 1303.17        2974.75           1554          84.00       364.43
 1303.20        2975.00           1557          76.00       329.56
 1303.23        2975.25           1560          81.00       351.35
 1303.26        2975.50           1564          85.00       368.79
 1303.29        2975.75           1567          81.00       351.35
 1303.32        2976.00           1570          73.00       316.48
 1303.35        2976.25           1574          75.00       325.20
 1303.38        2976.50           1577          81.00       351.35
 1303.41        2976.75           1580          75.00       325.20
 1303.44        2977.00           1584          67.00       290.32
 1303.47        2977.25           1587          80.00       347.00
 1303.50        2977.50           1591          76.00       329.56
 1303.53        2977.75           1594          78.00       338.28
 1303.56        2978.00           1597          77.00       333.92
 1303.59        2978.25           1601          76.00       329.56
 1303.62        2978.50           1604          86.00       373.15
 1303.65        2978.75           1607          75.00       325.20
 1303.68        2979.00           1611          65.00       281.61
 1303.71        2979.25           1614          79.00       342.64
 1303.74        2979.50           1617          81.00       351.35
 1303.77        2979.75           1621          68.00       294.68
 1303.80        2980.00           1624          73.00       316.48
 1303.83        2980.25           1628          74.00       320.84
 1303.86        2980.50           1631          76.00       329.56
 1303.89        2980.75           1634          71.00       307.76
 1303.92        2981.00           1638          71.00       307.76
 1303.95        2981.25           1641          73.00       316.48
 1303.98        2981.50           1644          71.00       307.76
 1304.01        2981.75           1648          66.00       285.97
 1304.05        2982.00           1651          69.00       299.04
 1304.07        2982.25           1654          65.00       281.61
 1304.10        2982.50           1658          74.00       320.84
 1304.13        2982.75           1661          67.00       290.32
 1304.17        2983.00           1665          67.00       290.32
 1304.20        2983.25           1668          71.00       307.76
 1304.23        2983.50           1671          70.00       303.40
 1304.26        2983.75           1675          70.00       303.40
 1304.29        2984.00           1678          71.00       307.76
HS scan finished at 21:44:36
end
