************************************************************
  HS Scan of (1) Internal mercury lamp
************************************************************
Integration time is 0.2294 seconds per sample
dh040617ElArenosillo 37.1 6.73 3.233369pr1000
************************************************************
Dead Time -------------------------  2.7E-08 
Number of Cycles Used -------------  4 
Starting Wavelength (Angstroms) ---  2950 
Final Wavelength (Angstoms) -------  2984 
Wavelength Increment (Angstroms) --  .25 
Filter Wheel #1 Position ---------- (1) Ground quartz diffuser (ND=2.32)
Filter Wheel #2 Position ---------- (1) Neutral Density 0.494



************************************************************
HS scan start time = 20:41:31
Dark Count =  .3 


Time (GMT)  Wavelength (Ang)  Step Number  Raw Counts  Counts/Second

 1242.12        2950.00           1223          77.00       334.35
 1242.30        2950.25           1226          86.00       373.59
 1242.33        2950.50           1229          85.00       369.23
 1242.36        2950.75           1233          69.00       299.48
 1242.39        2951.00           1236          78.00       338.71
 1242.42        2951.25           1239          81.00       351.79
 1242.45        2951.50           1243          84.00       364.87
 1242.48        2951.75           1246          89.00       386.66
 1242.51        2952.00           1249          66.00       286.40
 1242.54        2952.25           1253          87.00       377.95
 1242.57        2952.50           1256          80.00       347.43
 1242.60        2952.75           1259          74.00       321.28
 1242.63        2953.00           1263          76.00       329.99
 1242.66        2953.25           1266          74.00       321.28
 1242.69        2953.50           1269          83.00       360.51
 1242.72        2953.75           1273          82.00       356.15
 1242.75        2954.00           1276          80.00       347.43
 1242.78        2954.25           1279          73.00       316.92
 1242.81        2954.50           1283          83.00       360.51
 1242.84        2954.75           1286          78.00       338.71
 1242.87        2955.00           1289          73.00       316.92
 1242.90        2955.25           1293          86.00       373.59
 1242.93        2955.50           1296          73.00       316.92
 1242.96        2955.75           1299          76.00       329.99
 1242.99        2956.00           1303          75.00       325.63
 1243.02        2956.25           1306          73.00       316.92
 1243.05        2956.50           1309          76.00       329.99
 1243.09        2956.75           1313          75.00       325.63
 1243.12        2957.00           1316          76.00       329.99
 1243.15        2957.25           1319          87.00       377.95
 1243.17        2957.50           1323          84.00       364.87
 1243.21        2957.75           1326          82.00       356.15
 1243.24        2958.00           1329          78.00       338.71
 1243.27        2958.25           1333          75.00       325.63
 1243.30        2958.50           1336          80.00       347.43
 1243.33        2958.75           1339          70.00       303.84
 1243.36        2959.00           1343          76.00       329.99
 1243.39        2959.25           1346          82.00       356.15
 1243.42        2959.50           1349          79.00       343.07
 1243.45        2959.75           1353          78.00       338.71
 1243.48        2960.00           1356          86.00       373.59
 1243.51        2960.25           1359          83.00       360.51
 1243.54        2960.50           1363          92.00       399.74
 1243.57        2960.75           1366          96.00       417.18
 1243.60        2961.00           1369         111.00       482.57
 1243.63        2961.25           1373         141.00       613.35
 1243.66        2961.50           1376         538.00      2344.09
 1243.69        2961.75           1379        2352.00     10254.36
 1243.72        2962.00           1383        6457.00     28167.45
 1243.75        2962.25           1386       10492.00     45791.98
 1243.78        2962.50           1389       14450.00     63096.51
 1243.81        2962.75           1393       20602.00     90025.44
 1243.84        2963.00           1396       25660.00    112195.10
 1243.88        2963.25           1400       31708.00    138738.90
 1243.91        2963.50           1403       36467.00    159652.30
 1243.93        2963.75           1406       41493.00    181764.80
 1243.97        2964.00           1410       47689.00    209061.30
 1244.00        2964.25           1413       52930.00    232182.00
 1244.03        2964.50           1416       57580.00    252719.90
 1244.06        2964.75           1420       64092.00    281520.10
 1244.09        2965.00           1423       68645.00    301683.20
 1244.12        2965.25           1426       73307.00    322351.90
 1244.15        2965.50           1430       79425.00    349510.80
 1244.18        2965.75           1433       84057.00    370099.70
 1244.21        2966.00           1436       88525.00    389981.50
 1244.24        2966.25           1440       94161.00    415091.30
 1244.27        2966.50           1443       97228.00    428770.00
 1244.30        2966.75           1446       98227.00    433227.70
 1244.33        2967.00           1450       99310.00    438061.40
 1244.36        2967.25           1453       99634.00    439507.70
 1244.39        2967.50           1456       99377.00    438360.50
 1244.43        2967.75           1460       99774.00    440132.70
 1244.46        2968.00           1463       98682.00    435258.30
 1244.49        2968.25           1466       97112.00    428252.50
 1244.52        2968.50           1470       92994.00    409889.20
 1244.55        2968.75           1473       89167.00    392840.00
 1244.58        2969.00           1476       84886.00    373787.00
 1244.61        2969.25           1480       78890.00    347134.20
 1244.64        2969.50           1483       74242.00    326499.90
 1244.67        2969.75           1487       67878.00    298285.00
 1244.70        2970.00           1490       63625.00    279453.30
 1244.73        2970.25           1493       58946.00    258757.50
 1244.76        2970.50           1497       52053.00    228311.10
 1244.79        2970.75           1500       47365.00    207632.90
 1244.82        2971.00           1503       42582.00    186559.40
 1244.85        2971.25           1507       36042.00    157783.70
 1244.88        2971.50           1510       31208.00    136543.00
 1244.91        2971.75           1513       26189.00    114515.30
 1244.94        2972.00           1517       19661.00     85903.90
 1244.97        2972.25           1520       14964.00     65344.92
 1245.00        2972.50           1523       10329.00     45079.68
 1245.03        2972.75           1527        4316.00     18822.56
 1245.06        2973.00           1530        1852.00      8073.69
 1245.10        2973.25           1533         767.00      3342.50
 1245.13        2973.50           1537         239.00      1040.57
 1245.16        2973.75           1540         126.00       547.96
 1245.19        2974.00           1544         115.00       500.01
 1245.22        2974.25           1547         100.00       434.62
 1245.25        2974.50           1550          81.00       351.79
 1245.28        2974.75           1554          81.00       351.79
 1245.31        2975.00           1557          77.00       334.35
 1245.34        2975.25           1560          73.00       316.92
 1245.37        2975.50           1564          74.00       321.28
 1245.40        2975.75           1567          74.00       321.28
 1245.43        2976.00           1570          77.00       334.35
 1245.46        2976.25           1574          71.00       308.20
 1245.49        2976.50           1577          71.00       308.20
 1245.52        2976.75           1580          69.00       299.48
 1245.55        2977.00           1584          72.00       312.56
 1245.58        2977.25           1587          71.00       308.20
 1245.61        2977.50           1591          69.00       299.48
 1245.64        2977.75           1594          71.00       308.20
 1245.67        2978.00           1597          66.00       286.40
 1245.70        2978.25           1601          72.00       312.56
 1245.73        2978.50           1604          75.00       325.63
 1245.76        2978.75           1607          69.00       299.48
 1245.79        2979.00           1611          78.00       338.71
 1245.82        2979.25           1614          77.00       334.35
 1245.85        2979.50           1617          73.00       316.92
 1245.88        2979.75           1621          72.00       312.56
 1245.91        2980.00           1624          74.00       321.28
 1245.94        2980.25           1628          75.00       325.63
 1245.97        2980.50           1631          69.00       299.48
 1246.00        2980.75           1634          70.00       303.84
 1246.03        2981.00           1638          69.00       299.48
 1246.06        2981.25           1641          70.00       303.84
 1246.09        2981.50           1644          63.00       273.32
 1246.12        2981.75           1648          77.00       334.35
 1246.15        2982.00           1651          69.00       299.48
 1246.18        2982.25           1654          75.00       325.63
 1246.21        2982.50           1658          64.00       277.68
 1246.24        2982.75           1661          68.00       295.12
 1246.27        2983.00           1665          76.00       329.99
 1246.30        2983.25           1668          63.00       273.32
 1246.33        2983.50           1671          66.00       286.40
 1246.36        2983.75           1675          73.00       316.92
 1246.39        2984.00           1678          65.00       282.04
HS scan finished at 20:46:43
end
