************************************************************
  HS Scan of (1) Internal mercury lamp
************************************************************
Integration time is 0.2294 seconds per sample
dh300517El Arenosillo 37.1 6.73 2.965129pr1000
************************************************************
Dead Time -------------------------  2.7E-08 
Number of Cycles Used -------------  4 
Starting Wavelength (Angstroms) ---  2950 
Final Wavelength (Angstoms) -------  2984 
Wavelength Increment (Angstroms) --  .25 
Filter Wheel #1 Position ---------- (1) Ground quartz diffuser (ND=2.32)
Filter Wheel #2 Position ---------- (1) Neutral Density 0.494



************************************************************
HS scan start time = 03:26:16
Dark Count =  .2 


Time (GMT)  Wavelength (Ang)  Step Number  Raw Counts  Counts/Second

  206.88        2950.00           1223          81.00       352.23
  207.05        2950.25           1226          82.00       356.59
  207.08        2950.50           1229          78.00       339.15
  207.11        2950.75           1233          83.00       360.95
  207.14        2951.00           1236          75.00       326.07
  207.17        2951.25           1239          76.00       330.43
  207.20        2951.50           1243          76.00       330.43
  207.23        2951.75           1246          75.00       326.07
  207.26        2952.00           1249          79.00       343.51
  207.30        2952.25           1253          77.00       334.79
  207.32        2952.50           1256          82.00       356.59
  207.35        2952.75           1259          70.00       304.27
  207.39        2953.00           1263          86.00       374.02
  207.42        2953.25           1266          82.00       356.59
  207.45        2953.50           1269          79.00       343.51
  207.48        2953.75           1273          75.00       326.07
  207.51        2954.00           1276          84.00       365.30
  207.54        2954.25           1279          83.00       360.95
  207.57        2954.50           1283          77.00       334.79
  207.60        2954.75           1286          77.00       334.79
  207.63        2955.00           1289          77.00       334.79
  207.66        2955.25           1293          79.00       343.51
  207.69        2955.50           1296          73.00       317.35
  207.73        2955.75           1299          85.00       369.66
  207.76        2956.00           1303          76.00       330.43
  207.79        2956.25           1306          77.00       334.79
  207.82        2956.50           1309          75.00       326.07
  207.85        2956.75           1313          75.00       326.07
  207.88        2957.00           1316          77.00       334.79
  207.91        2957.25           1319          76.00       330.43
  207.94        2957.50           1323          73.00       317.35
  207.97        2957.75           1326          76.00       330.43
  208.00        2958.00           1329          76.00       330.43
  208.03        2958.25           1333          78.00       339.15
  208.06        2958.50           1336          77.00       334.79
  208.10        2958.75           1339          77.00       334.79
  208.13        2959.00           1343          85.00       369.66
  208.16        2959.25           1346          73.00       317.35
  208.19        2959.50           1349          72.00       312.99
  208.22        2959.75           1353          88.00       382.74
  208.25        2960.00           1356          77.00       334.79
  208.28        2960.25           1359          79.00       343.51
  208.31        2960.50           1363          88.00       382.74
  208.34        2960.75           1366         102.00       443.77
  208.37        2961.00           1369         107.00       465.57
  208.40        2961.25           1373         164.00       714.05
  208.44        2961.50           1376        1001.00      4363.20
  208.47        2961.75           1379        2998.00     13072.62
  208.50        2962.00           1383        6577.00     28691.79
  208.53        2962.25           1386        9802.00     42777.36
  208.56        2962.50           1389       13545.00     59138.82
  208.59        2962.75           1393       18732.00     81836.25
  208.62        2963.00           1396       22529.00     98468.94
  208.65        2963.25           1400       28005.00    122482.90
  208.68        2963.50           1403       32179.00    140808.10
  208.71        2963.75           1406       36040.00    157775.30
  208.75        2964.00           1410       41513.00    181853.20
  208.78        2964.25           1413       45682.00    200215.40
  208.81        2964.50           1416       49491.00    217008.00
  208.84        2964.75           1420       54633.00    239701.50
  208.87        2965.00           1423       58612.00    257281.50
  208.90        2965.25           1426       62333.00    273736.70
  208.93        2965.50           1430       67357.00    295977.50
  208.96        2965.75           1433       71440.00    314072.30
  208.99        2966.00           1436       75262.00    331026.50
  209.02        2966.25           1440       79579.00    350195.30
  209.05        2966.50           1443       81147.00    357162.70
  209.08        2966.75           1446       82087.00    361340.80
  209.12        2967.00           1450       82975.00    365288.60
  209.15        2967.25           1453       82978.00    365302.00
  209.18        2967.50           1456       83236.00    366449.10
  209.21        2967.75           1460       83034.00    365551.00
  209.24        2968.00           1463       81856.00    360314.00
  209.27        2968.25           1466       80130.00    352643.40
  209.30        2968.50           1470       76540.00    336699.10
  209.33        2968.75           1473       73180.00    321788.90
  209.37        2969.00           1476       68988.00    303203.50
  209.39        2969.25           1480       64179.00    281905.70
  209.43        2969.50           1483       60191.00    264262.50
  209.46        2969.75           1487       55273.00    242528.00
  209.49        2970.00           1490       51533.00    226016.80
  209.52        2970.25           1493       47146.00    206667.90
  209.55        2970.50           1497       42086.00    184375.90
  209.58        2970.75           1500       37709.00    165114.60
  209.61        2971.00           1503       33777.00    147828.60
  209.64        2971.25           1507       28380.00    124128.50
  209.67        2971.50           1510       24094.00    105328.80
  209.70        2971.75           1513       19987.00     87332.10
  209.73        2972.00           1517       14918.00     65144.13
  209.76        2972.25           1520       10856.00     47383.17
  209.80        2972.50           1523        6752.00     29455.85
  209.83        2972.75           1527        2693.00     11742.17
  209.86        2973.00           1530        1220.00      5318.11
  209.89        2973.25           1533         491.00      2139.62
  209.92        2973.50           1537         174.00       757.64
  209.95        2973.75           1540         111.00       483.01
  209.98        2974.00           1544         102.00       443.77
  210.01        2974.25           1547         103.00       448.13
  210.04        2974.50           1550          82.00       356.59
  210.07        2974.75           1554          72.00       312.99
  210.10        2975.00           1557          71.00       308.63
  210.14        2975.25           1560          75.00       326.07
  210.17        2975.50           1564          78.00       339.15
  210.20        2975.75           1567          79.00       343.51
  210.23        2976.00           1570          71.00       308.63
  210.26        2976.25           1574          76.00       330.43
  210.29        2976.50           1577          78.00       339.15
  210.32        2976.75           1580          71.00       308.63
  210.35        2977.00           1584          75.00       326.07
  210.38        2977.25           1587          63.00       273.76
  210.41        2977.50           1591          69.00       299.92
  210.44        2977.75           1594          70.00       304.27
  210.47        2978.00           1597          67.00       291.20
  210.50        2978.25           1601          76.00       330.43
  210.53        2978.50           1604          72.00       312.99
  210.57        2978.75           1607          75.00       326.07
  210.60        2979.00           1611          73.00       317.35
  210.63        2979.25           1614          70.00       304.27
  210.66        2979.50           1617          70.00       304.27
  210.69        2979.75           1621          64.00       278.12
  210.72        2980.00           1624          72.00       312.99
  210.75        2980.25           1628          69.00       299.92
  210.78        2980.50           1631          64.00       278.12
  210.81        2980.75           1634          63.00       273.76
  210.84        2981.00           1638          71.00       308.63
  210.87        2981.25           1641          73.00       317.35
  210.90        2981.50           1644          68.00       295.56
  210.94        2981.75           1648          67.00       291.20
  210.97        2982.00           1651          71.00       308.63
  211.00        2982.25           1654          63.00       273.76
  211.03        2982.50           1658          66.00       286.84
  211.06        2982.75           1661          68.00       295.56
  211.09        2983.00           1665          73.00       317.35
  211.12        2983.25           1668          57.00       247.60
  211.15        2983.50           1671          74.00       321.71
  211.18        2983.75           1675          72.00       312.99
  211.21        2984.00           1678          66.00       286.84
HS scan finished at 03:31:32
end
************************************************************
  HS Scan of (1) Internal mercury lamp
************************************************************
Integration time is 0.2294 seconds per sample
dh300517El Arenosillo 37.1 6.73 3.126073pr1000
************************************************************
Dead Time -------------------------  2.7E-08 
Number of Cycles Used -------------  4 
Starting Wavelength (Angstroms) ---  2950 
Final Wavelength (Angstoms) -------  2984 
Wavelength Increment (Angstroms) --  .25 
Filter Wheel #1 Position ---------- (1) Ground quartz diffuser (ND=2.32)
Filter Wheel #2 Position ---------- (1) Neutral Density 0.494



************************************************************
HS scan start time = 20:18:52
Dark Count =  .2 


Time (GMT)  Wavelength (Ang)  Step Number  Raw Counts  Counts/Second

 1219.47        2950.00           1223          83.00       360.95
 1219.65        2950.25           1226          80.00       347.87
 1219.67        2950.50           1229          81.00       352.23
 1219.70        2950.75           1233          82.00       356.59
 1219.73        2951.00           1236          78.00       339.15
 1219.76        2951.25           1239          81.00       352.23
 1219.79        2951.50           1243          83.00       360.95
 1219.82        2951.75           1246          77.00       334.79
 1219.85        2952.00           1249          80.00       347.87
 1219.88        2952.25           1253          81.00       352.23
 1219.92        2952.50           1256          81.00       352.23
 1219.95        2952.75           1259          78.00       339.15
 1219.97        2953.00           1263          77.00       334.79
 1220.01        2953.25           1266          82.00       356.59
 1220.04        2953.50           1269          76.00       330.43
 1220.07        2953.75           1273          79.00       343.51
 1220.10        2954.00           1276          82.00       356.59
 1220.13        2954.25           1279          81.00       352.23
 1220.16        2954.50           1283          77.00       334.79
 1220.19        2954.75           1286          80.00       347.87
 1220.22        2955.00           1289          81.00       352.23
 1220.25        2955.25           1293          81.00       352.23
 1220.28        2955.50           1296          76.00       330.43
 1220.31        2955.75           1299          78.00       339.15
 1220.34        2956.00           1303          82.00       356.59
 1220.37        2956.25           1306          72.00       312.99
 1220.40        2956.50           1309          81.00       352.23
 1220.43        2956.75           1313          74.00       321.71
 1220.46        2957.00           1316          78.00       339.15
 1220.49        2957.25           1319          79.00       343.51
 1220.52        2957.50           1323          77.00       334.79
 1220.55        2957.75           1326          76.00       330.43
 1220.58        2958.00           1329          75.00       326.07
 1220.61        2958.25           1333          77.00       334.79
 1220.64        2958.50           1336          73.00       317.35
 1220.67        2958.75           1339          82.00       356.59
 1220.70        2959.00           1343          78.00       339.15
 1220.73        2959.25           1346          72.00       312.99
 1220.76        2959.50           1349          78.00       339.15
 1220.79        2959.75           1353          85.00       369.66
 1220.82        2960.00           1356          77.00       334.79
 1220.85        2960.25           1359          81.00       352.23
 1220.88        2960.50           1363          90.00       391.46
 1220.91        2960.75           1366         101.00       439.41
 1220.94        2961.00           1369         119.00       517.88
 1220.97        2961.25           1373         131.00       570.19
 1221.00        2961.50           1376         491.00      2139.62
 1221.03        2961.75           1379        2120.00      9242.93
 1221.06        2962.00           1383        5826.00     25413.25
 1221.10        2962.25           1386        9412.00     41073.42
 1221.13        2962.50           1389       13458.00     58758.36
 1221.15        2962.75           1393       19048.00     83219.91
 1221.19        2963.00           1396       23671.00    103474.40
 1221.22        2963.25           1400       29917.00    130874.90
 1221.25        2963.50           1403       34450.00    150786.10
 1221.28        2963.75           1406       39008.00    170828.90
 1221.31        2964.00           1410       45302.00    198541.00
 1221.34        2964.25           1413       49830.00    218503.30
 1221.37        2964.50           1416       54234.00    237939.60
 1221.40        2964.75           1420       60438.00    265354.70
 1221.43        2965.00           1423       64568.00    283627.60
 1221.46        2965.25           1426       68982.00    303176.90
 1221.49        2965.50           1430       74766.00    328825.40
 1221.52        2965.75           1433       79222.00    348609.40
 1221.55        2966.00           1436       83472.00    367498.60
 1221.58        2966.25           1440       88951.00    391878.60
 1221.61        2966.50           1443       91417.00    402862.20
 1221.64        2966.75           1446       93135.00    410518.10
 1221.67        2967.00           1450       94007.00    414405.20
 1221.70        2967.25           1453       94203.00    415279.00
 1221.73        2967.50           1456       94647.00    417258.60
 1221.76        2967.75           1460       94293.00    415680.20
 1221.80        2968.00           1463       93981.00    414289.30
 1221.83        2968.25           1466       92176.00    406244.20
 1221.86        2968.50           1470       88398.00    389416.50
 1221.89        2968.75           1473       85011.00    374343.50
 1221.92        2969.00           1476       80705.00    355198.40
 1221.95        2969.25           1480       74793.00    328945.20
 1221.98        2969.50           1483       70631.00    310485.60
 1222.01        2969.75           1487       65082.00    285903.00
 1222.04        2970.00           1490       60430.00    265319.40
 1222.07        2970.25           1493       56087.00    246123.60
 1222.10        2970.50           1497       50100.00    219694.30
 1222.13        2970.75           1500       45186.00    198029.90
 1222.16        2971.00           1503       40401.00    176958.60
 1222.19        2971.25           1507       34414.00    150627.90
 1222.22        2971.50           1510       29599.00    129478.90
 1222.25        2971.75           1513       25210.00    110222.10
 1222.28        2972.00           1517       19008.00     83044.76
 1222.31        2972.25           1520       14320.00     62528.32
 1222.34        2972.50           1523        9783.00     42694.35
 1222.37        2972.75           1527        4240.00     18491.36
 1222.40        2973.00           1530        1915.00      8348.87
 1222.43        2973.25           1533         834.00      3635.06
 1222.46        2973.50           1537         244.00      1062.80
 1222.50        2973.75           1540         143.00       622.50
 1222.53        2974.00           1544         103.00       448.13
 1222.55        2974.25           1547          92.00       400.18
 1222.58        2974.50           1550          89.00       387.10
 1222.62        2974.75           1554          79.00       343.51
 1222.65        2975.00           1557          78.00       339.15
 1222.68        2975.25           1560          73.00       317.35
 1222.71        2975.50           1564          67.00       291.20
 1222.74        2975.75           1567          71.00       308.63
 1222.77        2976.00           1570          68.00       295.56
 1222.80        2976.25           1574          70.00       304.27
 1222.83        2976.50           1577          73.00       317.35
 1222.86        2976.75           1580          74.00       321.71
 1222.89        2977.00           1584          68.00       295.56
 1222.92        2977.25           1587          74.00       321.71
 1222.95        2977.50           1591          80.00       347.87
 1222.98        2977.75           1594          65.00       282.48
 1223.01        2978.00           1597          71.00       308.63
 1223.04        2978.25           1601          72.00       312.99
 1223.07        2978.50           1604          68.00       295.56
 1223.10        2978.75           1607          69.00       299.92
 1223.13        2979.00           1611          73.00       317.35
 1223.16        2979.25           1614          77.00       334.79
 1223.19        2979.50           1617          66.00       286.84
 1223.22        2979.75           1621          71.00       308.63
 1223.25        2980.00           1624          63.00       273.76
 1223.28        2980.25           1628          66.00       286.84
 1223.31        2980.50           1631          73.00       317.35
 1223.34        2980.75           1634          69.00       299.92
 1223.37        2981.00           1638          70.00       304.27
 1223.40        2981.25           1641          64.00       278.12
 1223.43        2981.50           1644          68.00       295.56
 1223.46        2981.75           1648          72.00       312.99
 1223.49        2982.00           1651          72.00       312.99
 1223.52        2982.25           1654          71.00       308.63
 1223.55        2982.50           1658          72.00       312.99
 1223.58        2982.75           1661          67.00       291.20
 1223.61        2983.00           1665          62.00       269.40
 1223.64        2983.25           1668          71.00       308.63
 1223.67        2983.50           1671          71.00       308.63
 1223.70        2983.75           1675          68.00       295.56
 1223.73        2984.00           1678          69.00       299.92
HS scan finished at 20:24:03
end
