************************************************************
  HS Scan of (1) Internal mercury lamp
************************************************************
Integration time is 0.2294 seconds per sample
dh310818Sodankyla 67.3675-26.633 2.643241pr990
************************************************************
Dead Time -------------------------  2.7E-08 
Number of Cycles Used -------------  4 
Starting Wavelength (Angstroms) ---  2950 
Final Wavelength (Angstoms) -------  2984 
Wavelength Increment (Angstroms) --  .25 
Filter Wheel #1 Position ---------- (1) Ground quartz diffuser (ND=2.32)
Filter Wheel #2 Position ---------- (1) Neutral Density 0.494



************************************************************
HS scan start time = 23:05:57
Dark Count =  .2 


Time (GMT)  Wavelength (Ang)  Step Number  Raw Counts  Counts/Second

 1386.48        2950.00           1223         109.00       474.29
 1386.58        2950.25           1226         114.00       496.08
 1386.61        2950.50           1229         123.00       535.32
 1386.65        2950.75           1233         121.00       526.60
 1386.68        2951.00           1236         114.00       496.08
 1386.70        2951.25           1239         115.00       500.44
 1386.73        2951.50           1243         113.00       491.72
 1386.77        2951.75           1246         117.00       509.16
 1386.80        2952.00           1249         113.00       491.72
 1386.83        2952.25           1253         114.00       496.08
 1386.86        2952.50           1256         109.00       474.29
 1386.89        2952.75           1259         107.00       465.57
 1386.92        2953.00           1263         114.00       496.08
 1386.95        2953.25           1266         116.00       504.80
 1386.98        2953.50           1269         114.00       496.08
 1387.01        2953.75           1273         108.00       469.93
 1387.04        2954.00           1276         114.00       496.08
 1387.07        2954.25           1279         114.00       496.08
 1387.10        2954.50           1283         116.00       504.80
 1387.13        2954.75           1286         110.00       478.65
 1387.16        2955.00           1289         107.00       465.57
 1387.19        2955.25           1293         109.00       474.29
 1387.23        2955.50           1296         105.00       456.85
 1387.26        2955.75           1299         110.00       478.65
 1387.28        2956.00           1303         117.00       509.16
 1387.31        2956.25           1306         107.00       465.57
 1387.34        2956.50           1309         110.00       478.65
 1387.38        2956.75           1313         107.00       465.57
 1387.41        2957.00           1316         113.00       491.72
 1387.44        2957.25           1319         110.00       478.65
 1387.47        2957.50           1323         113.00       491.72
 1387.50        2957.75           1326         111.00       483.01
 1387.53        2958.00           1329         109.00       474.29
 1387.56        2958.25           1333         114.00       496.08
 1387.59        2958.50           1336          99.00       430.69
 1387.62        2958.75           1339         119.00       517.88
 1387.65        2959.00           1343         110.00       478.65
 1387.68        2959.25           1346         102.00       443.77
 1387.71        2959.50           1349         108.00       469.93
 1387.74        2959.75           1353         114.00       496.08
 1387.77        2960.00           1356         108.00       469.93
 1387.81        2960.25           1359         110.00       478.65
 1387.84        2960.50           1363         113.00       491.72
 1387.86        2960.75           1366         125.00       544.04
 1387.89        2961.00           1369         131.00       570.19
 1387.93        2961.25           1373         133.00       578.91
 1387.96        2961.50           1376         221.00       962.54
 1387.99        2961.75           1379        1104.00      4812.31
 1388.02        2962.00           1383        3456.00     15070.65
 1388.05        2962.25           1386        5682.00     24784.67
 1388.08        2962.50           1389        8550.00     37307.83
 1388.11        2962.75           1393       12236.00     53415.26
 1388.14        2963.00           1396       15143.00     66128.43
 1388.17        2963.25           1400       18761.00     81963.24
 1388.20        2963.50           1403       21597.00     94384.96
 1388.23        2963.75           1406       24318.00    106310.80
 1388.26        2964.00           1410       28015.00    122526.70
 1388.29        2964.25           1413       30797.00    134738.60
 1388.32        2964.50           1416       33578.00    146954.20
 1388.36        2964.75           1420       36872.00    161433.60
 1388.39        2965.00           1423       39636.00    173592.00
 1388.42        2965.25           1426       42330.00    185450.20
 1388.45        2965.50           1430       45643.00    200043.60
 1388.48        2965.75           1433       48628.00    213202.00
 1388.51        2966.00           1436       50830.00    222914.80
 1388.54        2966.25           1440       54179.00    237696.80
 1388.57        2966.50           1443       55699.00    244409.70
 1388.60        2966.75           1446       56517.00    248023.30
 1388.63        2967.00           1450       57009.00    250197.10
 1388.67        2967.25           1453       56916.00    249786.20
 1388.70        2967.50           1456       56903.00    249728.80
 1388.72        2967.75           1460       57107.00    250630.20
 1388.75        2968.00           1463       56878.00    249618.30
 1388.78        2968.25           1466       55223.00    242307.20
 1388.82        2968.50           1470       53189.00    233325.80
 1388.85        2968.75           1473       50749.00    222557.40
 1388.88        2969.00           1476       48390.00    212152.50
 1388.91        2969.25           1480       45264.00    198373.60
 1388.94        2969.50           1483       42860.00    187784.10
 1388.97        2969.75           1487       39293.00    172082.80
 1389.00        2970.00           1490       36494.00    159771.40
 1389.03        2970.25           1493       33820.00    148017.60
 1389.06        2970.50           1497       30040.00    131414.90
 1389.09        2970.75           1500       27299.00    119385.10
 1389.13        2971.00           1503       24685.00    107920.00
 1389.16        2971.25           1507       21167.00     92501.01
 1389.19        2971.50           1510       18360.00     80207.52
 1389.21        2971.75           1513       15538.00     67856.55
 1389.25        2972.00           1517       12172.00     53135.46
 1389.28        2972.25           1520        9450.00     41239.44
 1389.31        2972.50           1523        6748.00     29438.39
 1389.34        2972.75           1527        3384.00     14756.53
 1389.37        2973.00           1530        1514.00      6600.13
 1389.40        2973.25           1533         703.00      3063.90
 1389.43        2973.50           1537         237.00      1032.29
 1389.46        2973.75           1540         129.00       561.47
 1389.49        2974.00           1544         114.00       496.08
 1389.52        2974.25           1547         112.00       487.36
 1389.55        2974.50           1550         113.00       491.72
 1389.58        2974.75           1554          92.00       400.18
 1389.61        2975.00           1557          97.00       421.98
 1389.64        2975.25           1560          97.00       421.98
 1389.67        2975.50           1564         100.00       435.05
 1389.70        2975.75           1567          98.00       426.33
 1389.73        2976.00           1570         108.00       469.93
 1389.76        2976.25           1574          99.00       430.69
 1389.79        2976.50           1577         104.00       452.49
 1389.82        2976.75           1580          94.00       408.90
 1389.85        2977.00           1584          99.00       430.69
 1389.89        2977.25           1587          94.00       408.90
 1389.92        2977.50           1591          95.00       413.26
 1389.95        2977.75           1594         101.00       439.41
 1389.97        2978.00           1597          95.00       413.26
 1390.01        2978.25           1601          92.00       400.18
 1390.04        2978.50           1604          80.00       347.87
 1390.07        2978.75           1607         104.00       452.49
 1390.10        2979.00           1611          91.00       395.82
 1390.13        2979.25           1614          95.00       413.26
 1390.15        2979.50           1617          98.00       426.33
 1390.19        2979.75           1621          90.00       391.46
 1390.22        2980.00           1624         100.00       435.05
 1390.25        2980.25           1628          95.00       413.26
 1390.28        2980.50           1631          95.00       413.26
 1390.31        2980.75           1634          93.00       404.54
 1390.34        2981.00           1638          88.00       382.74
 1390.37        2981.25           1641          89.00       387.10
 1390.40        2981.50           1644          94.00       408.90
 1390.43        2981.75           1648          96.00       417.62
 1390.46        2982.00           1651          97.00       421.98
 1390.49        2982.25           1654          92.00       400.18
 1390.52        2982.50           1658          96.00       417.62
 1390.55        2982.75           1661          92.00       400.18
 1390.58        2983.00           1665          95.00       413.26
 1390.62        2983.25           1668          98.00       426.33
 1390.65        2983.50           1671          86.00       374.02
 1390.67        2983.75           1675          98.00       426.33
 1390.70        2984.00           1678          85.00       369.66
HS scan finished at 23:11:01
end
