************************************************************
  HS Scan of (1) Internal mercury lamp
************************************************************
Integration time is 0.2294 seconds per sample
dh070918Sodankyla 67.3675-26.633 2.643241pr990
************************************************************
Dead Time -------------------------  2.7E-08 
Number of Cycles Used -------------  4 
Starting Wavelength (Angstroms) ---  2950 
Final Wavelength (Angstoms) -------  2984 
Wavelength Increment (Angstroms) --  .25 
Filter Wheel #1 Position ---------- (1) Ground quartz diffuser (ND=2.32)
Filter Wheel #2 Position ---------- (1) Neutral Density 0.494



************************************************************
HS scan start time = 23:04:09
Dark Count =  0 


Time (GMT)  Wavelength (Ang)  Step Number  Raw Counts  Counts/Second

 1384.68        2950.00           1223         118.00       514.39
 1384.78        2950.25           1226         114.00       496.96
 1384.82        2950.50           1229         113.00       492.60
 1384.85        2950.75           1233         104.00       453.36
 1384.88        2951.00           1236         113.00       492.60
 1384.91        2951.25           1239         121.00       527.47
 1384.94        2951.50           1243         118.00       514.39
 1384.97        2951.75           1246         115.00       501.31
 1385.00        2952.00           1249         113.00       492.60
 1385.03        2952.25           1253         117.00       510.03
 1385.06        2952.50           1256         114.00       496.96
 1385.10        2952.75           1259         109.00       475.16
 1385.13        2953.00           1263         116.00       505.67
 1385.16        2953.25           1266         109.00       475.16
 1385.18        2953.50           1269         113.00       492.60
 1385.22        2953.75           1273         121.00       527.47
 1385.25        2954.00           1276         108.00       470.80
 1385.28        2954.25           1279         112.00       488.24
 1385.31        2954.50           1283         110.00       479.52
 1385.34        2954.75           1286         120.00       523.11
 1385.37        2955.00           1289         113.00       492.60
 1385.40        2955.25           1293         109.00       475.16
 1385.43        2955.50           1296         110.00       479.52
 1385.46        2955.75           1299         117.00       510.03
 1385.49        2956.00           1303         105.00       457.72
 1385.53        2956.25           1306         113.00       492.60
 1385.56        2956.50           1309         101.00       440.28
 1385.58        2956.75           1313         109.00       475.16
 1385.61        2957.00           1316         107.00       466.44
 1385.65        2957.25           1319         115.00       501.31
 1385.68        2957.50           1323         108.00       470.80
 1385.71        2957.75           1326         108.00       470.80
 1385.74        2958.00           1329         101.00       440.28
 1385.77        2958.25           1333         107.00       466.44
 1385.80        2958.50           1336          97.00       422.85
 1385.83        2958.75           1339          99.00       431.57
 1385.86        2959.00           1343         104.00       453.36
 1385.89        2959.25           1346         106.00       462.08
 1385.92        2959.50           1349          97.00       422.85
 1385.96        2959.75           1353         115.00       501.31
 1385.99        2960.00           1356         101.00       440.28
 1386.02        2960.25           1359         114.00       496.96
 1386.04        2960.50           1363         116.00       505.67
 1386.07        2960.75           1366         109.00       475.16
 1386.11        2961.00           1369         125.00       544.91
 1386.14        2961.25           1373         123.00       536.19
 1386.17        2961.50           1376         168.00       732.36
 1386.20        2961.75           1379         655.00      2855.49
 1386.23        2962.00           1383        2722.00     11869.54
 1386.26        2962.25           1386        5014.00     21869.93
 1386.28        2962.50           1389        7465.00     32570.04
 1386.31        2962.75           1393       11217.00     48961.81
 1386.34        2963.00           1396       14005.00     61151.46
 1386.38        2963.25           1400       17847.00     77962.55
 1386.41        2963.50           1403       20687.00     90399.10
 1386.44        2963.75           1406       23346.00    102050.60
 1386.47        2964.00           1410       27273.00    119271.90
 1386.50        2964.25           1413       29829.00    130489.50
 1386.53        2964.50           1416       32677.00    142996.60
 1386.56        2964.75           1420       36166.00    158330.10
 1386.59        2965.00           1423       38589.00    168986.40
 1386.63        2965.25           1426       41381.00    181273.00
 1386.66        2965.50           1430       44807.00    196360.90
 1386.69        2965.75           1433       47451.00    208013.30
 1386.72        2966.00           1436       49668.00    217789.60
 1386.75        2966.25           1440       53137.00    233097.10
 1386.78        2966.50           1443       55316.00    242718.80
 1386.81        2966.75           1446       55915.00    245364.70
 1386.84        2967.00           1450       56850.00    249495.50
 1386.87        2967.25           1453       56918.00    249795.90
 1386.90        2967.50           1456       56924.00    249822.40
 1386.93        2967.75           1460       57199.00    251037.60
 1386.96        2968.00           1463       57021.00    250251.00
 1386.99        2968.25           1466       56068.00    246040.60
 1387.02        2968.50           1470       53950.00    236686.50
 1387.05        2968.75           1473       51684.00    226684.00
 1387.08        2969.00           1476       49189.00    215676.90
 1387.11        2969.25           1480       45822.00    200833.30
 1387.14        2969.50           1483       43264.00    189564.10
 1387.18        2969.75           1487       39795.00    174292.60
 1387.21        2970.00           1490       37327.00    163435.40
 1387.24        2970.25           1493       34639.00    151617.70
 1387.27        2970.50           1497       31240.00    136684.90
 1387.30        2970.75           1500       28322.00    123874.80
 1387.33        2971.00           1503       25597.00    111920.10
 1387.36        2971.25           1507       22060.00     96414.57
 1387.39        2971.50           1510       19080.00     83360.91
 1387.42        2971.75           1513       16536.00     72224.40
 1387.45        2972.00           1517       13127.00     57311.81
 1387.49        2972.25           1520       10226.00     44630.91
 1387.52        2972.50           1523        7643.00     33347.36
 1387.54        2972.75           1527        4252.00     18544.59
 1387.57        2973.00           1530        2009.00      8759.70
 1387.61        2973.25           1533         894.00      3897.53
 1387.64        2973.50           1537         326.00      1421.15
 1387.67        2973.75           1540         169.00       736.72
 1387.70        2974.00           1544         124.00       540.55
 1387.73        2974.25           1547         111.00       483.88
 1387.76        2974.50           1550         100.00       435.92
 1387.79        2974.75           1554         102.00       444.64
 1387.82        2975.00           1557         100.00       435.92
 1387.85        2975.25           1560         104.00       453.36
 1387.89        2975.50           1564         106.00       462.08
 1387.91        2975.75           1567         102.00       444.64
 1387.94        2976.00           1570          99.00       431.57
 1387.97        2976.25           1574         103.00       449.00
 1388.00        2976.50           1577         105.00       457.72
 1388.04        2976.75           1580         104.00       453.36
 1388.07        2977.00           1584         102.00       444.64
 1388.10        2977.25           1587          89.00       387.97
 1388.13        2977.50           1591          99.00       431.57
 1388.16        2977.75           1594          94.00       409.77
 1388.19        2978.00           1597          92.00       401.05
 1388.22        2978.25           1601         107.00       466.44
 1388.25        2978.50           1604          96.00       418.49
 1388.28        2978.75           1607         101.00       440.28
 1388.31        2979.00           1611          80.00       348.74
 1388.34        2979.25           1614          99.00       431.57
 1388.37        2979.50           1617          99.00       431.57
 1388.40        2979.75           1621          99.00       431.57
 1388.43        2980.00           1624         100.00       435.92
 1388.47        2980.25           1628         101.00       440.28
 1388.49        2980.50           1631          99.00       431.57
 1388.52        2980.75           1634          97.00       422.85
 1388.55        2981.00           1638          97.00       422.85
 1388.59        2981.25           1641          91.00       396.69
 1388.62        2981.50           1644          91.00       396.69
 1388.65        2981.75           1648          94.00       409.77
 1388.68        2982.00           1651          97.00       422.85
 1388.70        2982.25           1654          91.00       396.69
 1388.74        2982.50           1658          96.00       418.49
 1388.77        2982.75           1661          99.00       431.57
 1388.80        2983.00           1665          90.00       392.33
 1388.83        2983.25           1668         100.00       435.92
 1388.86        2983.50           1671          96.00       418.49
 1388.89        2983.75           1675          98.00       427.21
 1388.92        2984.00           1678          92.00       401.05
HS scan finished at 23:09:14
end
