************************************************************
  HS Scan of (1) Internal mercury lamp
************************************************************
Integration time is 0.2294 seconds per sample
dh091117Sodankyla 67.3675-26.633 2.643241pr990
************************************************************
Dead Time -------------------------  2.7E-08 
Number of Cycles Used -------------  4 
Starting Wavelength (Angstroms) ---  2950 
Final Wavelength (Angstoms) -------  2984 
Wavelength Increment (Angstroms) --  .25 
Filter Wheel #1 Position ---------- (1) Ground quartz diffuser (ND=2.32)
Filter Wheel #2 Position ---------- (1) Neutral Density 0.494



************************************************************
HS scan start time = 22:46:39
Dark Count =  .2 


Time (GMT)  Wavelength (Ang)  Step Number  Raw Counts  Counts/Second

 1367.18        2950.00           1223          82.00       356.59
 1367.29        2950.25           1226          91.00       395.82
 1367.32        2950.50           1229          77.00       334.79
 1367.34        2950.75           1233          83.00       360.95
 1367.38        2951.00           1236          83.00       360.95
 1367.41        2951.25           1239          92.00       400.18
 1367.44        2951.50           1243          83.00       360.95
 1367.47        2951.75           1246          75.00       326.07
 1367.50        2952.00           1249          89.00       387.10
 1367.53        2952.25           1253          83.00       360.95
 1367.56        2952.50           1256          79.00       343.51
 1367.59        2952.75           1259          79.00       343.51
 1367.62        2953.00           1263          83.00       360.95
 1367.65        2953.25           1266          77.00       334.79
 1367.68        2953.50           1269          75.00       326.07
 1367.71        2953.75           1273          81.00       352.23
 1367.74        2954.00           1276          88.00       382.74
 1367.77        2954.25           1279          75.00       326.07
 1367.80        2954.50           1283          80.00       347.87
 1367.83        2954.75           1286          72.00       312.99
 1367.86        2955.00           1289          85.00       369.66
 1367.89        2955.25           1293          93.00       404.54
 1367.92        2955.50           1296          79.00       343.51
 1367.95        2955.75           1299          87.00       378.38
 1367.98        2956.00           1303          80.00       347.87
 1368.01        2956.25           1306          84.00       365.30
 1368.04        2956.50           1309          83.00       360.95
 1368.07        2956.75           1313          78.00       339.15
 1368.10        2957.00           1316          84.00       365.30
 1368.13        2957.25           1319          92.00       400.18
 1368.16        2957.50           1323          78.00       339.15
 1368.19        2957.75           1326          83.00       360.95
 1368.22        2958.00           1329          85.00       369.66
 1368.25        2958.25           1333          80.00       347.87
 1368.28        2958.50           1336          76.00       330.43
 1368.31        2958.75           1339          73.00       317.35
 1368.34        2959.00           1343          75.00       326.07
 1368.37        2959.25           1346          73.00       317.35
 1368.40        2959.50           1349          83.00       360.95
 1368.43        2959.75           1353          84.00       365.30
 1368.46        2960.00           1356          84.00       365.30
 1368.50        2960.25           1359          83.00       360.95
 1368.52        2960.50           1363          91.00       395.82
 1368.55        2960.75           1366          85.00       369.66
 1368.59        2961.00           1369         102.00       443.77
 1368.61        2961.25           1373         110.00       478.65
 1368.64        2961.50           1376         231.00      1006.13
 1368.68        2961.75           1379        1276.00      5562.30
 1368.71        2962.00           1383        3885.00     16942.36
 1368.74        2962.25           1386        6369.00     27783.69
 1368.77        2962.50           1389        9515.00     41523.42
 1368.80        2962.75           1393       14109.00     61605.44
 1368.83        2963.00           1396       17453.00     76236.98
 1368.86        2963.25           1400       22463.00     98179.71
 1368.89        2963.50           1403       26084.00    114055.10
 1368.92        2963.75           1406       29858.00    130615.90
 1368.95        2964.00           1410       34699.00    151880.50
 1368.98        2964.25           1413       38607.00    169064.70
 1369.01        2964.50           1416       42087.00    184380.30
 1369.04        2964.75           1420       46807.00    205173.60
 1369.07        2965.00           1423       50553.00    221692.70
 1369.10        2965.25           1426       53861.00    236292.60
 1369.13        2965.50           1430       58297.00    255889.20
 1369.16        2965.75           1433       62247.00    273356.20
 1369.19        2966.00           1436       65581.00    288112.30
 1369.22        2966.25           1440       70106.00    308158.40
 1369.25        2966.50           1443       72534.00    318923.60
 1369.28        2966.75           1446       73768.00    324397.30
 1369.31        2967.00           1450       74973.00    329744.00
 1369.34        2967.25           1453       75248.00    330964.40
 1369.37        2967.50           1456       75311.00    331244.00
 1369.40        2967.75           1460       75096.00    330289.80
 1369.43        2968.00           1463       75064.00    330147.80
 1369.46        2968.25           1466       73777.00    324437.30
 1369.49        2968.50           1470       71380.00    313806.30
 1369.52        2968.75           1473       68956.00    303061.70
 1369.55        2969.00           1476       65597.00    288183.10
 1369.58        2969.25           1480       61185.00    268658.40
 1369.61        2969.50           1483       57656.00    253056.20
 1369.65        2969.75           1487       52923.00    232151.60
 1369.68        2970.00           1490       49383.00    216531.60
 1369.70        2970.25           1493       45511.00    199461.90
 1369.74        2970.50           1497       40861.00    178983.20
 1369.77        2970.75           1500       37074.00    162321.90
 1369.80        2971.00           1503       33412.00    146224.80
 1369.82        2971.25           1507       28526.00    124769.20
 1369.86        2971.50           1510       24981.00    109217.90
 1369.89        2971.75           1513       21177.00     92544.82
 1369.92        2972.00           1517       16445.00     71825.30
 1369.95        2972.25           1520       12645.00     55203.40
 1369.98        2972.50           1523        8889.00     38788.64
 1370.01        2972.75           1527        4305.00     18774.99
 1370.04        2973.00           1530        2145.00      9351.97
 1370.07        2973.25           1533         918.00      4001.30
 1370.10        2973.50           1537         274.00      1193.59
 1370.13        2973.75           1540         160.00       696.61
 1370.16        2974.00           1544         120.00       522.24
 1370.19        2974.25           1547          95.00       413.26
 1370.22        2974.50           1550          90.00       391.46
 1370.25        2974.75           1554          79.00       343.51
 1370.28        2975.00           1557          77.00       334.79
 1370.31        2975.25           1560          75.00       326.07
 1370.34        2975.50           1564          80.00       347.87
 1370.37        2975.75           1567          77.00       334.79
 1370.40        2976.00           1570          75.00       326.07
 1370.43        2976.25           1574          69.00       299.92
 1370.46        2976.50           1577          71.00       308.63
 1370.49        2976.75           1580          77.00       334.79
 1370.52        2977.00           1584          74.00       321.71
 1370.55        2977.25           1587          69.00       299.92
 1370.58        2977.50           1591          63.00       273.76
 1370.61        2977.75           1594          69.00       299.92
 1370.64        2978.00           1597          69.00       299.92
 1370.67        2978.25           1601          68.00       295.56
 1370.70        2978.50           1604          69.00       299.92
 1370.73        2978.75           1607          67.00       291.20
 1370.76        2979.00           1611          84.00       365.30
 1370.79        2979.25           1614          83.00       360.95
 1370.82        2979.50           1617          72.00       312.99
 1370.85        2979.75           1621          69.00       299.92
 1370.88        2980.00           1624          73.00       317.35
 1370.91        2980.25           1628          70.00       304.27
 1370.94        2980.50           1631          73.00       317.35
 1370.97        2980.75           1634          75.00       326.07
 1371.00        2981.00           1638          81.00       352.23
 1371.03        2981.25           1641          66.00       286.84
 1371.06        2981.50           1644          69.00       299.92
 1371.09        2981.75           1648          68.00       295.56
 1371.12        2982.00           1651          69.00       299.92
 1371.15        2982.25           1654          74.00       321.71
 1371.18        2982.50           1658          77.00       334.79
 1371.21        2982.75           1661          72.00       312.99
 1371.24        2983.00           1665          66.00       286.84
 1371.27        2983.25           1668          69.00       299.92
 1371.30        2983.50           1671          66.00       286.84
 1371.33        2983.75           1675          67.00       291.20
 1371.36        2984.00           1678          67.00       291.20
HS scan finished at 22:51:41
end
