************************************************************
  HS Scan of (1) Internal mercury lamp
************************************************************
Integration time is 0.2294 seconds per sample
dh190519ENA-ARM-GRW 39.092 28.026 2.78pr1017.49
************************************************************
Dead Time -------------------------  3E-08 
Number of Cycles Used -------------  4 
Starting Wavelength (Angstroms) ---  2950 
Final Wavelength (Angstoms) -------  2984 
Wavelength Increment (Angstroms) --  .25 
Filter Wheel #1 Position ---------- (1) Ground quartz diffuser (ND=2.32)
Filter Wheel #2 Position ---------- (1) Neutral Density 0.494



************************************************************
HS scan start time = 02:33:00
Dark Count =  2.5 


Time (GMT)  Wavelength (Ang)  Step Number  Raw Counts  Counts/Second

  153.90        2950.00           2161          86.00       364.00
  154.09        2950.25           2164          86.00       364.00
  154.13        2950.50           2168          91.00       385.79
  154.16        2950.75           2171          88.00       372.72
  154.19        2951.00           2175          80.00       337.84
  154.23        2951.25           2178          90.00       381.43
  154.26        2951.50           2182          80.00       337.84
  154.30        2951.75           2185          90.00       381.43
  154.33        2952.00           2189          86.00       364.00
  154.36        2952.25           2192          91.00       385.79
  154.40        2952.50           2196         110.00       468.62
  154.43        2952.75           2199          93.00       394.51
  154.47        2953.00           2203          94.00       398.87
  154.50        2953.25           2206          99.00       420.67
  154.53        2953.50           2210          88.00       372.72
  154.57        2953.75           2213         114.00       486.06
  154.60        2954.00           2217          94.00       398.87
  154.64        2954.25           2221          91.00       385.79
  154.67        2954.50           2224          90.00       381.43
  154.70        2954.75           2228          92.00       390.15
  154.74        2955.00           2231          97.00       411.95
  154.77        2955.25           2235          98.00       416.31
  154.80        2955.50           2238         101.00       429.39
  154.84        2955.75           2242         109.00       464.26
  154.87        2956.00           2245         124.00       529.65
  154.91        2956.25           2249         102.00       433.75
  154.94        2956.50           2252         121.00       516.57
  154.97        2956.75           2256         103.00       438.11
  155.01        2957.00           2259         111.00       472.98
  155.04        2957.25           2263         141.00       603.76
  155.08        2957.50           2266         149.00       638.63
  155.11        2957.75           2270         124.00       529.65
  155.14        2958.00           2273         118.00       503.50
  155.18        2958.25           2277         124.00       529.65
  155.21        2958.50           2280         110.00       468.62
  155.25        2958.75           2284         132.00       564.53
  155.28        2959.00           2287         135.00       577.60
  155.31        2959.25           2291         137.00       586.32
  155.35        2959.50           2294         136.00       581.96
  155.38        2959.75           2298         138.00       590.68
  155.42        2960.00           2301         143.00       612.48
  155.45        2960.25           2305         177.00       760.70
  155.48        2960.50           2308         153.00       656.07
  155.52        2960.75           2312         148.00       634.28
  155.55        2961.00           2315         159.00       682.23
  155.59        2961.25           2319         327.00      1414.62
  155.62        2961.50           2323        1387.00      6036.40
  155.65        2961.75           2326        2636.00     11483.90
  155.69        2962.00           2330        4495.00     19595.21
  155.72        2962.25           2333        5916.00     25798.08
  155.75        2962.50           2337        7634.00     33300.47
  155.79        2962.75           2340        8739.00     38127.72
  155.82        2963.00           2344       10105.00     44097.10
  155.86        2963.25           2347       11212.00     48936.22
  155.89        2963.50           2351       12601.00     55010.07
  155.92        2963.75           2354       13641.00     59559.25
  155.96        2964.00           2358       15171.00     66254.05
  155.99        2964.25           2361       16491.00     72032.13
  156.02        2964.50           2365       18088.00     79025.40
  156.06        2964.75           2368       19394.00     84746.57
  156.09        2965.00           2372       21238.00     92827.90
  156.13        2965.25           2375       22672.00     99115.11
  156.16        2965.50           2379       24400.00    106694.50
  156.19        2965.75           2382       25766.00    112688.50
  156.23        2966.00           2386       27017.00    118179.80
  156.26        2966.25           2389       27490.00    120256.50
  156.30        2966.50           2393       27672.00    121055.70
  156.33        2966.75           2396       27733.00    121323.50
  156.36        2967.00           2400       27820.00    121705.60
  156.40        2967.25           2404       27652.00    120967.90
  156.43        2967.50           2407       27516.00    120370.70
  156.47        2967.75           2411       26955.00    117907.60
  156.50        2968.00           2414       26039.00    113886.70
  156.53        2968.25           2418       24767.00    108304.70
  156.57        2968.50           2421       23750.00    103843.10
  156.60        2968.75           2425       22307.00     97514.59
  156.64        2969.00           2428       21381.00     93454.77
  156.67        2969.25           2432       19905.00     86985.63
  156.70        2969.50           2435       18749.00     81920.78
  156.74        2969.75           2439       17241.00     75316.01
  156.77        2970.00           2442       15978.00     69786.32
  156.80        2970.25           2446       14147.00     61773.05
  156.84        2970.50           2449       12847.00     56086.01
  156.87        2970.75           2453       11037.00     48171.14
  156.91        2971.00           2456        9714.00     42388.22
  156.94        2971.25           2460        7979.00     34807.47
  156.97        2971.50           2463        6821.00     29749.73
  157.01        2971.75           2467        4903.00     21375.95
  157.04        2972.00           2471        3118.00     13586.62
  157.08        2972.25           2474        1747.00      7606.36
  157.11        2972.50           2478         478.00      2072.93
  157.14        2972.75           2481         195.00       839.17
  157.18        2973.00           2485         166.00       712.74
  157.21        2973.25           2488         158.00       677.87
  157.25        2973.50           2492         137.00       586.32
  157.28        2973.75           2495         147.00       629.92
  157.31        2974.00           2499         154.00       660.43
  157.35        2974.25           2502         143.00       612.48
  157.38        2974.50           2506         147.00       629.92
  157.42        2974.75           2509         151.00       647.35
  157.45        2975.00           2513         123.00       525.29
  157.48        2975.25           2516         139.00       595.04
  157.52        2975.50           2520         114.00       486.06
  157.55        2975.75           2523         132.00       564.53
  157.58        2976.00           2527         142.00       608.12
  157.62        2976.25           2531         143.00       612.48
  157.65        2976.50           2534         149.00       638.63
  157.69        2976.75           2538         118.00       503.50
  157.72        2977.00           2541         137.00       586.32
  157.75        2977.25           2545         114.00       486.06
  157.79        2977.50           2548         142.00       608.12
  157.82        2977.75           2552         132.00       564.53
  157.86        2978.00           2555         164.00       704.03
  157.89        2978.25           2559         147.00       629.92
  157.92        2978.50           2562         124.00       529.65
  157.96        2978.75           2566         144.00       616.84
  157.99        2979.00           2569         126.00       538.37
  158.03        2979.25           2573         103.00       438.11
  158.06        2979.50           2576          97.00       411.95
  158.09        2979.75           2580         105.00       446.82
  158.13        2980.00           2584         121.00       516.57
  158.16        2980.25           2587         126.00       538.37
  158.20        2980.50           2591         126.00       538.37
  158.23        2980.75           2594          97.00       411.95
  158.26        2981.00           2598         104.00       442.46
  158.30        2981.25           2601          95.00       403.23
  158.33        2981.50           2605         101.00       429.39
  158.37        2981.75           2608          99.00       420.67
  158.40        2982.00           2612          99.00       420.67
  158.43        2982.25           2615         103.00       438.11
  158.47        2982.50           2619          95.00       403.23
  158.50        2982.75           2622         111.00       472.98
  158.53        2983.00           2626         102.00       433.75
  158.57        2983.25           2629         100.00       425.03
  158.60        2983.50           2633          96.00       407.59
  158.64        2983.75           2637          91.00       385.79
  158.67        2984.00           2640          94.00       398.87
HS scan finished at 02:38:54
end
