************************************************************
  HS Scan of (1) Internal mercury lamp
************************************************************
Integration time is 0.2294 seconds per sample
dh260519ENA-ARM-GRW 39.092 28.026 2.84pr1017.49
************************************************************
Dead Time -------------------------  3E-08 
Number of Cycles Used -------------  4 
Starting Wavelength (Angstroms) ---  2950 
Final Wavelength (Angstoms) -------  2984 
Wavelength Increment (Angstroms) --  .25 
Filter Wheel #1 Position ---------- (1) Ground quartz diffuser (ND=2.32)
Filter Wheel #2 Position ---------- (1) Neutral Density 0.494



************************************************************
HS scan start time = 02:30:12
Dark Count =  4.3 


Time (GMT)  Wavelength (Ang)  Step Number  Raw Counts  Counts/Second

  151.10        2950.00           2161          85.00       351.79
  151.30        2950.25           2164          84.00       347.43
  151.33        2950.50           2168          87.00       360.51
  151.36        2950.75           2171          87.00       360.51
  151.40        2951.00           2175          85.00       351.79
  151.43        2951.25           2178          89.00       369.23
  151.46        2951.50           2182          96.00       399.74
  151.50        2951.75           2185          83.00       343.07
  151.53        2952.00           2189          93.00       386.67
  151.57        2952.25           2192          92.00       382.31
  151.60        2952.50           2196          82.00       338.71
  151.63        2952.75           2199          90.00       373.59
  151.67        2953.00           2203          90.00       373.59
  151.70        2953.25           2206          84.00       347.43
  151.73        2953.50           2210          91.00       377.95
  151.77        2953.75           2213          93.00       386.67
  151.80        2954.00           2217          90.00       373.59
  151.84        2954.25           2221          91.00       377.95
  151.87        2954.50           2224          97.00       404.10
  151.91        2954.75           2228         100.00       417.18
  151.94        2955.00           2231          94.00       391.02
  151.97        2955.25           2235         103.00       430.26
  152.01        2955.50           2238          94.00       391.02
  152.04        2955.75           2242         101.00       421.54
  152.07        2956.00           2245         157.00       665.66
  152.11        2956.25           2249         100.00       417.18
  152.14        2956.50           2252          97.00       404.10
  152.18        2956.75           2256         111.00       465.13
  152.21        2957.00           2259         120.00       504.37
  152.24        2957.25           2263         148.00       626.43
  152.28        2957.50           2266         112.00       469.49
  152.31        2957.75           2270         132.00       556.68
  152.35        2958.00           2273         165.00       700.54
  152.38        2958.25           2277         111.00       465.13
  152.41        2958.50           2280         132.00       556.68
  152.45        2958.75           2284         121.00       508.73
  152.48        2959.00           2287         143.00       604.63
  152.51        2959.25           2291         129.00       543.60
  152.55        2959.50           2294         133.00       561.04
  152.58        2959.75           2298         145.00       613.35
  152.62        2960.00           2301         126.00       530.52
  152.65        2960.25           2305         137.00       578.48
  152.69        2960.50           2308         152.00       643.87
  152.72        2960.75           2312         138.00       582.83
  152.75        2961.00           2315         174.00       739.77
  152.79        2961.25           2319         379.00      1633.47
  152.82        2961.50           2323        1195.00      5191.31
  152.85        2961.75           2326        2210.00      9617.86
  152.89        2962.00           2330        3676.00     16013.36
  152.92        2962.25           2333        4910.00     21398.65
  152.96        2962.50           2337        6644.00     28968.93
  152.98        2962.75           2340        7857.00     34266.68
  153.01        2963.00           2344        9680.00     42231.77
  153.04        2963.25           2347       11055.00     48241.96
  153.08        2963.50           2351       12765.00     55719.48
  153.11        2963.75           2354       13872.00     60561.99
  153.14        2964.00           2358       15758.00     68815.43
  153.18        2964.25           2361       17040.00     74427.99
  153.21        2964.50           2365       18782.00     82057.47
  153.25        2964.75           2368       20221.00     88362.52
  153.28        2965.00           2372       22250.00     97256.76
  153.31        2965.25           2375       23515.00    102804.40
  153.35        2965.50           2379       25275.00    110525.90
  153.38        2965.75           2382       26324.00    115129.70
  153.41        2966.00           2386       27014.00    118158.70
  153.45        2966.25           2389       27353.00    119647.10
  153.48        2966.50           2393       27372.00    119730.50
  153.52        2966.75           2396       27384.00    119783.20
  153.55        2967.00           2400       27387.00    119796.40
  153.58        2967.25           2404       27206.00    119001.70
  153.62        2967.50           2407       27222.00    119071.90
  153.65        2967.75           2411       26895.00    117636.30
  153.69        2968.00           2414       26202.00    114594.20
  153.72        2968.25           2418       24670.00    107871.20
  153.75        2968.50           2421       23656.00    103422.80
  153.79        2968.75           2425       21873.00     95603.80
  153.82        2969.00           2428       20501.00     89589.63
  153.86        2969.25           2432       18995.00     82990.58
  153.89        2969.50           2435       17706.00     77344.47
  153.92        2969.75           2439       15843.00     69187.50
  153.96        2970.00           2442       14270.00     62303.36
  153.99        2970.25           2446       12354.00     53921.95
  154.03        2970.50           2449       11043.00     48189.50
  154.06        2970.75           2453        9365.00     40855.19
  154.09        2971.00           2456        8106.00     35354.39
  154.13        2971.25           2460        6370.00     27772.48
  154.16        2971.50           2463        5218.00     22743.06
  154.19        2971.75           2467        3628.00     15803.92
  154.23        2972.00           2471        2335.00     10163.08
  154.26        2972.25           2474        1326.00      5762.55
  154.30        2972.50           2478         440.00      1899.41
  154.33        2972.75           2481         237.00      1014.42
  154.36        2973.00           2485         155.00       656.94
  154.40        2973.25           2488         145.00       613.35
  154.43        2973.50           2492         145.00       613.35
  154.47        2973.75           2495         153.00       648.23
  154.50        2974.00           2499         142.00       600.27
  154.53        2974.25           2502         149.00       630.79
  154.57        2974.50           2506         124.00       521.80
  154.60        2974.75           2509         166.00       704.90
  154.64        2975.00           2513         158.00       670.02
  154.67        2975.25           2516         131.00       552.32
  154.70        2975.50           2520         146.00       617.71
  154.74        2975.75           2523         140.00       591.55
  154.77        2976.00           2527         134.00       565.40
  154.81        2976.25           2531         115.00       482.57
  154.84        2976.50           2534         106.00       443.34
  154.87        2976.75           2538         109.00       456.41
  154.91        2977.00           2541         132.00       556.68
  154.94        2977.25           2545         111.00       465.13
  154.97        2977.50           2548         107.00       447.70
  155.01        2977.75           2552         123.00       517.44
  155.04        2978.00           2555         123.00       517.44
  155.08        2978.25           2559         117.00       491.29
  155.11        2978.50           2562         111.00       465.13
  155.14        2978.75           2566         116.00       486.93
  155.18        2979.00           2569         107.00       447.70
  155.21        2979.25           2573         128.00       539.24
  155.25        2979.50           2576          99.00       412.82
  155.28        2979.75           2580         127.00       534.88
  155.31        2980.00           2584          93.00       386.67
  155.35        2980.25           2587         114.00       478.21
  155.38        2980.50           2591         103.00       430.26
  155.41        2980.75           2594         104.00       434.62
  155.45        2981.00           2598         110.00       460.77
  155.48        2981.25           2601          95.00       395.38
  155.52        2981.50           2605          99.00       412.82
  155.55        2981.75           2608          99.00       412.82
  155.59        2982.00           2612         102.00       425.90
  155.62        2982.25           2615         120.00       504.37
  155.65        2982.50           2619          95.00       395.38
  155.69        2982.75           2622          93.00       386.67
  155.72        2983.00           2626          94.00       391.02
  155.76        2983.25           2629          93.00       386.67
  155.79        2983.50           2633          97.00       404.10
  155.82        2983.75           2637          93.00       386.67
  155.86        2984.00           2640          89.00       369.23
HS scan finished at 02:36:05
end
