************************************************************
  HS Scan of (1) Internal mercury lamp
************************************************************
Integration time is 0.2294 seconds per sample
dh020619ENA-ARM-GRW 39.092 28.026 2.98pr1017.49
************************************************************
Dead Time -------------------------  3E-08 
Number of Cycles Used -------------  4 
Starting Wavelength (Angstroms) ---  2950 
Final Wavelength (Angstoms) -------  2984 
Wavelength Increment (Angstroms) --  .25 
Filter Wheel #1 Position ---------- (1) Ground quartz diffuser (ND=2.32)
Filter Wheel #2 Position ---------- (1) Neutral Density 0.494



************************************************************
HS scan start time = 02:43:01
Dark Count =  5.1 


Time (GMT)  Wavelength (Ang)  Step Number  Raw Counts  Counts/Second

  163.92        2950.00           2161          90.00       370.10
  164.12        2950.25           2164          85.00       348.30
  164.15        2950.50           2168          80.00       326.51
  164.19        2950.75           2171         106.00       439.85
  164.22        2951.00           2175          90.00       370.10
  164.26        2951.25           2178          85.00       348.30
  164.29        2951.50           2182          99.00       409.33
  164.32        2951.75           2185          84.00       343.94
  164.36        2952.00           2189          89.00       365.74
  164.39        2952.25           2192          91.00       374.46
  164.42        2952.50           2196          87.00       357.02
  164.46        2952.75           2199          91.00       374.46
  164.49        2953.00           2203          93.00       383.18
  164.53        2953.25           2206          86.00       352.66
  164.56        2953.50           2210          94.00       387.54
  164.59        2953.75           2213          87.00       357.02
  164.63        2954.00           2217         103.00       426.77
  164.66        2954.25           2221          93.00       383.18
  164.70        2954.50           2224          97.00       400.62
  164.73        2954.75           2228          97.00       400.62
  164.76        2955.00           2231         103.00       426.77
  164.80        2955.25           2235         125.00       522.68
  164.83        2955.50           2238         105.00       435.49
  164.87        2955.75           2242         122.00       509.60
  164.90        2956.00           2245         122.00       509.60
  164.93        2956.25           2249          96.00       396.26
  164.97        2956.50           2252         119.00       496.52
  165.00        2956.75           2256         110.00       457.29
  165.04        2957.00           2259         106.00       439.85
  165.07        2957.25           2263         126.00       527.04
  165.10        2957.50           2266         108.00       448.57
  165.14        2957.75           2270         116.00       483.44
  165.17        2958.00           2273         130.00       544.47
  165.20        2958.25           2277         133.00       557.55
  165.24        2958.50           2280         139.00       583.71
  165.27        2958.75           2284         164.00       692.69
  165.31        2959.00           2287         125.00       522.68
  165.34        2959.25           2291         125.00       522.68
  165.37        2959.50           2294         123.00       513.96
  165.41        2959.75           2298         139.00       583.71
  165.44        2960.00           2301         145.00       609.86
  165.48        2960.25           2305         133.00       557.55
  165.51        2960.50           2308         148.00       622.94
  165.54        2960.75           2312         148.00       622.94
  165.58        2961.00           2315         194.00       823.47
  165.61        2961.25           2319         447.00      1926.44
  165.65        2961.50           2323        1281.00      5562.83
  165.68        2961.75           2326        2277.00      9906.60
  165.71        2962.00           2330        3738.00     16280.40
  165.75        2962.25           2333        4984.00     21718.16
  165.78        2962.50           2337        6773.00     29528.76
  165.82        2962.75           2340        8149.00     35538.74
  165.85        2963.00           2344        9999.00     43622.44
  165.88        2963.25           2347       11182.00     48793.69
  165.92        2963.50           2351       12889.00     56258.35
  165.95        2963.75           2354       14057.00     61367.89
  165.98        2964.00           2358       15906.00     69459.76
  166.02        2964.25           2361       17276.00     75457.90
  166.05        2964.50           2365       19141.00     83626.72
  166.09        2964.75           2368       20501.00     89586.13
  166.12        2965.00           2372       22521.00     98441.56
  166.15        2965.25           2375       23856.00    104296.60
  166.19        2965.50           2379       25454.00    111307.90
  166.22        2965.75           2382       26491.00    115859.30
  166.26        2966.00           2386       27505.00    120311.00
  166.29        2966.25           2389       27655.00    120969.60
  166.32        2966.50           2393       27623.00    120829.10
  166.36        2966.75           2396       27687.00    121110.10
  166.39        2967.00           2400       27606.00    120754.50
  166.43        2967.25           2404       27588.00    120675.40
  166.46        2967.50           2407       27632.00    120868.60
  166.49        2967.75           2411       27116.00    118603.00
  166.53        2968.00           2414       26314.00    115082.30
  166.56        2968.25           2418       24777.00    108337.20
  166.59        2968.50           2421       23660.00    103436.90
  166.63        2968.75           2425       21932.00     95858.97
  166.66        2969.00           2428       20779.00     90804.58
  166.70        2969.25           2432       19205.00     83907.12
  166.73        2969.50           2435       17655.00     77117.63
  166.76        2969.75           2439       15799.00     68991.40
  166.80        2970.00           2442       14383.00     62794.30
  166.83        2970.25           2446       12700.00     55431.69
  166.87        2970.50           2449       11341.00     49488.86
  166.90        2970.75           2453        9618.00     41957.32
  166.93        2971.00           2456        8254.00     35997.45
  166.97        2971.25           2460        6712.00     29262.38
  167.00        2971.50           2463        5544.00     24162.67
  167.04        2971.75           2467        4056.00     17668.04
  167.07        2972.00           2471        2674.00     11638.33
  167.10        2972.25           2474        1622.00      7049.88
  167.14        2972.50           2478         562.00      2427.81
  167.17        2972.75           2481         237.00      1010.93
  167.21        2973.00           2485         163.00       688.33
  167.24        2973.25           2488         159.00       670.89
  167.27        2973.50           2492         150.00       631.66
  167.31        2973.75           2495         140.00       588.07
  167.34        2974.00           2499         152.00       640.38
  167.37        2974.25           2502         141.00       592.43
  167.41        2974.50           2506         150.00       631.66
  167.44        2974.75           2509         126.00       527.04
  167.48        2975.00           2513         134.00       561.91
  167.51        2975.25           2516         156.00       657.82
  167.54        2975.50           2520         126.00       527.04
  167.58        2975.75           2523         147.00       618.58
  167.61        2976.00           2527         113.00       470.36
  167.65        2976.25           2531         115.00       479.08
  167.68        2976.50           2534         113.00       470.36
  167.71        2976.75           2538         155.00       653.46
  167.75        2977.00           2541         114.00       474.72
  167.78        2977.25           2545         123.00       513.96
  167.82        2977.50           2548         111.00       461.65
  167.85        2977.75           2552         111.00       461.65
  167.88        2978.00           2555         126.00       527.04
  167.92        2978.25           2559         114.00       474.72
  167.95        2978.50           2562         110.00       457.29
  167.99        2978.75           2566         107.00       444.21
  168.02        2979.00           2569         121.00       505.24
  168.05        2979.25           2573         142.00       596.78
  168.09        2979.50           2576         126.00       527.04
  168.12        2979.75           2580         118.00       492.16
  168.15        2980.00           2584          98.00       404.97
  168.19        2980.25           2587         123.00       513.96
  168.22        2980.50           2591         103.00       426.77
  168.26        2980.75           2594          99.00       409.33
  168.29        2981.00           2598          92.00       378.82
  168.32        2981.25           2601         121.00       505.24
  168.36        2981.50           2605         107.00       444.21
  168.39        2981.75           2608         119.00       496.52
  168.43        2982.00           2612         105.00       435.49
  168.46        2982.25           2615         100.00       413.69
  168.49        2982.50           2619          96.00       396.26
  168.53        2982.75           2622         103.00       426.77
  168.56        2983.00           2626          92.00       378.82
  168.60        2983.25           2629         100.00       413.69
  168.63        2983.50           2633         103.00       426.77
  168.66        2983.75           2637          88.00       361.38
  168.70        2984.00           2640         108.00       448.57
HS scan finished at 02:48:55
end
