************************************************************
  HS Scan of (1) Internal mercury lamp
************************************************************
Integration time is 0.2294 seconds per sample
dh160619ENA-ARM-GRW 39.092 28.026 2.96pr1017.49
************************************************************
Dead Time -------------------------  3E-08 
Number of Cycles Used -------------  4 
Starting Wavelength (Angstroms) ---  2950 
Final Wavelength (Angstoms) -------  2984 
Wavelength Increment (Angstroms) --  .25 
Filter Wheel #1 Position ---------- (1) Ground quartz diffuser (ND=2.32)
Filter Wheel #2 Position ---------- (1) Neutral Density 0.494



************************************************************
HS scan start time = 02:36:25
Dark Count =  6.1 


Time (GMT)  Wavelength (Ang)  Step Number  Raw Counts  Counts/Second

  157.32        2950.00           2161          81.00       326.51
  157.51        2950.25           2164          85.00       343.94
  157.55        2950.50           2168          91.00       370.10
  157.58        2950.75           2171          86.00       348.30
  157.61        2951.00           2175         111.00       457.29
  157.65        2951.25           2178          88.00       357.02
  157.68        2951.50           2182          88.00       357.02
  157.71        2951.75           2185          96.00       391.90
  157.75        2952.00           2189         101.00       413.69
  157.78        2952.25           2192          89.00       361.38
  157.82        2952.50           2196          97.00       396.26
  157.85        2952.75           2199          89.00       361.38
  157.88        2953.00           2203          93.00       378.82
  157.92        2953.25           2206          90.00       365.74
  157.95        2953.50           2210         110.00       452.93
  157.99        2953.75           2213          87.00       352.66
  158.02        2954.00           2217          96.00       391.90
  158.05        2954.25           2221          92.00       374.46
  158.09        2954.50           2224          88.00       357.02
  158.12        2954.75           2228         119.00       492.16
  158.16        2955.00           2231          88.00       357.02
  158.19        2955.25           2235         101.00       413.69
  158.22        2955.50           2238         101.00       413.69
  158.26        2955.75           2242         123.00       509.60
  158.29        2956.00           2245         140.00       583.71
  158.32        2956.25           2249         105.00       431.13
  158.36        2956.50           2252         100.00       409.33
  158.39        2956.75           2256         109.00       448.57
  158.43        2957.00           2259         104.00       426.77
  158.46        2957.25           2263         130.00       540.11
  158.49        2957.50           2266         105.00       431.13
  158.53        2957.75           2270         132.00       548.83
  158.56        2958.00           2273         127.00       527.04
  158.60        2958.25           2277         136.00       566.27
  158.63        2958.50           2280         139.00       579.35
  158.66        2958.75           2284         113.00       466.00
  158.70        2959.00           2287         126.00       522.68
  158.73        2959.25           2291         119.00       492.16
  158.77        2959.50           2294         130.00       540.11
  158.80        2959.75           2298         132.00       548.83
  158.83        2960.00           2301         130.00       540.11
  158.87        2960.25           2305         159.00       666.53
  158.90        2960.50           2308         135.00       561.91
  158.93        2960.75           2312         148.00       618.58
  158.97        2961.00           2315         235.00       997.85
  159.00        2961.25           2319         786.00      3400.09
  159.03        2961.50           2323        2059.00      8951.40
  159.06        2961.75           2326        2998.00     13047.39
  159.10        2962.00           2330        4448.00     19374.38
  159.13        2962.25           2333        5480.00     23878.91
  159.16        2962.50           2337        6905.00     30100.84
  159.20        2962.75           2340        7916.00     34516.54
  159.23        2963.00           2344        9618.00     41952.94
  159.26        2963.25           2347       10726.00     46795.82
  159.30        2963.50           2351       12400.00     54115.25
  159.33        2963.75           2354       13702.00     59810.36
  159.36        2964.00           2358       15452.00     67468.16
  159.40        2964.25           2361       16784.00     73299.20
  159.43        2964.50           2365       18503.00     80827.41
  159.47        2964.75           2368       19899.00     86943.58
  159.50        2965.00           2372       21448.00     93732.69
  159.53        2965.25           2375       22763.00     99498.39
  159.57        2965.50           2379       24773.00    108315.20
  159.60        2965.75           2382       25884.00    113190.60
  159.64        2966.00           2386       27142.00    118712.80
  159.67        2966.25           2389       27129.00    118655.70
  159.70        2966.50           2393       27210.00    119011.40
  159.74        2966.75           2396       27261.00    119235.30
  159.77        2967.00           2400       27238.00    119134.30
  159.80        2967.25           2404       27184.00    118897.20
  159.84        2967.50           2407       27184.00    118897.20
  159.87        2967.75           2411       26647.00    116539.70
  159.90        2968.00           2414       25876.00    113155.50
  159.93        2968.25           2418       24612.00    107608.80
  159.97        2968.50           2421       23444.00    102485.10
  160.00        2968.75           2425       21732.00     94977.74
  160.03        2969.00           2428       20584.00     89945.52
  160.07        2969.25           2432       18950.00     82785.56
  160.10        2969.50           2435       17561.00     76701.58
  160.13        2969.75           2439       15778.00     68895.09
  160.17        2970.00           2442       14522.00     63398.15
  160.20        2970.25           2446       12919.00     56385.19
  160.24        2970.50           2449       11700.00     51054.17
  160.27        2970.75           2453        9784.00     42678.41
  160.30        2971.00           2456        8523.00     37168.28
  160.34        2971.25           2460        6712.00     29258.01
  160.37        2971.50           2463        5381.00     23446.74
  160.40        2971.75           2467        3530.00     15368.46
  160.44        2972.00           2471        1935.00      8410.58
  160.47        2972.25           2474        1008.00      4368.05
  160.51        2972.50           2478         319.00      1364.05
  160.54        2972.75           2481         207.00       875.79
  160.58        2973.00           2485         156.00       653.46
  160.61        2973.25           2488         154.00       644.74
  160.64        2973.50           2492         160.00       670.89
  160.68        2973.75           2495         142.00       592.43
  160.71        2974.00           2499         134.00       557.55
  160.74        2974.25           2502         177.00       745.00
  160.78        2974.50           2506         141.00       588.07
  160.81        2974.75           2509         147.00       614.22
  160.85        2975.00           2513         150.00       627.30
  160.88        2975.25           2516         168.00       705.77
  160.91        2975.50           2520         121.00       500.88
  160.95        2975.75           2523         158.00       662.18
  160.98        2976.00           2527         116.00       479.08
  161.02        2976.25           2531         152.00       636.02
  161.05        2976.50           2534         131.00       544.47
  161.08        2976.75           2538         147.00       614.22
  161.12        2977.00           2541         132.00       548.83
  161.15        2977.25           2545         156.00       653.46
  161.18        2977.50           2548         137.00       570.63
  161.22        2977.75           2552         103.00       422.41
  161.25        2978.00           2555         109.00       448.57
  161.29        2978.25           2559         103.00       422.41
  161.32        2978.50           2562         131.00       544.47
  161.35        2978.75           2566         125.00       518.32
  161.38        2979.00           2569         122.00       505.24
  161.42        2979.25           2573         106.00       435.49
  161.45        2979.50           2576         112.00       461.65
  161.48        2979.75           2580         105.00       431.13
  161.52        2980.00           2584         105.00       431.13
  161.55        2980.25           2587         100.00       409.33
  161.59        2980.50           2591         123.00       509.60
  161.62        2980.75           2594         100.00       409.33
  161.65        2981.00           2598         102.00       418.05
  161.69        2981.25           2601         104.00       426.77
  161.72        2981.50           2605          97.00       396.26
  161.76        2981.75           2608         108.00       444.21
  161.79        2982.00           2612          96.00       391.90
  161.82        2982.25           2615          99.00       404.97
  161.86        2982.50           2619         100.00       409.33
  161.89        2982.75           2622         101.00       413.69
  161.93        2983.00           2626          94.00       383.18
  161.96        2983.25           2629          99.00       404.97
  161.99        2983.50           2633          86.00       348.30
  162.02        2983.75           2637          91.00       370.10
  162.06        2984.00           2640         118.00       487.80
HS scan finished at 02:42:17
end
