************************************************************
  HS Scan of (1) Internal mercury lamp
************************************************************
Integration time is 0.2294 seconds per sample
dh090619ENA-ARM-GRW 39.092 28.026 2.8pr1017.49
************************************************************
Dead Time -------------------------  3E-08 
Number of Cycles Used -------------  4 
Starting Wavelength (Angstroms) ---  2950 
Final Wavelength (Angstoms) -------  2984 
Wavelength Increment (Angstroms) --  .25 
Filter Wheel #1 Position ---------- (1) Ground quartz diffuser (ND=2.32)
Filter Wheel #2 Position ---------- (1) Neutral Density 0.494



************************************************************
HS scan start time = 02:34:46
Dark Count =  4.2 


Time (GMT)  Wavelength (Ang)  Step Number  Raw Counts  Counts/Second

  155.66        2950.00           2161          99.00       413.26
  155.86        2950.25           2164          96.00       400.18
  155.90        2950.50           2168          98.00       408.90
  155.93        2950.75           2171          85.00       352.23
  155.96        2951.00           2175          94.00       391.46
  156.00        2951.25           2178          83.00       343.51
  156.03        2951.50           2182          91.00       378.38
  156.06        2951.75           2185          94.00       391.46
  156.10        2952.00           2189          84.00       347.87
  156.13        2952.25           2192          92.00       382.74
  156.17        2952.50           2196          87.00       360.95
  156.20        2952.75           2199          87.00       360.95
  156.23        2953.00           2203          96.00       400.18
  156.27        2953.25           2206          85.00       352.23
  156.30        2953.50           2210         110.00       461.21
  156.33        2953.75           2213          90.00       374.02
  156.37        2954.00           2217         126.00       530.96
  156.40        2954.25           2221          97.00       404.54
  156.44        2954.50           2224          96.00       400.18
  156.47        2954.75           2228         129.00       544.04
  156.51        2955.00           2231         104.00       435.05
  156.54        2955.25           2235          97.00       404.54
  156.57        2955.50           2238         117.00       491.72
  156.61        2955.75           2242         108.00       452.49
  156.64        2956.00           2245         108.00       452.49
  156.67        2956.25           2249         153.00       648.66
  156.71        2956.50           2252         104.00       435.05
  156.74        2956.75           2256         136.00       574.55
  156.78        2957.00           2259         105.00       439.41
  156.81        2957.25           2263         112.00       469.93
  156.84        2957.50           2266         131.00       552.76
  156.88        2957.75           2270         129.00       544.04
  156.91        2958.00           2273         116.00       487.37
  156.95        2958.25           2277         141.00       596.35
  156.98        2958.50           2280         127.00       535.32
  157.01        2958.75           2284         141.00       596.35
  157.05        2959.00           2287         136.00       574.55
  157.08        2959.25           2291         124.00       522.24
  157.12        2959.50           2294         124.00       522.24
  157.15        2959.75           2298         137.00       578.91
  157.18        2960.00           2301         169.00       718.41
  157.22        2960.25           2305         144.00       609.43
  157.25        2960.50           2308         154.00       653.02
  157.29        2960.75           2312         152.00       644.30
  157.32        2961.00           2315         201.00       857.91
  157.35        2961.25           2319         497.00      2148.35
  157.39        2961.50           2323        1378.00      5989.74
  157.42        2961.75           2326        2327.00     10128.62
  157.45        2962.00           2330        3848.00     16764.32
  157.49        2962.25           2333        4988.00     21739.55
  157.52        2962.50           2337        6523.00     28440.99
  157.56        2962.75           2340        7844.00     34210.33
  157.59        2963.00           2344        9595.00     41860.73
  157.63        2963.25           2347       10900.00     47564.78
  157.66        2963.50           2351       12655.00     55238.81
  157.69        2963.75           2354       14003.00     61135.56
  157.73        2964.00           2358       15459.00     67507.11
  157.76        2964.25           2361       16819.00     73460.76
  157.79        2964.50           2365       18586.00     81199.31
  157.83        2964.75           2368       19852.00     86745.94
  157.86        2965.00           2372       21805.00     95306.12
  157.90        2965.25           2375       23311.00    101910.10
  157.93        2965.50           2379       25072.00    109635.50
  157.96        2965.75           2382       26309.00    115064.40
  158.00        2966.00           2386       27054.00    118334.80
  158.03        2966.25           2389       27066.00    118387.50
  158.07        2966.50           2393       27360.00    119678.30
  158.10        2966.75           2396       27269.00    119278.70
  158.13        2967.00           2400       27263.00    119252.40
  158.17        2967.25           2404       27307.00    119445.60
  158.20        2967.50           2407       27254.00    119212.90
  158.24        2967.75           2411       26782.00    117140.70
  158.27        2968.00           2414       26148.00    114357.70
  158.30        2968.25           2418       24778.00    108345.50
  158.34        2968.50           2421       23698.00    103607.50
  158.37        2968.75           2425       21988.00     96108.44
  158.41        2969.00           2428       20682.00     90383.38
  158.44        2969.25           2432       18901.00     82579.23
  158.47        2969.50           2435       17655.00     77121.56
  158.51        2969.75           2439       15939.00     69608.16
  158.54        2970.00           2442       14534.00     63458.97
  158.57        2970.25           2446       12678.00     55339.40
  158.61        2970.50           2449       11375.00     49641.44
  158.64        2970.75           2453        9535.00     41598.52
  158.68        2971.00           2456        8226.00     35879.05
  158.71        2971.25           2460        6480.00     28253.23
  158.74        2971.50           2463        5343.00     23289.15
  158.78        2971.75           2467        3759.00     16375.96
  158.81        2972.00           2471        2313.00     10067.56
  158.84        2972.25           2474        1371.00      5959.22
  158.88        2972.50           2478         502.00      2170.15
  158.91        2972.75           2481         256.00      1097.68
  158.95        2973.00           2485         169.00       718.41
  158.98        2973.25           2488         143.00       605.07
  159.01        2973.50           2492         146.00       618.15
  159.05        2973.75           2495         147.00       622.51
  159.08        2974.00           2499         140.00       591.99
  159.12        2974.25           2502         151.00       639.94
  159.15        2974.50           2506         133.00       561.47
  159.18        2974.75           2509         149.00       631.22
  159.22        2975.00           2513         162.00       687.90
  159.25        2975.25           2516         138.00       583.27
  159.29        2975.50           2520         182.00       775.08
  159.32        2975.75           2523         130.00       548.40
  159.35        2976.00           2527         130.00       548.40
  159.39        2976.25           2531         121.00       509.16
  159.42        2976.50           2534         140.00       591.99
  159.46        2976.75           2538         132.00       557.11
  159.49        2977.00           2541         129.00       544.04
  159.52        2977.25           2545         141.00       596.35
  159.56        2977.50           2548         126.00       530.96
  159.59        2977.75           2552         112.00       469.93
  159.62        2978.00           2555         131.00       552.76
  159.66        2978.25           2559         116.00       487.37
  159.69        2978.50           2562         140.00       591.99
  159.73        2978.75           2566          95.00       395.82
  159.76        2979.00           2569         131.00       552.76
  159.80        2979.25           2573         111.00       465.57
  159.83        2979.50           2576         131.00       552.76
  159.86        2979.75           2580         122.00       513.52
  159.90        2980.00           2584         107.00       448.13
  159.93        2980.25           2587         161.00       683.54
  159.96        2980.50           2591         122.00       513.52
  160.00        2980.75           2594         129.00       544.04
  160.03        2981.00           2598         132.00       557.11
  160.07        2981.25           2601          92.00       382.74
  160.10        2981.50           2605         113.00       474.29
  160.13        2981.75           2608         103.00       430.69
  160.17        2982.00           2612         108.00       452.49
  160.20        2982.25           2615         102.00       426.34
  160.24        2982.50           2619          92.00       382.74
  160.27        2982.75           2622         105.00       439.41
  160.30        2983.00           2626          94.00       391.46
  160.34        2983.25           2629         115.00       483.01
  160.37        2983.50           2633         101.00       421.98
  160.41        2983.75           2637         103.00       430.69
  160.44        2984.00           2640         123.00       517.88
HS scan finished at 02:40:40
end
