************************************************************
  CZ Scan of (1) Internal mercury lamp
************************************************************
Integration time is 0.2294 seconds per sample
dh250517Madrid 40.45 3.17 3.394313pr940
************************************************************
Dead Time -------------------------  2.6E-08 
Number of Cycles Used -------------  4 
Starting Wavelength (Angstroms) ---  2950 
Final Wavelength (Angstoms) -------  2984 
Wavelength Increment (Angstroms) --  .25 
Filter Wheel #1 Position ---------- (1) Ground quartz diffuser (ND=2.32)
Filter Wheel #2 Position ---------- (1) Neutral Density 0.494



************************************************************
CZ scan start time = 09:27:42
Dark Count =  2.2 


Time (GMT)  Wavelength (Ang)  Step Number  Raw Counts  Counts/Second

  568.06        2950.00           1237          69.00       291.20
  568.12        2950.25           1240          68.00       286.84
  568.15        2950.50           1244          79.00       334.79
  568.18        2950.75           1247          68.00       286.84
  568.21        2951.00           1250          73.00       308.63
  568.23        2951.25           1254          66.00       278.12
  568.26        2951.50           1257          68.00       286.84
  568.29        2951.75           1260          71.00       299.92
  568.32        2952.00           1264          66.00       278.12
  568.35        2952.25           1267          63.00       265.04
  568.37        2952.50           1270          62.00       260.68
  568.40        2952.75           1273          67.00       282.48
  568.43        2953.00           1277          65.00       273.76
  568.46        2953.25           1280          69.00       291.20
  568.48        2953.50           1283          67.00       282.48
  568.51        2953.75           1287          68.00       286.84
  568.54        2954.00           1290          82.00       347.87
  568.57        2954.25           1293          65.00       273.76
  568.60        2954.50           1297          70.00       295.56
  568.63        2954.75           1300          72.00       304.27
  568.66        2955.00           1303          73.00       308.63
  568.69        2955.25           1307          84.00       356.59
  568.72        2955.50           1310          76.00       321.71
  568.74        2955.75           1313          81.00       343.51
  568.77        2956.00           1317          81.00       343.51
  568.80        2956.25           1320          78.00       330.43
  568.83        2956.50           1323          85.00       360.95
  568.86        2956.75           1326          89.00       378.38
  568.88        2957.00           1330          99.00       421.98
  568.91        2957.25           1333          97.00       413.26
  568.94        2957.50           1336         107.00       456.85
  568.97        2957.75           1340         108.00       461.21
  568.99        2958.00           1343         111.00       474.29
  569.03        2958.25           1346         119.00       509.16
  569.06        2958.50           1350         132.00       565.83
  569.09        2958.75           1353         146.00       626.86
  569.11        2959.00           1356         155.00       666.10
  569.14        2959.25           1360         202.00       870.99
  569.17        2959.50           1363         340.00      1472.59
  569.20        2959.75           1366         515.00      2235.53
  569.22        2960.00           1370         674.00      2928.73
  569.25        2960.25           1373         904.00      3931.53
  569.28        2960.50           1376        1058.00      4602.99
  569.31        2960.75           1380        1242.00      5405.29
  569.34        2961.00           1383        1561.00      6796.32
  569.36        2961.25           1386        2830.00     12330.89
  569.39        2961.50           1390        7250.00     31620.58
  569.42        2961.75           1393       12496.00     54540.24
  569.45        2962.00           1396       18224.00     79597.00
  569.48        2962.25           1399       23661.00    103411.10
  569.50        2962.50           1403       31197.00    136467.70
  569.53        2962.75           1406       36398.00    159315.10
  569.56        2963.00           1409       43506.00    190583.70
  569.59        2963.25           1413       52906.00    232013.50
  569.63        2963.50           1416       58796.00    258019.00
  569.66        2963.75           1419       65625.00    288214.50
  569.69        2964.00           1423       74125.00    325865.20
  569.72        2964.25           1426       79852.00    351274.70
  569.74        2964.50           1429       86060.00    378856.50
  569.77        2964.75           1433       92791.00    408807.00
  569.80        2965.00           1436       98401.00    433805.20
  569.83        2965.25           1439      104772.00    462234.20
  569.86        2965.50           1443      112443.00    496520.40
  569.88        2965.75           1446      118171.00    522162.30
  569.91        2966.00           1449      123790.00    547349.80
  569.94        2966.25           1453      131490.00    581919.50
  569.97        2966.50           1456      134398.00    594991.50
  569.99        2966.75           1459      135969.00    602057.10
  570.02        2967.00           1463      135965.00    602039.10
  570.05        2967.25           1466      135460.00    599767.60
  570.08        2967.50           1469      135665.00    600689.60
  570.11        2967.75           1473      132250.00    585334.90
  570.13        2968.00           1476      128299.00    567585.60
  570.16        2968.25           1479      122986.00    543743.80
  570.19        2968.50           1483      115226.00    508974.40
  570.22        2968.75           1486      108565.00    479179.70
  570.25        2969.00           1489      102590.00    452492.80
  570.27        2969.25           1493       94669.00    417171.70
  570.30        2969.50           1496       88424.00    389370.10
  570.33        2969.75           1499       82193.00    361671.00
  570.36        2970.00           1502       75786.00    333231.20
  570.39        2970.25           1506       66940.00    294034.50
  570.42        2970.50           1509       60606.00    266017.50
  570.44        2970.75           1512       54169.00    237586.90
  570.47        2971.00           1516       45228.00    198166.60
  570.50        2971.25           1519       38971.00    170628.00
  570.53        2971.50           1522       32971.00    144257.60
  570.56        2971.75           1526       25213.00    110214.30
  570.58        2972.00           1529       18548.00     81015.29
  570.61        2972.25           1532       12656.00     55239.70
  570.64        2972.50           1536        5717.00     24928.10
  570.67        2972.75           1539        2694.00     11737.67
  570.70        2973.00           1542        1550.00      6748.35
  570.72        2973.25           1546        1182.00      5143.67
  570.75        2973.50           1549         905.00      3935.89
  570.78        2973.75           1552         755.00      3281.88
  570.81        2974.00           1556         601.00      2610.46
  570.84        2974.25           1559         374.00      1620.82
  570.86        2974.50           1562         247.00      1067.16
  570.89        2974.75           1566         187.00       805.60
  570.92        2975.00           1569         151.00       648.66
  570.95        2975.25           1572         141.00       605.07
  570.97        2975.50           1576         128.00       548.40
  571.00        2975.75           1579         136.00       583.27
  571.03        2976.00           1582         116.00       496.08
  571.06        2976.25           1586         123.00       526.60
  571.08        2976.50           1589         104.00       443.77
  571.11        2976.75           1592         109.00       465.57
  571.14        2977.00           1596         109.00       465.57
  571.17        2977.25           1599         109.00       465.57
  571.20        2977.50           1602          98.00       417.62
  571.22        2977.75           1606          91.00       387.10
  571.25        2978.00           1609         103.00       439.41
  571.28        2978.25           1612          80.00       339.15
  571.31        2978.50           1616          88.00       374.02
  571.33        2978.75           1619          80.00       339.15
  571.36        2979.00           1622          86.00       365.30
  571.39        2979.25           1626          81.00       343.51
  571.42        2979.50           1629          84.00       356.59
  571.45        2979.75           1632          80.00       339.15
  571.47        2980.00           1636          82.00       347.87
  571.50        2980.25           1639          78.00       330.43
  571.53        2980.50           1642          83.00       352.23
  571.56        2980.75           1646          68.00       286.84
  571.58        2981.00           1649          69.00       291.20
  571.61        2981.25           1652          75.00       317.35
  571.64        2981.50           1656          66.00       278.12
  571.67        2981.75           1659          66.00       278.12
  571.70        2982.00           1662          66.00       278.12
  571.72        2982.25           1666          75.00       317.35
  571.75        2982.50           1669          71.00       299.92
  571.78        2982.75           1672          68.00       286.84
  571.81        2983.00           1676          73.00       308.63
  571.84        2983.25           1679          61.00       256.32
  571.86        2983.50           1682          67.00       282.48
  571.89        2983.75           1686          62.00       260.68
  571.92        2984.00           1689          69.00       291.20
CZ scan finished at 09:32:06
end
