************************************************************
  CZ Scan of (1) Internal mercury lamp
************************************************************
Integration time is 0.2294 seconds per sample
dh130619Madrid 40.45 3.717 3.072425pr940
************************************************************
Dead Time -------------------------  3.1E-08 
Number of Cycles Used -------------  4 
Starting Wavelength (Angstroms) ---  2950 
Final Wavelength (Angstoms) -------  2984 
Wavelength Increment (Angstroms) --  .25 
Filter Wheel #1 Position ---------- (1) Ground quartz diffuser (ND=2.32)
Filter Wheel #2 Position ---------- (1) Neutral Density 0.494



************************************************************
CZ scan start time = 09:27:25
Dark Count =  2.9 


Time (GMT)  Wavelength (Ang)  Step Number  Raw Counts  Counts/Second

  567.77        2950.00           1237         138.00       588.94
  567.84        2950.25           1240         129.00       549.70
  567.87        2950.50           1244         128.00       545.34
  567.89        2950.75           1247         132.00       562.78
  567.92        2951.00           1250         136.00       580.22
  567.95        2951.25           1254         123.00       523.55
  567.98        2951.50           1257         128.00       545.34
  568.01        2951.75           1260         117.00       497.39
  568.03        2952.00           1264         134.00       571.50
  568.06        2952.25           1267         133.00       567.14
  568.09        2952.50           1270         139.00       593.30
  568.12        2952.75           1273         126.00       536.63
  568.14        2953.00           1277         128.00       545.34
  568.17        2953.25           1280         125.00       532.27
  568.20        2953.50           1283         129.00       549.70
  568.23        2953.75           1287         128.00       545.34
  568.25        2954.00           1290         130.00       554.06
  568.28        2954.25           1293         127.00       540.99
  568.31        2954.50           1297         132.00       562.78
  568.34        2954.75           1300         135.00       575.86
  568.37        2955.00           1303         132.00       562.78
  568.39        2955.25           1307         137.00       584.58
  568.42        2955.50           1310         145.00       619.45
  568.93        2955.75           1313           0.00         2.00
  569.44        2956.00           1317         139.00       593.30
  569.49        2956.25           1320         146.00       623.81
  569.53        2956.50           1323         145.00       619.45
  569.58        2956.75           1326         147.00       628.17
  569.63        2957.00           1330         163.00       697.92
  569.68        2957.25           1333         147.00       628.17
  569.73        2957.50           1336         168.00       719.72
  569.78        2957.75           1340         164.00       702.28
  569.82        2958.00           1343         173.00       741.52
  569.87        2958.25           1346         183.00       785.11
  569.92        2958.50           1350         170.00       728.44
  569.97        2958.75           1353         193.00       828.70
  570.02        2959.00           1356         220.00       946.41
  570.06        2959.25           1360         324.00      1399.80
  570.11        2959.50           1363         473.00      2049.39
  570.16        2959.75           1366         585.00      2537.69
  570.21        2960.00           1370         743.00      3226.57
  570.26        2960.25           1373         896.00      3893.67
  570.31        2960.50           1376        1047.00      4552.08
  570.35        2960.75           1380        1201.00      5223.60
  570.40        2961.00           1383        1458.00      6344.32
  570.45        2961.25           1386        1636.00      7120.58
  570.50        2961.50           1390        2775.00     12088.66
  570.55        2961.75           1393        6152.00     26827.45
  570.60        2962.00           1396       10267.00     44805.44
  570.64        2962.25           1399       15480.00     67609.30
  570.69        2962.50           1403       22492.00     98333.74
  570.74        2962.75           1406       27602.00    120761.20
  570.79        2963.00           1409       32628.00    142850.50
  570.84        2963.25           1413       39431.00    172798.10
  570.88        2963.50           1416       45680.00    200356.10
  570.93        2963.75           1419       51267.00    225034.80
  570.98        2964.00           1423       57374.00    252053.80
  571.03        2964.25           1426       62053.00    272785.80
  571.08        2964.50           1429       67239.00    295795.40
  571.13        2964.75           1433       73468.00    323476.50
  571.17        2965.00           1436       78418.00    345507.90
  571.22        2965.25           1439       83709.00    369090.50
  571.27        2965.50           1443       89472.00    394816.40
  571.32        2965.75           1446       94507.00    417326.30
  571.37        2966.00           1449       99544.00    439876.90
  571.42        2966.25           1453      106669.00    471829.80
  571.46        2966.50           1456      111048.00    491499.60
  571.51        2966.75           1459      113161.00    500999.50
  571.56        2967.00           1463      114029.00    504903.60
  571.61        2967.25           1466      113865.00    504165.90
  571.66        2967.50           1469      114109.00    505263.50
  571.71        2967.75           1473      113056.00    500527.30
  571.76        2968.00           1476      110126.00    487356.10
  571.80        2968.25           1479      105981.00    468741.60
  571.85        2968.50           1483      100323.00    443367.30
  571.91        2968.75           1486       95417.00    421398.10
  571.97        2969.00           1489       90036.00    397336.30
  572.01        2969.25           1493       82822.00    365134.60
  572.06        2969.50           1496       78026.00    343762.00
  572.11        2969.75           1499       73055.00    321639.70
  572.16        2970.00           1502       67638.00    297567.10
  572.21        2970.25           1506       60404.00    265476.20
  572.26        2970.50           1509       54997.00    241531.90
  572.31        2970.75           1512       50060.00    219700.00
  572.36        2971.00           1516       42746.00    187411.30
  572.40        2971.25           1519       37411.00    163900.00
  572.45        2971.50           1522       32281.00    141324.40
  572.50        2971.75           1526       26078.00    114069.20
  572.55        2972.00           1529       21079.00     92137.68
  572.60        2972.25           1532       16202.00     70770.18
  572.65        2972.50           1536        9674.00     42213.45
  572.70        2972.75           1539        4553.00     19846.99
  572.75        2973.00           1542        1729.00      7526.17
  572.80        2973.25           1546         805.00      3496.89
  572.84        2973.50           1549         544.00      2358.93
  572.89        2973.75           1552         382.00      1652.66
  572.94        2974.00           1556         292.00      1260.29
  572.99        2974.25           1559         228.00       981.29
  573.04        2974.50           1562         215.00       924.61
  573.09        2974.75           1566         186.00       798.19
  573.13        2975.00           1569         182.00       780.75
  573.18        2975.25           1572         187.00       802.55
  573.23        2975.50           1576         179.00       767.67
  573.28        2975.75           1579         171.00       732.80
  573.33        2976.00           1582         167.00       715.36
  573.38        2976.25           1586         156.00       667.41
  573.42        2976.50           1589         162.00       693.56
  573.47        2976.75           1592         160.00       684.84
  573.52        2977.00           1596         158.00       676.13
  573.57        2977.25           1599         151.00       645.61
  573.62        2977.50           1602         141.00       602.02
  573.66        2977.75           1606         143.00       610.74
  573.71        2978.00           1609         139.00       593.30
  573.76        2978.25           1612         143.00       610.74
  573.81        2978.50           1616         147.00       628.17
  573.86        2978.75           1619         141.00       602.02
  573.91        2979.00           1622         135.00       575.86
  573.96        2979.25           1626         135.00       575.86
  574.02        2979.50           1629         131.00       558.42
  574.07        2979.75           1632         123.00       523.55
  574.12        2980.00           1636         133.00       567.14
  574.17        2980.25           1639         117.00       497.39
  574.21        2980.50           1642         128.00       545.34
  574.26        2980.75           1646         133.00       567.14
  574.31        2981.00           1649         118.00       501.75
  574.36        2981.25           1652         121.00       514.83
  574.41        2981.50           1656         128.00       545.34
  574.46        2981.75           1659         117.00       497.39
  574.51        2982.00           1662         125.00       532.27
  574.56        2982.25           1666         118.00       501.75
  574.61        2982.50           1669         118.00       501.75
  574.66        2982.75           1672         117.00       497.39
  574.70        2983.00           1676         126.00       536.63
  574.75        2983.25           1679         119.00       506.11
  574.80        2983.50           1682         123.00       523.55
  574.85        2983.75           1686         127.00       540.99
  574.90        2984.00           1689         113.00       479.95
CZ scan finished at 09:35:13
end
