************************************************************
  HL Scan of (1) Internal mercury lamp
************************************************************
Integration time is 0.2294 seconds per sample
dh050117Madrid 40.45 3.717 2.750537pr940
************************************************************
Dead Time -------------------------  2.6E-08 
Number of Cycles Used -------------  4 
Starting Wavelength (Angstroms) ---  3331 
Final Wavelength (Angstoms) -------  3351 
Wavelength Increment (Angstroms) --  .25 
Filter Wheel #1 Position ---------- (1) Ground quartz diffuser (ND=2.32)
Filter Wheel #2 Position ---------- 



************************************************************
HL scan start time = 01:08:12
Dark Count =  1.5 


Time (GMT)  Wavelength (Ang)  Step Number  Raw Counts  Counts/Second

   68.72        3331.00           6561         118.00       507.85
   68.93        3331.25           6565         115.00       494.78
   68.96        3331.50           6569         120.00       516.57
   68.99        3331.75           6572         122.00       525.29
   69.02        3332.00           6576         117.00       503.49
   69.05        3332.25           6580         119.00       512.21
   69.07        3332.50           6583         118.00       507.85
   69.10        3332.75           6587         129.00       555.81
   69.13        3333.00           6591         115.00       494.78
   69.16        3333.25           6594         139.00       599.40
   69.19        3333.50           6598         114.00       490.42
   69.22        3333.75           6602         136.00       586.32
   69.24        3334.00           6606         146.00       629.91
   69.27        3334.25           6609         133.00       573.24
   69.30        3334.50           6613         142.00       612.48
   69.33        3334.75           6617         153.00       660.43
   69.36        3335.00           6620         167.00       721.46
   69.38        3335.25           6624         185.00       799.93
   69.41        3335.50           6628         243.00      1052.78
   69.44        3335.75           6631         319.00      1384.10
   69.47        3336.00           6635         387.00      1680.54
   69.50        3336.25           6639         472.00      2051.11
   69.52        3336.50           6643         625.00      2718.15
   69.55        3336.75           6646         793.00      3450.61
   69.58        3337.00           6650        2529.00     11021.03
   69.61        3337.25           6654        8681.00     37872.93
   69.64        3337.50           6657       13230.00     57752.30
   69.66        3337.75           6661       19902.00     86946.55
   69.69        3338.00           6665       25590.00    111870.30
   69.72        3338.25           6669       31800.00    139118.30
   69.75        3338.50           6672       36154.00    158245.70
   69.78        3338.75           6676       42826.00    187593.20
   69.81        3339.00           6680       49365.00    216399.40
   69.83        3339.25           6683       54607.00    239523.20
   69.86        3339.50           6687       61278.00    268991.10
   69.89        3339.75           6691       68131.00    299310.20
   69.92        3340.00           6694       72768.00    319852.50
   69.95        3340.25           6698       78623.00    345822.20
   69.97        3340.50           6702       84797.00    373245.00
   70.00        3340.75           6706       90169.00    397137.60
   70.03        3341.00           6709       94810.00    417803.00
   70.06        3341.25           6713      101369.00    447047.10
   70.09        3341.50           6717      107256.00    473333.10
   70.12        3341.75           6720      110763.00    489009.40
   70.14        3342.00           6724      112437.00    496496.70
   70.17        3342.25           6728      111882.00    494014.00
   70.20        3342.50           6732      110052.00    485830.10
   70.23        3342.75           6735      105985.00    467654.90
   70.26        3343.00           6739       99645.00    439356.10
   70.28        3343.25           6743       93481.00    411883.00
   70.31        3343.50           6746       88845.00    391246.20
   70.34        3343.75           6750       82048.00    361030.00
   70.37        3344.00           6754       75907.00    333771.10
   70.40        3344.25           6758       70568.00    310103.60
   70.43        3344.50           6761       66225.00    290872.80
   70.46        3344.75           6765       60722.00    266533.40
   70.49        3345.00           6769       54885.00    240750.30
   70.51        3345.25           6772       50126.00    219754.70
   70.54        3345.50           6776       44110.00    193246.20
   70.57        3345.75           6780       37527.00    164281.30
   70.60        3346.00           6784       30451.00    133195.90
   70.63        3346.25           6787       25280.00    110511.10
   70.66        3346.50           6791       18686.00     81622.47
   70.68        3346.75           6795       12349.00     53900.69
   70.71        3347.00           6798        7749.00     33802.58
   70.74        3347.25           6802        3116.00     13581.52
   70.77        3347.50           6806        1256.00      5469.39
   70.80        3347.75           6810         837.00      3642.45
   70.82        3348.00           6813         711.00      3093.10
   70.85        3348.25           6817         629.00      2735.59
   70.88        3348.50           6821         522.00      2269.10
   70.91        3348.75           6825         424.00      1841.85
   70.93        3349.00           6828         331.00      1436.41
   70.96        3349.25           6832         270.00      1170.48
   70.99        3349.50           6836         202.00       874.04
   71.02        3349.75           6839         172.00       743.26
   71.05        3350.00           6843         153.00       660.43
   71.08        3350.25           6847         147.00       634.27
   71.10        3350.50           6851         130.00       560.17
   71.13        3350.75           6854         135.00       581.96
   71.16        3351.00           6858         133.00       573.24
HL scan finished at 01:11:46
end
