************************************************************
  HL Scan of (1) Internal mercury lamp
************************************************************
Integration time is 0.2294 seconds per sample
dh120117Madrid 40.45 3.717 2.750537pr940
************************************************************
Dead Time -------------------------  2.6E-08 
Number of Cycles Used -------------  4 
Starting Wavelength (Angstroms) ---  3331 
Final Wavelength (Angstoms) -------  3351 
Wavelength Increment (Angstroms) --  .25 
Filter Wheel #1 Position ---------- (1) Ground quartz diffuser (ND=2.32)
Filter Wheel #2 Position ---------- 



************************************************************
HL scan start time = 01:10:19
Dark Count =  1.5 


Time (GMT)  Wavelength (Ang)  Step Number  Raw Counts  Counts/Second

   70.82        3331.00           6561         117.00       503.49
   71.04        3331.25           6565         124.00       534.01
   71.07        3331.50           6569         113.00       486.06
   71.10        3331.75           6572         120.00       516.57
   71.13        3332.00           6576         114.00       490.42
   71.16        3332.25           6580         123.00       529.65
   71.18        3332.50           6583         128.00       551.45
   71.21        3332.75           6587         129.00       555.81
   71.24        3333.00           6591         124.00       534.01
   71.27        3333.25           6594         121.00       520.93
   71.29        3333.50           6598         124.00       534.01
   71.32        3333.75           6602         123.00       529.65
   71.35        3334.00           6606         140.00       603.76
   71.38        3334.25           6609         147.00       634.27
   71.41        3334.50           6613         139.00       599.40
   71.43        3334.75           6617         141.00       608.12
   71.46        3335.00           6620         163.00       704.02
   71.49        3335.25           6624         175.00       756.34
   71.52        3335.50           6628         216.00       935.07
   71.55        3335.75           6631         291.00      1262.03
   71.57        3336.00           6635         398.00      1728.50
   71.60        3336.25           6639         475.00      2064.19
   71.63        3336.50           6643         582.00      2530.68
   71.66        3336.75           6646         836.00      3638.10
   71.69        3337.00           6650        2633.00     11474.65
   71.71        3337.25           6654        8631.00     37654.55
   71.74        3337.50           6657       13141.00     57363.17
   71.77        3337.75           6661       19732.00     86202.14
   71.80        3338.00           6665       26416.00    115492.30
   71.83        3338.25           6669       32364.00    141594.90
   71.86        3338.50           6672       37040.00    162140.30
   71.88        3338.75           6676       43176.00    189134.00
   71.91        3339.00           6680       49934.00    218908.10
   71.94        3339.25           6683       54667.00    239788.00
   71.97        3339.50           6687       60859.00    267139.00
   72.00        3339.75           6691       67440.00    296250.90
   72.02        3340.00           6694       72320.00    317866.90
   72.05        3340.25           6698       79001.00    347500.00
   72.08        3340.50           6702       84537.00    372089.30
   72.11        3340.75           6706       90351.00    397947.50
   72.14        3341.00           6709       94788.00    417705.00
   72.17        3341.25           6713      100623.00    443718.70
   72.19        3341.50           6717      107124.00    472743.30
   72.22        3341.75           6720      110370.00    487252.10
   72.25        3342.00           6724      111952.00    494327.10
   72.28        3342.25           6728      111657.00    493007.60
   72.31        3342.50           6732      109378.00    482816.90
   72.33        3342.75           6735      104873.00    462688.40
   72.36        3343.00           6739       98986.00    436417.00
   72.39        3343.25           6743       92975.00    409629.50
   72.42        3343.50           6746       88227.00    388496.90
   72.45        3343.75           6750       82074.00    361145.50
   72.47        3344.00           6754       75997.00    334170.30
   72.50        3344.25           6758       69558.00    305629.60
   72.53        3344.50           6761       65325.00    286890.10
   72.56        3344.75           6765       59971.00    263214.10
   72.59        3345.00           6769       55126.00    241814.20
   72.61        3345.25           6772       50455.00    221205.40
   72.64        3345.50           6776       43641.00    191181.20
   72.67        3345.75           6780       37336.00    163441.60
   72.70        3346.00           6784       30477.00    133310.00
   72.74        3346.25           6787       25031.00    109419.40
   72.76        3346.50           6791       18064.00     78899.71
   72.79        3346.75           6795       12510.00     54604.50
   72.82        3347.00           6798        8169.00     35636.76
   72.85        3347.25           6802        3248.00     14157.35
   72.88        3347.50           6806        1170.00      5094.40
   72.90        3347.75           6810         828.00      3603.21
   72.93        3348.00           6813         727.00      3162.86
   72.96        3348.25           6817         664.00      2888.19
   72.99        3348.50           6821         552.00      2399.89
   73.02        3348.75           6825         445.00      1933.40
   73.04        3349.00           6828         345.00      1497.44
   73.07        3349.25           6832         284.00      1231.51
   73.10        3349.50           6836         207.00       895.84
   73.13        3349.75           6839         168.00       725.82
   73.16        3350.00           6843         138.00       595.04
   73.18        3350.25           6847         137.00       590.68
   73.21        3350.50           6851         143.00       616.84
   73.24        3350.75           6854         126.00       542.73
   73.27        3351.00           6858         133.00       573.24
HL scan finished at 01:13:52
end
