************************************************************
  HL Scan of (1) Internal mercury lamp
************************************************************
Integration time is 0.2294 seconds per sample
dh190117Madrid 40.45 3.717 2.750537pr940
************************************************************
Dead Time -------------------------  2.6E-08 
Number of Cycles Used -------------  4 
Starting Wavelength (Angstroms) ---  3331 
Final Wavelength (Angstoms) -------  3351 
Wavelength Increment (Angstroms) --  .25 
Filter Wheel #1 Position ---------- (1) Ground quartz diffuser (ND=2.32)
Filter Wheel #2 Position ---------- 



************************************************************
HL scan start time = 01:12:43
Dark Count =  1.3 


Time (GMT)  Wavelength (Ang)  Step Number  Raw Counts  Counts/Second

   73.23        3331.00           6561         122.00       526.16
   73.45        3331.25           6565         111.00       478.21
   73.48        3331.50           6569         112.00       482.57
   73.51        3331.75           6572         128.00       552.32
   73.54        3332.00           6576         128.00       552.32
   73.56        3332.25           6580         133.00       574.11
   73.59        3332.50           6583         137.00       591.55
   73.62        3332.75           6587         124.00       534.88
   73.65        3333.00           6591         131.00       565.40
   73.68        3333.25           6594         132.00       569.76
   73.70        3333.50           6598         131.00       565.40
   73.73        3333.75           6602         137.00       591.55
   73.76        3334.00           6606         130.00       561.04
   73.79        3334.25           6609         146.00       630.79
   73.82        3334.50           6613         137.00       591.55
   73.84        3334.75           6617         151.00       652.58
   73.87        3335.00           6620         155.00       670.02
   73.90        3335.25           6624         163.00       704.90
   73.93        3335.50           6628         219.00       949.02
   73.96        3335.75           6631         289.00      1254.18
   73.98        3336.00           6635         393.00      1707.57
   74.01        3336.25           6639         478.00      2078.14
   74.04        3336.50           6643         590.00      2566.43
   74.07        3336.75           6646        1005.00      4375.82
   74.10        3337.00           6650        3690.00     16086.50
   74.12        3337.25           6654        9433.00     41158.67
   74.15        3337.50           6657       14252.00     62222.21
   74.18        3337.75           6661       20780.00     90792.54
   74.21        3338.00           6665       26960.00    117879.00
   74.24        3338.25           6669       33198.00    145258.60
   74.26        3338.50           6672       38475.00    168450.60
   74.29        3338.75           6676       44840.00    196461.70
   74.32        3339.00           6680       51778.00    227041.20
   74.35        3339.25           6683       56813.00    249263.70
   74.38        3339.50           6687       63832.00    280285.80
   74.41        3339.75           6691       71193.00    312873.50
   74.43        3340.00           6694       76053.00    334419.60
   74.46        3340.25           6698       82020.00    360906.60
   74.49        3340.50           6702       87841.00    386780.80
   74.53        3340.75           6706       94253.00    415322.50
   74.56        3341.00           6709       99172.00    437247.40
   74.59        3341.25           6713      105040.00    463435.10
   74.62        3341.50           6717      110366.00    487235.10
   74.65        3341.75           6720      113049.00    499235.60
   74.67        3342.00           6724      114207.00    504417.50
   74.70        3342.25           6728      114096.00    503920.70
   74.73        3342.50           6732      110747.00    488938.70
   74.76        3342.75           6735      105475.00    465377.80
   74.79        3343.00           6739       99267.00    437671.10
   74.82        3343.25           6743       93366.00    411371.70
   74.84        3343.50           6746       88938.00    391660.80
   74.87        3343.75           6750       83211.00    366197.70
   74.90        3344.00           6754       76553.00    336637.60
   74.93        3344.25           6758       71028.00    312142.50
   74.96        3344.50           6761       66499.00    292086.50
   74.98        3344.75           6765       60414.00    265172.90
   75.01        3345.00           6769       53889.00    236355.20
   75.04        3345.25           6772       49198.00    215664.10
   75.07        3345.50           6776       42963.00    188197.20
   75.10        3345.75           6780       36259.00    158708.00
   75.13        3346.00           6784       29272.00    128022.20
   75.15        3346.25           6787       24356.00    106461.20
   75.18        3346.50           6791       18403.00     80384.47
   75.21        3346.75           6795       12036.00     52533.35
   75.24        3347.00           6798        7539.00     32886.44
   75.27        3347.25           6802        3029.00     13202.88
   75.29        3347.50           6806        1222.00      5322.01
   75.32        3347.75           6810         869.00      3782.85
   75.35        3348.00           6813         780.00      3394.81
   75.38        3348.25           6817         646.00      2810.58
   75.41        3348.50           6821         571.00      2483.60
   75.43        3348.75           6825         464.00      2017.11
   75.46        3349.00           6828         366.00      1589.87
   75.49        3349.25           6832         318.00      1380.61
   75.52        3349.50           6836         241.00      1044.93
   75.55        3349.75           6839         179.00       774.65
   75.58        3350.00           6843         149.00       643.86
   75.62        3350.25           6847         150.00       648.22
   75.64        3350.50           6851         146.00       630.79
   75.67        3350.75           6854         137.00       591.55
   75.70        3351.00           6858         128.00       552.32
HL scan finished at 01:16:18
end
