************************************************************
  HL Scan of (1) Internal mercury lamp
************************************************************
Integration time is 0.2294 seconds per sample
dh260117Madrid 40.45 3.717 2.750537pr940
************************************************************
Dead Time -------------------------  2.6E-08 
Number of Cycles Used -------------  4 
Starting Wavelength (Angstroms) ---  3331 
Final Wavelength (Angstoms) -------  3351 
Wavelength Increment (Angstroms) --  .25 
Filter Wheel #1 Position ---------- (1) Ground quartz diffuser (ND=2.32)
Filter Wheel #2 Position ---------- 



************************************************************
HL scan start time = 01:14:27
Dark Count =  2.3 


Time (GMT)  Wavelength (Ang)  Step Number  Raw Counts  Counts/Second

   74.97        3331.00           6561         110.00       469.49
   75.18        3331.25           6565         119.00       508.73
   75.21        3331.50           6569         106.00       452.05
   75.24        3331.75           6572         116.00       495.65
   75.27        3332.00           6576         110.00       469.49
   75.30        3332.25           6580         121.00       517.44
   75.32        3332.50           6583         121.00       517.44
   75.35        3332.75           6587         121.00       517.44
   75.38        3333.00           6591         129.00       552.32
   75.41        3333.25           6594         130.00       556.68
   75.44        3333.50           6598         132.00       565.40
   75.46        3333.75           6602         131.00       561.04
   75.49        3334.00           6606         138.00       591.55
   75.52        3334.25           6609         142.00       608.99
   75.55        3334.50           6613         151.00       648.22
   75.58        3334.75           6617         156.00       670.02
   75.60        3335.00           6620         157.00       674.38
   75.63        3335.25           6624         189.00       813.88
   75.66        3335.50           6628         234.00      1010.05
   75.69        3335.75           6631         311.00      1345.73
   75.72        3336.00           6635         409.00      1772.97
   75.74        3336.25           6639         501.00      2174.06
   75.77        3336.50           6643         623.00      2705.94
   75.80        3336.75           6646         912.00      3965.97
   75.83        3337.00           6650        2893.00     12605.27
   75.85        3337.25           6654        8853.00     38620.72
   75.88        3337.50           6657       13744.00     59996.32
   75.91        3337.75           6661       20193.00     88217.37
   75.94        3338.00           6665       26215.00    114607.40
   75.97        3338.25           6669       32813.00    143563.20
   75.99        3338.50           6672       37813.00    165535.30
   76.02        3338.75           6676       43634.00    191146.80
   76.05        3339.00           6680       50120.00    219724.70
   76.08        3339.25           6683       54806.00    240398.10
   76.11        3339.50           6687       60960.00    267581.80
   76.13        3339.75           6691       67938.00    298452.20
   76.16        3340.00           6694       73247.00    321972.20
   76.19        3340.25           6698       80386.00    353645.30
   76.22        3340.50           6702       86609.00    381297.20
   76.25        3340.75           6706       92881.00    409207.30
   76.28        3341.00           6709       97469.00    429649.60
   76.30        3341.25           6713      102807.00    453461.00
   76.33        3341.50           6717      108628.00    479460.80
   76.36        3341.75           6720      111366.00    491702.50
   76.39        3342.00           6724      112424.00    496435.00
   76.42        3342.25           6728      112162.00    495262.90
   76.44        3342.50           6732      108717.00    479858.60
   76.47        3342.75           6735      104307.00    460157.40
   76.50        3343.00           6739       98805.00    435606.30
   76.53        3343.25           6743       92853.00    409082.60
   76.56        3343.50           6746       87745.00    386349.30
   76.58        3343.75           6750       81828.00    360049.30
   76.61        3344.00           6754       75074.00    330073.00
   76.64        3344.25           6758       69361.00    304753.50
   76.67        3344.50           6761       64706.00    284147.80
   76.70        3344.75           6765       59431.00    260824.30
   76.72        3345.00           6769       53866.00    236249.20
   76.75        3345.25           6772       49193.00    215637.60
   76.78        3345.50           6776       42283.00    185199.60
   76.81        3345.75           6780       35967.00    157420.20
   76.83        3346.00           6784       29763.00    130172.60
   76.86        3346.25           6787       25134.00    109867.50
   76.89        3346.50           6791       18658.00     81496.40
   76.92        3346.75           6795       12309.00     53722.33
   76.95        3347.00           6798        7795.00     33999.97
   76.98        3347.25           6802        2759.00     12020.76
   77.00        3347.50           6806        1136.00      4942.66
   77.03        3347.75           6810         819.00      3560.49
   77.06        3348.00           6813         708.00      3076.53
   77.09        3348.25           6817         636.00      2762.62
   77.11        3348.50           6821         509.00      2208.93
   77.15        3348.75           6825         428.00      1855.80
   77.18        3349.00           6828         334.00      1446.00
   77.21        3349.25           6832         270.00      1166.99
   77.24        3349.50           6836         210.00       905.43
   77.27        3349.75           6839         178.00       765.93
   77.29        3350.00           6843         150.00       643.86
   77.32        3350.25           6847         138.00       591.55
   77.35        3350.50           6851         124.00       530.52
   77.38        3350.75           6854         132.00       565.40
   77.40        3351.00           6858         137.00       587.19
HL scan finished at 01:18:01
end
