************************************************************
  HL Scan of (1) Internal mercury lamp
************************************************************
Integration time is 0.2294 seconds per sample
dh020217Madrid 40.45 3.717 2.750537pr940
************************************************************
Dead Time -------------------------  2.6E-08 
Number of Cycles Used -------------  4 
Starting Wavelength (Angstroms) ---  3331 
Final Wavelength (Angstoms) -------  3351 
Wavelength Increment (Angstroms) --  .25 
Filter Wheel #1 Position ---------- (1) Ground quartz diffuser (ND=2.32)
Filter Wheel #2 Position ---------- 



************************************************************
HL scan start time = 01:15:43
Dark Count =  2.3 


Time (GMT)  Wavelength (Ang)  Step Number  Raw Counts  Counts/Second

   76.23        3331.00           6561         118.00       504.37
   76.45        3331.25           6565         124.00       530.52
   76.48        3331.50           6569         133.00       569.76
   76.51        3331.75           6572         116.00       495.65
   76.53        3332.00           6576         118.00       504.37
   76.56        3332.25           6580         127.00       543.60
   76.59        3332.50           6583         125.00       534.88
   76.62        3332.75           6587         125.00       534.88
   76.65        3333.00           6591         134.00       574.11
   76.68        3333.25           6594         125.00       534.88
   76.70        3333.50           6598         125.00       534.88
   76.73        3333.75           6602         143.00       613.35
   76.76        3334.00           6606         129.00       552.32
   76.79        3334.25           6609         147.00       630.79
   76.82        3334.50           6613         142.00       608.99
   76.84        3334.75           6617         153.00       656.94
   76.87        3335.00           6620         153.00       656.94
   76.90        3335.25           6624         171.00       735.41
   76.93        3335.50           6628         223.00       962.10
   76.96        3335.75           6631         291.00      1258.54
   76.98        3336.00           6635         397.00      1720.65
   77.01        3336.25           6639         486.00      2108.66
   77.04        3336.50           6643         591.00      2566.43
   77.07        3336.75           6646         825.00      3586.65
   77.10        3337.00           6650        2246.00      9783.22
   77.12        3337.25           6654        8329.00     36332.04
   77.15        3337.50           6657       13168.00     57477.73
   77.18        3337.75           6661       19975.00     87262.71
   77.21        3338.00           6665       26887.00    117554.50
   77.24        3338.25           6669       33156.00    145069.70
   77.26        3338.50           6672       37724.00    165143.90
   77.29        3338.75           6676       44156.00    193445.20
   77.32        3339.00           6680       50057.00    219446.90
   77.35        3339.25           6683       54555.00    239290.20
   77.38        3339.50           6687       61371.00    269398.70
   77.41        3339.75           6691       67577.00    296853.90
   77.43        3340.00           6694       72171.00    317203.00
   77.46        3340.25           6698       79169.00    348242.20
   77.49        3340.50           6702       85532.00    376508.60
   77.52        3340.75           6706       91644.00    403699.50
   77.55        3341.00           6709       95710.00    421809.60
   77.57        3341.25           6713      101809.00    449006.90
   77.60        3341.50           6717      107194.00    473052.50
   77.63        3341.75           6720      110517.00    487905.70
   77.66        3342.00           6724      111805.00    493666.00
   77.69        3342.25           6728      111677.00    493093.50
   77.72        3342.50           6732      109524.00    483466.00
   77.74        3342.75           6735      105175.00    464033.50
   77.77        3343.00           6739       98475.00    434134.80
   77.80        3343.25           6743       92375.00    406954.10
   77.83        3343.50           6746       87952.00    387270.00
   77.86        3343.75           6750       82059.00    361075.30
   77.88        3344.00           6754       75522.00    332059.90
   77.91        3344.25           6758       68986.00    303092.80
   77.94        3344.50           6761       63849.00    280356.60
   77.97        3344.75           6765       57688.00    253123.80
   78.00        3345.00           6769       52239.00    229070.40
   78.02        3345.25           6772       48399.00    212137.70
   78.05        3345.50           6776       43025.00    188465.70
   78.08        3345.75           6780       36941.00    161701.50
   78.11        3346.00           6784       30432.00    133109.00
   78.14        3346.25           6787       25612.00    111963.20
   78.16        3346.50           6791       19211.00     83917.42
   78.19        3346.75           6795       11866.00     51785.90
   78.22        3347.00           6798        7309.00     31877.77
   78.25        3347.25           6802        2780.00     12112.36
   78.28        3347.50           6806        1093.00      4755.17
   78.30        3347.75           6810         862.00      3747.97
   78.33        3348.00           6813         748.00      3250.93
   78.36        3348.25           6817         664.00      2884.70
   78.39        3348.50           6821         534.00      2317.93
   78.42        3348.75           6825         433.00      1877.60
   78.44        3349.00           6828         357.00      1546.27
   78.47        3349.25           6832         286.00      1236.74
   78.50        3349.50           6836         222.00       957.74
   78.53        3349.75           6839         159.00       683.10
   78.56        3350.00           6843         140.00       600.27
   78.58        3350.25           6847         146.00       626.43
   78.61        3350.50           6851         126.00       539.24
   78.64        3350.75           6854         129.00       552.32
   78.67        3351.00           6858         130.00       556.68
HL scan finished at 01:19:17
end
