************************************************************
  HL Scan of (1) Internal mercury lamp
************************************************************
Integration time is 0.2294 seconds per sample
dh160217Madrid 40.45 3.17 2.750537pr940
************************************************************
Dead Time -------------------------  2.6E-08 
Number of Cycles Used -------------  4 
Starting Wavelength (Angstroms) ---  3331 
Final Wavelength (Angstoms) -------  3351 
Wavelength Increment (Angstroms) --  .25 
Filter Wheel #1 Position ---------- (1) Ground quartz diffuser (ND=2.32)
Filter Wheel #2 Position ---------- 



************************************************************
HL scan start time = 01:13:58
Dark Count =  1.9 


Time (GMT)  Wavelength (Ang)  Step Number  Raw Counts  Counts/Second

   74.49        3331.00           6561         116.00       497.39
   74.71        3331.25           6565         125.00       536.62
   74.73        3331.50           6569         125.00       536.62
   74.76        3331.75           6572         119.00       510.47
   74.79        3332.00           6576         120.00       514.83
   74.83        3332.25           6580         114.00       488.67
   74.86        3332.50           6583         116.00       497.39
   74.89        3332.75           6587         140.00       602.01
   74.92        3333.00           6591         124.00       532.27
   74.95        3333.25           6594         135.00       580.22
   74.97        3333.50           6598         129.00       554.06
   75.01        3333.75           6602         130.00       558.42
   75.04        3334.00           6606         149.00       641.25
   75.07        3334.25           6609         141.00       606.37
   75.10        3334.50           6613         145.00       623.81
   75.12        3334.75           6617         148.00       636.89
   75.15        3335.00           6620         170.00       732.80
   75.18        3335.25           6624         190.00       819.98
   75.21        3335.50           6628         259.00      1120.78
   75.24        3335.75           6631         334.00      1447.74
   75.27        3336.00           6635         442.00      1918.58
   75.29        3336.25           6639         499.00      2167.08
   75.32        3336.50           6643         650.00      2825.40
   75.35        3336.75           6646         912.00      3967.72
   75.38        3337.00           6650        2836.00     12358.37
   75.41        3337.25           6654        8843.00     38578.78
   75.43        3337.50           6657       13186.00     57558.17
   75.46        3337.75           6661       19088.00     83380.65
   75.49        3338.00           6665       25280.00    110509.30
   75.52        3338.25           6669       31760.00    138940.90
   75.55        3338.50           6672       36823.00    161184.60
   75.57        3338.75           6676       43633.00    191144.20
   75.60        3339.00           6680       49757.00    218125.90
   75.63        3339.25           6683       54576.00    239384.60
   75.66        3339.50           6687       61356.00    269334.20
   75.69        3339.75           6691       67221.00    295279.60
   75.71        3340.00           6694       72155.00    317133.80
   75.74        3340.25           6698       78625.00    345829.30
   75.77        3340.50           6702       84568.00    372225.40
   75.80        3340.75           6706       90045.00    396584.00
   75.83        3341.00           6709       94202.00    415092.70
   75.85        3341.25           6713      100578.00    443516.20
   75.88        3341.50           6717      105997.00    467706.70
   75.91        3341.75           6720      109360.00    482734.70
   75.94        3342.00           6724      110992.00    490031.70
   75.97        3342.25           6728      110563.00    488113.30
   76.00        3342.50           6732      109373.00    482792.80
   76.02        3342.75           6735      104878.00    462708.90
   76.05        3343.00           6739       98905.00    436054.00
   76.08        3343.25           6743       92633.00    408104.70
   76.11        3343.50           6746       87664.00    385990.80
   76.14        3343.75           6750       81013.00    356431.30
   76.16        3344.00           6754       75012.00    329799.80
   76.19        3344.25           6758       70149.00    308245.60
   76.22        3344.50           6761       65742.00    288733.60
   76.25        3344.75           6765       59497.00    261117.70
   76.28        3345.00           6769       53888.00    236348.10
   76.30        3345.25           6772       49348.00    216322.70
   76.33        3345.50           6776       42350.00    185496.20
   76.36        3345.75           6780       36361.00    159153.80
   76.39        3346.00           6784       30486.00    133347.80
   76.42        3346.25           6787       25763.00    112627.10
   76.44        3346.50           6791       19735.00     86213.53
   76.47        3346.75           6795       13054.00     56981.05
   76.50        3347.00           6798        8647.00     37722.68
   76.53        3347.25           6802        3775.00     16454.73
   76.56        3347.50           6806        1207.00      5253.99
   76.58        3347.75           6810         815.00      3544.79
   76.61        3348.00           6813         687.00      2986.72
   76.64        3348.25           6817         604.00      2624.85
   76.67        3348.50           6821         536.00      2328.39
   76.70        3348.75           6825         423.00      1835.75
   76.73        3349.00           6828         320.00      1386.71
   76.75        3349.25           6832         250.00      1081.55
   76.78        3349.50           6836         201.00       867.94
   76.81        3349.75           6839         150.00       645.61
   76.84        3350.00           6843         132.00       567.14
   76.86        3350.25           6847         136.00       584.58
   76.89        3350.50           6851         136.00       584.58
   76.92        3350.75           6854         135.00       580.22
   76.95        3351.00           6858         132.00       567.14
HL scan finished at 01:17:33
end
