************************************************************
  HL Scan of (1) Internal mercury lamp
************************************************************
Integration time is 0.2294 seconds per sample
dh090217Madrid 40.45 3.717 2.750537pr940
************************************************************
Dead Time -------------------------  2.6E-08 
Number of Cycles Used -------------  4 
Starting Wavelength (Angstroms) ---  3331 
Final Wavelength (Angstoms) -------  3351 
Wavelength Increment (Angstroms) --  .25 
Filter Wheel #1 Position ---------- (1) Ground quartz diffuser (ND=2.32)
Filter Wheel #2 Position ---------- 



************************************************************
HL scan start time = 01:16:19
Dark Count =  1.6 


Time (GMT)  Wavelength (Ang)  Step Number  Raw Counts  Counts/Second

   76.84        3331.00           6561         122.00       524.85
   77.05        3331.25           6565         112.00       481.26
   77.08        3331.50           6569         121.00       520.50
   77.11        3331.75           6572         115.00       494.34
   77.14        3332.00           6576         122.00       524.85
   77.17        3332.25           6580         108.00       463.82
   77.20        3332.50           6583         122.00       524.85
   77.22        3332.75           6587         113.00       485.62
   77.25        3333.00           6591         136.00       585.89
   77.28        3333.25           6594         128.00       551.01
   77.31        3333.50           6598         136.00       585.89
   77.34        3333.75           6602         133.00       572.81
   77.36        3334.00           6606         127.00       546.65
   77.39        3334.25           6609         140.00       603.32
   77.42        3334.50           6613         143.00       616.40
   77.45        3334.75           6617         160.00       690.51
   77.48        3335.00           6620         159.00       686.15
   77.50        3335.25           6624         201.00       869.24
   77.53        3335.50           6628         254.00      1100.29
   77.56        3335.75           6631         329.00      1427.25
   77.59        3336.00           6635         419.00      1819.62
   77.61        3336.25           6639         513.00      2229.42
   77.64        3336.50           6643         665.00      2892.11
   77.67        3336.75           6646         932.00      4056.23
   77.70        3337.00           6650        2759.00     12023.81
   77.73        3337.25           6654        9212.00     40191.94
   77.75        3337.50           6657       14166.00     61844.79
   77.78        3337.75           6661       21108.00     92227.86
   77.81        3338.00           6665       27734.00    121272.80
   77.84        3338.25           6669       34361.00    150366.10
   77.87        3338.50           6672       39577.00    173296.10
   77.89        3338.75           6676       45498.00    199358.50
   77.92        3339.00           6680       51463.00    225650.40
   77.95        3339.25           6683       55968.00    245531.10
   77.98        3339.50           6687       62770.00    275587.50
   78.01        3339.75           6691       69213.00    304101.10
   78.03        3340.00           6694       73968.00    325171.80
   78.06        3340.25           6698       80262.00    353097.80
   78.09        3340.50           6702       87266.00    384222.00
   78.12        3340.75           6706       93672.00    412733.20
   78.15        3341.00           6709       97899.00    431569.70
   78.18        3341.25           6713      103178.00    455120.10
   78.20        3341.50           6717      108449.00    478663.90
   78.23        3341.75           6720      111867.00    493946.40
   78.26        3342.00           6724      113312.00    500411.00
   78.29        3342.25           6728      113003.00    499028.40
   78.32        3342.50           6732      109811.00    484752.20
   78.35        3342.75           6735      105511.00    465537.30
   78.37        3343.00           6739       99173.00    437250.50
   78.40        3343.25           6743       93037.00    409905.10
   78.43        3343.50           6746       88368.00    389123.60
   78.46        3343.75           6750       82044.00    361011.80
   78.49        3344.00           6754       75558.00    332222.60
   78.51        3344.25           6758       69593.00    305784.10
   78.54        3344.50           6761       64728.00    284248.20
   78.57        3344.75           6765       57756.00    253427.20
   78.61        3345.00           6769       51963.00    227855.90
   78.64        3345.25           6772       47814.00    209562.40
   78.66        3345.50           6776       42462.00    185990.50
   78.69        3345.75           6780       36479.00    159673.70
   78.72        3346.00           6784       30399.00    132967.20
   78.75        3346.25           6787       25379.00    110944.70
   78.78        3346.50           6791       19112.00     83487.06
   78.80        3346.75           6795       11958.00     52191.09
   78.83        3347.00           6798        6902.00     30103.76
   78.86        3347.25           6802        2447.00     10662.94
   78.89        3347.50           6806        1000.00      4352.72
   78.92        3347.75           6810         812.00      3533.02
   78.94        3348.00           6813         702.00      3053.42
   78.97        3348.25           6817         610.00      2652.32
   79.00        3348.50           6821         521.00      2264.30
   79.03        3348.75           6825         407.00      1767.30
   79.06        3349.00           6828         303.00      1313.91
   79.08        3349.25           6832         266.00      1152.61
   79.11        3349.50           6836         212.00       917.20
   79.14        3349.75           6839         146.00       629.48
   79.17        3350.00           6843         133.00       572.81
   79.20        3350.25           6847         133.00       572.81
   79.23        3350.50           6851         135.00       581.53
   79.26        3350.75           6854         134.00       577.17
   79.29        3351.00           6858         120.00       516.14
HL scan finished at 01:19:54
end
