************************************************************
  HL Scan of (1) Internal mercury lamp
************************************************************
Integration time is 0.2294 seconds per sample
dh230217Madrid 40.45 3.17 2.750537pr940
************************************************************
Dead Time -------------------------  2.6E-08 
Number of Cycles Used -------------  4 
Starting Wavelength (Angstroms) ---  3331 
Final Wavelength (Angstoms) -------  3351 
Wavelength Increment (Angstroms) --  .25 
Filter Wheel #1 Position ---------- (1) Ground quartz diffuser (ND=2.32)
Filter Wheel #2 Position ---------- 



************************************************************
HL scan start time = 01:13:27
Dark Count =  1.7 


Time (GMT)  Wavelength (Ang)  Step Number  Raw Counts  Counts/Second

   73.96        3331.00           6561         121.00       520.06
   74.18        3331.25           6565         116.00       498.26
   74.20        3331.50           6569         118.00       506.98
   74.23        3331.75           6572         108.00       463.39
   74.26        3332.00           6576         125.00       537.50
   74.29        3332.25           6580         118.00       506.98
   74.32        3332.50           6583         111.00       476.47
   74.35        3332.75           6587         118.00       506.98
   74.37        3333.00           6591         113.00       485.18
   74.40        3333.25           6594         118.00       506.98
   74.43        3333.50           6598         122.00       524.42
   74.46        3333.75           6602         129.00       554.93
   74.49        3334.00           6606         126.00       541.86
   74.51        3334.25           6609         128.00       550.57
   74.54        3334.50           6613         134.00       576.73
   74.57        3334.75           6617         152.00       655.20
   74.60        3335.00           6620         161.00       694.43
   74.63        3335.25           6624         184.00       794.70
   74.65        3335.50           6628         208.00       899.32
   74.68        3335.75           6631         275.00      1191.41
   74.71        3336.00           6635         365.00      1583.76
   74.74        3336.25           6639         454.00      1971.77
   74.77        3336.50           6643         588.00      2555.97
   74.79        3336.75           6646         927.00      4033.99
   74.82        3337.00           6650        3039.00     13244.75
   74.85        3337.25           6654        9086.00     39641.10
   74.88        3337.50           6657       13553.00     59163.74
   74.90        3337.75           6661       19497.00     85172.28
   74.93        3338.00           6665       25327.00    110716.30
   74.96        3338.25           6669       31219.00    136566.50
   74.99        3338.50           6672       35850.00    156908.70
   75.02        3338.75           6676       42197.00    184823.70
   75.05        3339.00           6680       48655.00    213268.70
   75.07        3339.25           6683       53895.00    236379.90
   75.10        3339.50           6687       60739.00    266607.60
   75.13        3339.75           6691       66896.00    293841.90
   75.16        3340.00           6694       71782.00    315481.70
   75.19        3340.25           6698       78001.00    343060.80
   75.21        3340.50           6702       83966.00    369550.80
   75.24        3340.75           6706       89885.00    395872.80
   75.27        3341.00           6709       93947.00    413957.60
   75.30        3341.25           6713      100330.00    442410.70
   75.33        3341.50           6717      105973.00    467600.40
   75.36        3341.75           6720      108730.00    479919.40
   75.38        3342.00           6724      110192.00    486455.20
   75.41        3342.25           6728      109942.00    485337.50
   75.44        3342.50           6732      107130.00    472769.20
   75.47        3342.75           6735      103688.00    457396.40
   75.50        3343.00           6739       98304.00    433375.00
   75.53        3343.25           6743       92692.00    408368.30
   75.55        3343.50           6746       88313.00    388878.50
   75.58        3343.75           6750       81579.00    358945.90
   75.61        3344.00           6754       75079.00    330097.80
   75.64        3344.25           6758       69168.00    303901.40
   75.67        3344.50           6761       64584.00    283610.60
   75.69        3344.75           6765       58917.00    258555.80
   75.72        3345.00           6769       53468.00    234495.60
   75.75        3345.25           6772       49438.00    216720.40
   75.78        3345.50           6776       43028.00    188481.60
   75.81        3345.75           6780       36813.00    161141.50
   75.83        3346.00           6784       30454.00    133208.20
   75.86        3346.25           6787       25210.00    110203.30
   75.89        3346.50           6791       19112.00     83486.62
   75.92        3346.75           6795       13383.00     58420.40
   75.95        3347.00           6798        9193.00     40108.50
   75.97        3347.25           6802        4046.00     17637.99
   76.00        3347.50           6806        1365.00      5943.81
   76.03        3347.75           6810         862.00      3750.58
   76.06        3348.00           6813         741.00      3223.03
   76.09        3348.25           6817         640.00      2782.68
   76.12        3348.50           6821         509.00      2211.55
   76.14        3348.75           6825         434.00      1884.57
   76.17        3349.00           6828         342.00      1483.49
   76.20        3349.25           6832         260.00      1126.01
   76.23        3349.50           6836         229.00       990.87
   76.26        3349.75           6839         153.00       659.56
   76.28        3350.00           6843         145.00       624.68
   76.31        3350.25           6847         142.00       611.61
   76.34        3350.50           6851         132.00       568.01
   76.37        3350.75           6854         125.00       537.50
   76.39        3351.00           6858         129.00       554.93
HL scan finished at 01:17:00
end
