************************************************************
  HL Scan of (1) Internal mercury lamp
************************************************************
Integration time is 0.2294 seconds per sample
dh090317Madrid 40.45 3.17 2.750537pr940
************************************************************
Dead Time -------------------------  2.6E-08 
Number of Cycles Used -------------  4 
Starting Wavelength (Angstroms) ---  3331 
Final Wavelength (Angstoms) -------  3351 
Wavelength Increment (Angstroms) --  .25 
Filter Wheel #1 Position ---------- (1) Ground quartz diffuser (ND=2.32)
Filter Wheel #2 Position ---------- 



************************************************************
HL scan start time = 01:10:38
Dark Count =  1.3 


Time (GMT)  Wavelength (Ang)  Step Number  Raw Counts  Counts/Second

   71.15        3331.00           6561         119.00       513.08
   71.37        3331.25           6565         121.00       521.80
   71.39        3331.50           6569         119.00       513.08
   71.42        3331.75           6572         115.00       495.65
   71.45        3332.00           6576         119.00       513.08
   71.48        3332.25           6580         115.00       495.65
   71.51        3332.50           6583         131.00       565.40
   71.53        3332.75           6587         128.00       552.32
   71.56        3333.00           6591         123.00       530.52
   71.59        3333.25           6594         114.00       491.29
   71.62        3333.50           6598         123.00       530.52
   71.65        3333.75           6602         129.00       556.68
   71.67        3334.00           6606         124.00       534.88
   71.70        3334.25           6609         136.00       587.19
   71.73        3334.50           6613         154.00       665.66
   71.76        3334.75           6617         156.00       674.38
   71.80        3335.00           6620         166.00       717.97
   71.83        3335.25           6624         191.00       826.96
   71.86        3335.50           6628         251.00      1088.52
   71.89        3335.75           6631         336.00      1459.08
   71.91        3336.00           6635         457.00      1986.59
   71.94        3336.25           6639         530.00      2304.85
   71.97        3336.50           6643         650.00      2828.02
   72.00        3336.75           6646        1093.00      4759.53
   72.02        3337.00           6650        4064.00     17718.27
   72.05        3337.25           6654        9696.00     42307.64
   72.08        3337.50           6657       13596.00     59353.51
   72.11        3337.75           6661       19682.00     85984.07
   72.14        3338.00           6665       25586.00    111853.60
   72.16        3338.25           6669       31771.00    138991.80
   72.19        3338.50           6672       36433.00    159472.90
   72.22        3338.75           6676       43189.00    189192.10
   72.25        3339.00           6680       50427.00    221082.80
   72.28        3339.25           6683       55168.00    242000.50
   72.30        3339.50           6687       61527.00    270092.80
   72.33        3339.75           6691       67519.00    296601.50
   72.36        3340.00           6694       72761.00    319822.40
   72.39        3340.25           6698       78697.00    346151.50
   72.42        3340.50           6702       85022.00    374246.00
   72.45        3340.75           6706       90835.00    400102.60
   72.48        3341.00           6709       94849.00    417977.70
   72.50        3341.25           6713      100176.00    441725.50
   72.53        3341.50           6717      105832.00    466972.40
   72.56        3341.75           6720      109263.00    482303.70
   72.59        3342.00           6724      110317.00    487015.90
   72.62        3342.25           6728      110121.00    486139.60
   72.64        3342.50           6732      108336.00    478160.20
   72.67        3342.75           6735      104658.00    461729.20
   72.70        3343.00           6739       98296.00    433341.10
   72.73        3343.25           6743       92228.00    406304.00
   72.76        3343.50           6746       86913.00    382653.50
   72.78        3343.75           6750       80485.00    354089.30
   72.81        3344.00           6754       74716.00    328489.80
   72.84        3344.25           6758       68756.00    302078.60
   72.87        3344.50           6761       64647.00    283891.20
   72.89        3344.75           6765       59043.00    259114.30
   72.94        3345.00           6769       53130.00    233005.90
   72.98        3345.25           6772       48779.00    213817.00
   73.01        3345.50           6776       42426.00    185833.40
   73.04        3345.75           6780       35852.00    156919.20
   73.06        3346.00           6784       29539.00    129193.90
   73.09        3346.25           6787       25278.00    110503.20
   73.12        3346.50           6791       19273.00     84193.26
   73.15        3346.75           6795       12956.00     56555.21
   73.18        3347.00           6798        8396.00     36629.03
   73.20        3347.25           6802        3296.00     14367.62
   73.23        3347.50           6806        1095.00      4768.25
   73.26        3347.75           6810         787.00      3425.33
   73.29        3348.00           6813         685.00      2980.61
   73.32        3348.25           6817         589.00      2562.07
   73.34        3348.50           6821         480.00      2086.86
   73.37        3348.75           6825         384.00      1668.34
   73.40        3349.00           6828         299.00      1297.78
   73.43        3349.25           6832         247.00      1071.08
   73.46        3349.50           6836         177.00       765.93
   73.48        3349.75           6839         145.00       626.43
   73.51        3350.00           6843         148.00       639.50
   73.54        3350.25           6847         139.00       600.27
   73.57        3350.50           6851         139.00       600.27
   73.59        3350.75           6854         131.00       565.40
   73.62        3351.00           6858         129.00       556.68
HL scan finished at 01:14:14
end
