************************************************************
  HL Scan of (1) Internal mercury lamp
************************************************************
Integration time is 0.2294 seconds per sample
dh020317Madrid 40.45 3.17 2.750537pr940
************************************************************
Dead Time -------------------------  2.6E-08 
Number of Cycles Used -------------  4 
Starting Wavelength (Angstroms) ---  3331 
Final Wavelength (Angstoms) -------  3351 
Wavelength Increment (Angstroms) --  .25 
Filter Wheel #1 Position ---------- (1) Ground quartz diffuser (ND=2.32)
Filter Wheel #2 Position ---------- 



************************************************************
HL scan start time = 01:12:07
Dark Count =  1.2 


Time (GMT)  Wavelength (Ang)  Step Number  Raw Counts  Counts/Second

   72.63        3331.00           6561         113.00       487.36
   72.85        3331.25           6565         120.00       517.88
   72.88        3331.50           6569         129.00       557.11
   72.90        3331.75           6572         135.00       583.27
   72.93        3332.00           6576         116.00       500.44
   72.96        3332.25           6580         121.00       522.24
   72.99        3332.50           6583         120.00       517.88
   73.02        3332.75           6587         131.00       565.83
   73.04        3333.00           6591         128.00       552.75
   73.07        3333.25           6594         130.00       561.47
   73.10        3333.50           6598         132.00       570.19
   73.13        3333.75           6602         125.00       539.68
   73.16        3334.00           6606         134.00       578.91
   73.18        3334.25           6609         140.00       605.07
   73.21        3334.50           6613         150.00       648.66
   73.24        3334.75           6617         153.00       661.74
   73.27        3335.00           6620         166.00       718.41
   73.30        3335.25           6624         196.00       849.19
   73.32        3335.50           6628         256.00      1110.76
   73.35        3335.75           6631         331.00      1437.72
   73.38        3336.00           6635         436.00      1895.47
   73.41        3336.25           6639         492.00      2139.61
   73.44        3336.50           6643         645.00      2806.66
   73.46        3336.75           6646         946.00      4119.01
   73.49        3337.00           6650        3366.00     14673.43
   73.52        3337.25           6654        9420.00     41102.31
   73.55        3337.50           6657       14268.00     62292.61
   73.58        3337.75           6661       20612.00     90057.19
   73.61        3338.00           6665       26729.00    116866.30
   73.63        3338.25           6669       33266.00    145557.70
   73.66        3338.50           6672       37834.00    165632.40
   73.69        3338.75           6676       43817.00    191957.40
   73.73        3339.00           6680       49850.00    218539.00
   73.76        3339.25           6683       54967.00    241113.60
   73.79        3339.50           6687       61413.00    269589.20
   73.82        3339.75           6691       67269.00    295495.20
   73.85        3340.00           6694       72252.00    317566.80
   73.87        3340.25           6698       78616.00    345792.50
   73.90        3340.50           6702       84659.00    372632.90
   73.93        3340.75           6706       90379.00    398073.50
   73.96        3341.00           6709       94725.00    417425.60
   73.99        3341.25           6713       99734.00    439754.30
   74.01        3341.50           6717      105635.00    466092.90
   74.04        3341.75           6720      109342.00    482657.30
   74.07        3342.00           6724      109913.00    485210.00
   74.10        3342.25           6728      109840.00    484883.60
   74.13        3342.50           6732      106853.00    471533.80
   74.16        3342.75           6735      101942.00    449605.30
   74.18        3343.00           6739       96196.00    423980.20
   74.21        3343.25           6743       90740.00    399680.20
   74.24        3343.50           6746       86021.00    378687.60
   74.27        3343.75           6750       79674.00    350488.90
   74.30        3344.00           6754       73585.00    323475.50
   74.32        3344.25           6758       67230.00    295322.50
   74.35        3344.50           6761       62666.00    275129.40
   74.38        3344.75           6765       57421.00    251949.30
   74.41        3345.00           6769       52103.00    228475.30
   74.44        3345.25           6772       48017.00    210458.90
   74.46        3345.50           6776       42235.00    184993.20
   74.49        3345.75           6780       35524.00    155478.20
   74.52        3346.00           6784       29180.00    127618.90
   74.55        3346.25           6787       23978.00    104804.80
   74.58        3346.50           6791       17013.00     74301.21
   74.60        3346.75           6795       10724.00     46799.72
   74.63        3347.00           6798        6816.00     29730.04
   74.66        3347.25           6802        2581.00     11249.15
   74.69        3347.50           6806        1020.00      4441.66
   74.72        3347.75           6810         805.00      3504.24
   74.75        3348.00           6813         694.00      3020.29
   74.78        3348.25           6817         572.00      2488.39
   74.81        3348.50           6821         482.00      2096.02
   74.84        3348.75           6825         393.00      1708.01
   74.86        3349.00           6828         304.00      1320.01
   74.88        3349.25           6832         234.00      1014.85
   74.92        3349.50           6836         187.00       809.96
   74.96        3349.75           6839         145.00       626.86
   74.98        3350.00           6843         139.00       600.71
   75.01        3350.25           6847         122.00       526.60
   75.04        3350.50           6851         136.00       587.63
   75.07        3350.75           6854         139.00       600.71
   75.10        3351.00           6858         127.00       548.40
HL scan finished at 01:15:43
end
