************************************************************
  HL Scan of (1) Internal mercury lamp
************************************************************
Integration time is 0.2294 seconds per sample
dh160317Madrid 40.45 3.17 2.750537pr940
************************************************************
Dead Time -------------------------  2.6E-08 
Number of Cycles Used -------------  4 
Starting Wavelength (Angstroms) ---  3331 
Final Wavelength (Angstoms) -------  3351 
Wavelength Increment (Angstroms) --  .25 
Filter Wheel #1 Position ---------- (1) Ground quartz diffuser (ND=2.32)
Filter Wheel #2 Position ---------- 



************************************************************
HL scan start time = 01:08:47
Dark Count =  2 


Time (GMT)  Wavelength (Ang)  Step Number  Raw Counts  Counts/Second

   69.29        3331.00           6561         117.00       501.31
   69.51        3331.25           6565         106.00       453.36
   69.54        3331.50           6569         110.00       470.80
   69.56        3331.75           6572         119.00       510.03
   69.59        3332.00           6576         116.00       496.96
   69.62        3332.25           6580         119.00       510.03
   69.65        3332.50           6583         121.00       518.75
   69.68        3332.75           6587         133.00       571.06
   69.70        3333.00           6591         121.00       518.75
   69.73        3333.25           6594         130.00       557.99
   69.76        3333.50           6598         133.00       571.06
   69.79        3333.75           6602         137.00       588.50
   69.82        3334.00           6606         129.00       553.63
   69.84        3334.25           6609         142.00       610.30
   69.87        3334.50           6613         135.00       579.78
   69.90        3334.75           6617         149.00       640.81
   69.93        3335.00           6620         167.00       719.28
   69.96        3335.25           6624         187.00       806.47
   69.98        3335.50           6628         243.00      1050.60
   70.01        3335.75           6631         314.00      1360.12
   70.05        3336.00           6635         414.00      1796.07
   70.08        3336.25           6639         505.00      2192.80
   70.11        3336.50           6643         626.00      2720.33
   70.14        3336.75           6646         923.00      4015.24
   70.17        3337.00           6650        3125.00     13618.60
   70.20        3337.25           6654        9198.00     40129.03
   70.23        3337.50           6657       13657.00     59617.19
   70.25        3337.75           6661       20387.00     89068.28
   70.28        3338.00           6665       26667.00    116590.90
   70.31        3338.25           6669       32460.00    142014.30
   70.34        3338.50           6672       37152.00    162630.40
   70.37        3338.75           6676       43755.00    191680.90
   70.39        3339.00           6680       50129.00    219765.70
   70.42        3339.25           6683       54806.00    240399.40
   70.45        3339.50           6687       60827.00    266995.30
   70.48        3339.75           6691       66533.00    292233.80
   70.51        3340.00           6694       71605.00    314696.00
   70.53        3340.25           6698       78020.00    343143.80
   70.56        3340.50           6702       84152.00    370376.00
   70.59        3340.75           6706       90053.00    396619.10
   70.62        3341.00           6709       94926.00    418317.60
   70.65        3341.25           6713      100753.00    444296.50
   70.68        3341.50           6717      106048.00    467934.10
   70.71        3341.75           6720      108555.00    479135.90
   70.73        3342.00           6724      109781.00    484616.30
   70.76        3342.25           6728      109291.00    482425.80
   70.79        3342.50           6732      106124.00    468273.60
   70.82        3342.75           6735      101475.00    447517.80
   70.85        3343.00           6739       95701.00    421770.80
   70.87        3343.25           6743       89700.00    395048.30
   70.90        3343.50           6746       85575.00    376701.20
   70.93        3343.75           6750       79276.00    348718.50
   70.96        3344.00           6754       73513.00    323152.80
   70.99        3344.25           6758       67224.00    295292.50
   71.02        3344.50           6761       62992.00    276567.50
   71.04        3344.75           6765       57885.00    253995.30
   71.07        3345.00           6769       52158.00    228714.40
   71.10        3345.25           6772       47834.00    209648.80
   71.12        3345.50           6776       41502.00    181763.70
   71.15        3345.75           6780       35547.00    155575.70
   71.18        3346.00           6784       29154.00    127501.30
   71.22        3346.25           6787       24127.00    105454.40
   71.24        3346.50           6791       18013.00     78674.28
   71.27        3346.75           6795       12121.00     52901.84
   71.30        3347.00           6798        7747.00     33791.67
   71.33        3347.25           6802        2808.00     12235.80
   71.36        3347.50           6806        1056.00      4595.14
   71.39        3347.75           6810         813.00      3535.63
   71.41        3348.00           6813         695.00      3021.16
   71.44        3348.25           6817         614.00      2668.01
   71.47        3348.50           6821         495.00      2149.20
   71.50        3348.75           6825         390.00      1691.44
   71.53        3349.00           6828         299.00      1294.73
   71.55        3349.25           6832         253.00      1094.19
   71.58        3349.50           6836         189.00       815.19
   71.61        3349.75           6839         160.00       688.77
   71.64        3350.00           6843         143.00       614.66
   71.66        3350.25           6847         136.00       584.14
   71.69        3350.50           6851         129.00       553.63
   71.72        3350.75           6854         136.00       584.14
   71.75        3351.00           6858         120.00       514.39
HL scan finished at 01:12:22
end
