************************************************************
  HL Scan of (1) Internal mercury lamp
************************************************************
Integration time is 0.2294 seconds per sample
dh230317Madrid 40.45 3.17 2.750537pr940
************************************************************
Dead Time -------------------------  2.6E-08 
Number of Cycles Used -------------  4 
Starting Wavelength (Angstroms) ---  3331 
Final Wavelength (Angstoms) -------  3351 
Wavelength Increment (Angstroms) --  .25 
Filter Wheel #1 Position ---------- (1) Ground quartz diffuser (ND=2.32)
Filter Wheel #2 Position ---------- 



************************************************************
HL scan start time = 01:06:38
Dark Count =  3.5 


Time (GMT)  Wavelength (Ang)  Step Number  Raw Counts  Counts/Second

   67.15        3331.00           6561         116.00       490.42
   67.37        3331.25           6565         111.00       468.62
   67.40        3331.50           6569         112.00       472.98
   67.42        3331.75           6572         120.00       507.85
   67.45        3332.00           6576         112.00       472.98
   67.48        3332.25           6580         123.00       520.93
   67.51        3332.50           6583         121.00       512.21
   67.54        3332.75           6587         121.00       512.21
   67.56        3333.00           6591         132.00       560.17
   67.59        3333.25           6594         128.00       542.73
   67.62        3333.50           6598         126.00       534.01
   67.66        3333.75           6602         132.00       560.17
   67.68        3334.00           6606         123.00       520.93
   67.71        3334.25           6609         123.00       520.93
   67.74        3334.50           6613         151.00       642.99
   67.77        3334.75           6617         139.00       590.68
   67.80        3335.00           6620         152.00       647.35
   67.82        3335.25           6624         164.00       699.66
   67.85        3335.50           6628         222.00       952.51
   67.88        3335.75           6631         299.00      1288.19
   67.91        3336.00           6635         389.00      1680.54
   67.94        3336.25           6639         461.00      1994.44
   67.96        3336.50           6643         565.00      2447.85
   67.99        3336.75           6646         891.00      3869.18
   68.02        3337.00           6650        3090.00     13459.37
   68.05        3337.25           6654        9198.00     40122.48
   68.08        3337.50           6657       14140.00     61722.78
   68.10        3337.75           6661       20477.00     89455.85
   68.13        3338.00           6665       26321.00    115066.90
   68.16        3338.25           6669       33008.00    144414.40
   68.19        3338.50           6672       38035.00    166506.10
   68.22        3338.75           6676       44754.00    196073.30
   68.24        3339.00           6680       50446.00    221156.90
   68.27        3339.25           6683       54924.00    240913.60
   68.30        3339.50           6687       61298.00    269070.70
   68.33        3339.75           6691       68530.00    301068.10
   68.36        3340.00           6694       73480.00    322999.80
   68.39        3340.25           6698       79661.00    350421.00
   68.41        3340.50           6702       85941.00    378321.70
   68.44        3340.75           6706       92229.00    406298.70
   68.47        3341.00           6709       96427.00    424999.50
   68.50        3341.25           6713      102302.00    451201.70
   68.53        3341.50           6717      107879.00    476108.00
   68.55        3341.75           6720      111232.00    491097.80
   68.58        3342.00           6724      112860.00    498380.20
   68.61        3342.25           6728      111974.00    494416.60
   68.64        3342.50           6732      108802.00    480233.20
   68.67        3342.75           6735      104858.00    462612.50
   68.70        3343.00           6739       98614.00    434749.20
   68.72        3343.25           6743       92763.00    408676.50
   68.75        3343.50           6746       88560.00    389969.30
   68.78        3343.75           6750       82401.00    362589.20
   68.81        3344.00           6754       75447.00    331721.90
   68.84        3344.25           6758       69316.00    304548.90
   68.86        3344.50           6761       65035.00    285598.10
   68.89        3344.75           6765       59622.00    261663.00
   68.92        3345.00           6769       53528.00    234752.40
   68.95        3345.25           6772       48950.00    214561.10
   68.98        3345.50           6776       42985.00    188284.40
   69.00        3345.75           6780       36879.00    161423.70
   69.03        3346.00           6784       30422.00    133059.80
   69.06        3346.25           6787       25868.00    113080.50
   69.09        3346.50           6791       19626.00     85729.24
   69.12        3346.75           6795       12682.00     55347.69
   69.14        3347.00           6798        7826.00     34130.10
   69.17        3347.25           6802        2644.00     11513.91
   69.20        3347.50           6806        1113.00      4837.14
   69.23        3347.75           6810         854.00      3707.86
   69.26        3348.00           6813         749.00      3250.06
   69.28        3348.25           6817         669.00      2901.27
   69.31        3348.50           6821         515.00      2229.86
   69.34        3348.75           6825         440.00      1902.88
   69.37        3349.00           6828         335.00      1445.13
   69.40        3349.25           6832         288.00      1240.23
   69.42        3349.50           6836         219.00       939.43
   69.45        3349.75           6839         152.00       647.35
   69.48        3350.00           6843         141.00       599.40
   69.51        3350.25           6847         137.00       581.96
   69.54        3350.50           6851         126.00       534.01
   69.56        3350.75           6854         130.00       551.45
   69.59        3351.00           6858         134.00       568.88
HL scan finished at 01:10:12
end
