************************************************************
  HL Scan of (1) Internal mercury lamp
************************************************************
Integration time is 0.2294 seconds per sample
dh300317Madrid 40.45 3.17 2.750537pr940
************************************************************
Dead Time -------------------------  2.6E-08 
Number of Cycles Used -------------  4 
Starting Wavelength (Angstroms) ---  3331 
Final Wavelength (Angstoms) -------  3351 
Wavelength Increment (Angstroms) --  .25 
Filter Wheel #1 Position ---------- (1) Ground quartz diffuser (ND=2.32)
Filter Wheel #2 Position ---------- 



************************************************************
HL scan start time = 01:05:13
Dark Count =  1.1 


Time (GMT)  Wavelength (Ang)  Step Number  Raw Counts  Counts/Second

   65.72        3331.00           6561         129.00       557.55
   65.94        3331.25           6565         120.00       518.32
   65.97        3331.50           6569         110.00       474.72
   66.00        3331.75           6572         111.00       479.08
   66.03        3332.00           6576         122.00       527.03
   66.05        3332.25           6580         127.00       548.83
   66.08        3332.50           6583         117.00       505.24
   66.11        3332.75           6587         126.00       544.47
   66.14        3333.00           6591         123.00       531.39
   66.18        3333.25           6594         116.00       500.88
   66.21        3333.50           6598         140.00       605.50
   66.24        3333.75           6602         145.00       627.30
   66.26        3334.00           6606         133.00       574.99
   66.29        3334.25           6609         128.00       553.19
   66.32        3334.50           6613         134.00       579.35
   66.35        3334.75           6617         144.00       622.94
   66.38        3335.00           6620         170.00       736.28
   66.40        3335.25           6624         182.00       788.60
   66.43        3335.50           6628         256.00      1111.19
   66.46        3335.75           6631         346.00      1503.55
   66.49        3336.00           6635         458.00      1991.82
   66.52        3336.25           6639         536.00      2331.88
   66.55        3336.50           6643         644.00      2802.73
   66.57        3336.75           6646         988.00      4302.57
   66.60        3337.00           6650        3629.00     15821.24
   66.63        3337.25           6654        9159.00     39962.61
   66.66        3337.50           6657       13693.00     59778.55
   66.69        3337.75           6661       19916.00     87009.61
   66.71        3338.00           6665       26331.00    115121.30
   66.74        3338.25           6669       32375.00    141644.90
   66.79        3338.50           6672       36949.00    161742.00
   66.83        3338.75           6676       43661.00    191271.00
   66.86        3339.00           6680       50084.00    219571.20
   66.89        3339.25           6683       55050.00    241480.40
   66.92        3339.50           6687       60878.00    267224.70
   66.95        3339.75           6691       67624.00    297067.20
   66.97        3340.00           6694       72231.00    317474.20
   67.00        3340.25           6698       78102.00    343511.60
   67.03        3340.50           6702       83886.00    369197.90
   67.06        3340.75           6706       89633.00    394754.10
   67.09        3341.00           6709       94434.00    416129.70
   67.11        3341.25           6713      100213.00    441891.40
   67.15        3341.50           6717      105076.00    463596.70
   67.18        3341.75           6720      108443.00    478639.30
   67.21        3342.00           6724      109757.00    484513.00
   67.24        3342.25           6728      109840.00    484884.10
   67.26        3342.50           6732      107213.00    473142.80
   67.29        3342.75           6735      103464.00    456399.10
   67.32        3343.00           6739       97178.00    428357.70
   67.35        3343.25           6743       91005.00    400860.20
   67.38        3343.50           6746       86000.00    378594.60
   67.40        3343.75           6750       79463.00    349552.60
   67.43        3344.00           6754       73793.00    324398.10
   67.46        3344.25           6758       68435.00    300658.00
   67.49        3344.50           6761       64131.00    281609.30
   67.52        3344.75           6765       58450.00    256495.20
   67.55        3345.00           6769       52572.00    230544.80
   67.57        3345.25           6772       47293.00    207268.70
   67.60        3345.50           6776       41083.00    179923.90
   67.63        3345.75           6780       35648.00    156023.50
   67.66        3346.00           6784       29863.00    130616.80
   67.69        3346.25           6787       24874.00    108732.90
   67.71        3346.50           6791       18411.00     80420.38
   67.74        3346.75           6795       11983.00     52302.55
   67.77        3347.00           6798        7489.00     32668.98
   67.80        3347.25           6802        2851.00     12427.29
   67.83        3347.50           6806        1116.00      4860.68
   67.85        3347.75           6810         795.00      3461.08
   67.88        3348.00           6813         657.00      2859.41
   67.91        3348.25           6817         584.00      2541.14
   67.94        3348.50           6821         485.00      2109.53
   67.97        3348.75           6825         385.00      1673.57
   67.99        3349.00           6828         304.00      1320.45
   68.02        3349.25           6832         234.00      1015.28
   68.05        3349.50           6836         180.00       779.88
   68.08        3349.75           6839         147.00       636.02
   68.11        3350.00           6843         145.00       627.30
   68.14        3350.25           6847         134.00       579.35
   68.16        3350.50           6851         130.00       561.91
   68.19        3350.75           6854         137.00       592.42
   68.22        3351.00           6858         133.00       574.99
HL scan finished at 01:08:50
end
