************************************************************
  HL Scan of (1) Internal mercury lamp
************************************************************
Integration time is 0.2294 seconds per sample
dh060417Madrid 40.45 3.17 2.750537pr940
************************************************************
Dead Time -------------------------  2.6E-08 
Number of Cycles Used -------------  4 
Starting Wavelength (Angstroms) ---  3331 
Final Wavelength (Angstoms) -------  3351 
Wavelength Increment (Angstroms) --  .25 
Filter Wheel #1 Position ---------- (1) Ground quartz diffuser (ND=2.32)
Filter Wheel #2 Position ---------- 



************************************************************
HL scan start time = 01:02:43
Dark Count =  3.4 


Time (GMT)  Wavelength (Ang)  Step Number  Raw Counts  Counts/Second

   63.23        3331.00           6561         111.00       469.06
   63.45        3331.25           6565         120.00       508.29
   63.48        3331.50           6569         125.00       530.09
   63.50        3331.75           6572         114.00       482.13
   63.53        3332.00           6576         120.00       508.29
   63.56        3332.25           6580         115.00       486.49
   63.59        3332.50           6583         129.00       547.52
   63.62        3332.75           6587         135.00       573.68
   63.64        3333.00           6591         128.00       543.16
   63.67        3333.25           6594         120.00       508.29
   63.70        3333.50           6598         123.00       521.37
   63.73        3333.75           6602         137.00       582.40
   63.75        3334.00           6606         135.00       573.68
   63.78        3334.25           6609         141.00       599.84
   63.81        3334.50           6613         152.00       647.79
   63.84        3334.75           6617         149.00       634.71
   63.86        3335.00           6620         156.00       665.23
   63.89        3335.25           6624         177.00       756.77
   63.92        3335.50           6628         244.00      1048.85
   63.95        3335.75           6631         327.00      1410.69
   63.98        3336.00           6635         411.00      1776.89
   64.01        3336.25           6639         516.00      2234.65
   64.04        3336.50           6643         675.00      2927.86
   64.06        3336.75           6646        1150.00      4998.91
   64.09        3337.00           6650        4288.00     18686.50
   64.12        3337.25           6654       10382.00     45295.69
   64.15        3337.50           6657       14838.00     64775.96
   64.18        3337.75           6661       20764.00     90713.26
   64.20        3338.00           6665       26440.00    115589.20
   64.23        3338.25           6669       32489.00    142135.50
   64.26        3338.50           6672       37129.00    162523.20
   64.29        3338.75           6676       43402.00    190120.60
   64.32        3339.00           6680       50508.00    221430.70
   64.34        3339.25           6683       55758.00    244595.90
   64.37        3339.50           6687       62837.00    275875.90
   64.40        3339.75           6691       69136.00    303752.20
   64.43        3340.00           6694       74085.00    325682.50
   64.46        3340.25           6698       80102.00    352379.40
   64.49        3340.50           6702       86023.00    378686.70
   64.52        3340.75           6706       91680.00    403854.90
   64.55        3341.00           6709       96413.00    424937.60
   64.57        3341.25           6713      102809.00    453465.00
   64.60        3341.50           6717      107849.00    475974.40
   64.63        3341.75           6720      110548.00    488039.40
   64.66        3342.00           6724      111597.00    492730.70
   64.69        3342.25           6728      111308.00    491438.20
   64.72        3342.50           6732      107995.00    476626.90
   64.74        3342.75           6735      104317.00    460197.20
   64.77        3343.00           6739       98962.00    436301.50
   64.80        3343.25           6743       93085.00    410110.90
   64.83        3343.50           6746       88009.00    387518.70
   64.86        3343.75           6750       81441.00    358325.50
   64.88        3344.00           6754       74933.00    329442.80
   64.91        3344.25           6758       68721.00    301914.30
   64.94        3344.50           6761       64091.00    281422.20
   64.97        3344.75           6765       58450.00    256485.00
   65.02        3345.00           6769       52994.00    232396.50
   65.05        3345.25           6772       48561.00    212846.90
   65.08        3345.50           6776       42292.00    185234.40
   65.11        3345.75           6780       36091.00    157960.40
   65.13        3346.00           6784       29155.00    127499.60
   65.16        3346.25           6787       24361.00    106474.00
   65.19        3346.50           6791       18372.00     80239.59
   65.22        3346.75           6795       12397.00     54102.21
   65.25        3347.00           6798        7894.00     34427.49
   65.27        3347.25           6802        3036.00     13224.25
   65.30        3347.50           6806        1107.00      4811.41
   65.33        3347.75           6810         841.00      3651.61
   65.36        3348.00           6813         701.00      3041.22
   65.39        3348.25           6817         617.00      2674.99
   65.41        3348.50           6821         532.00      2304.41
   65.44        3348.75           6825         419.00      1811.77
   65.47        3349.00           6828         349.00      1506.60
   65.50        3349.25           6832         268.00      1153.48
   65.52        3349.50           6836         217.00       931.15
   65.55        3349.75           6839         169.00       721.90
   65.58        3350.00           6843         147.00       625.99
   65.61        3350.25           6847         137.00       582.40
   65.65        3350.50           6851         128.00       543.16
   65.70        3350.75           6854         137.00       582.40
   65.73        3351.00           6858         139.00       591.12
HL scan finished at 01:06:21
end
