************************************************************
  HL Scan of (1) Internal mercury lamp
************************************************************
Integration time is 0.2294 seconds per sample
dh130417Madrid 40.45 3.17 2.804185pr940
************************************************************
Dead Time -------------------------  2.6E-08 
Number of Cycles Used -------------  4 
Starting Wavelength (Angstroms) ---  3331 
Final Wavelength (Angstoms) -------  3351 
Wavelength Increment (Angstroms) --  .25 
Filter Wheel #1 Position ---------- (1) Ground quartz diffuser (ND=2.32)
Filter Wheel #2 Position ---------- 



************************************************************
HL scan start time = 01:00:52
Dark Count =  1.8 


Time (GMT)  Wavelength (Ang)  Step Number  Raw Counts  Counts/Second

   61.38        3331.00           6561         117.00       502.19
   61.60        3331.25           6565         114.00       489.11
   61.62        3331.50           6569         114.00       489.11
   61.65        3331.75           6572         111.00       476.03
   61.68        3332.00           6576         112.00       480.39
   61.71        3332.25           6580         126.00       541.42
   61.74        3332.50           6583         126.00       541.42
   61.76        3332.75           6587         124.00       532.70
   61.79        3333.00           6591         131.00       563.22
   61.82        3333.25           6594         123.00       528.34
   61.85        3333.50           6598         123.00       528.34
   61.88        3333.75           6602         124.00       532.70
   61.90        3334.00           6606         127.00       545.78
   61.93        3334.25           6609         129.00       554.50
   61.96        3334.50           6613         137.00       589.37
   61.99        3334.75           6617         159.00       685.28
   62.02        3335.00           6620         159.00       685.28
   62.04        3335.25           6624         191.00       824.78
   62.07        3335.50           6628         247.00      1068.91
   62.10        3335.75           6631         335.00      1452.54
   62.13        3336.00           6635         443.00      1923.37
   62.16        3336.25           6639         512.00      2224.19
   62.18        3336.50           6643         650.00      2825.84
   62.21        3336.75           6646         957.00      4164.36
   62.24        3337.00           6650        3171.00     13820.14
   62.27        3337.25           6654        8678.00     37858.52
   62.30        3337.50           6657       13219.00     57702.90
   62.32        3337.75           6661       19480.00     85097.41
   62.35        3338.00           6665       26064.00    113947.40
   62.38        3338.25           6669       32244.00    141066.60
   62.41        3338.50           6672       37177.00    162741.20
   62.44        3338.75           6676       43304.00    189696.20
   62.46        3339.00           6680       49949.00    218972.90
   62.49        3339.25           6683       54768.00    240232.60
   62.52        3339.50           6687       61195.00    268622.90
   62.55        3339.75           6691       67363.00    295908.70
   62.58        3340.00           6694       72495.00    318641.20
   62.61        3340.25           6698       78837.00    346770.70
   62.63        3340.50           6702       84690.00    372768.00
   62.66        3340.75           6706       90442.00    398351.20
   62.69        3341.00           6709       95197.00    419526.00
   62.72        3341.25           6713      101110.00    445890.10
   62.75        3341.50           6717      106633.00    470548.30
   62.77        3341.75           6720      109599.00    483803.50
   62.80        3342.00           6724      111207.00    490993.60
   62.83        3342.25           6728      111195.00    490940.00
   62.86        3342.50           6732      109642.00    483995.70
   62.89        3342.75           6735      105157.00    463955.30
   62.91        3343.00           6739       99515.00    438774.90
   62.94        3343.25           6743       93126.00    410300.60
   62.97        3343.50           6746       87990.00    387441.30
   63.00        3343.75           6750       81602.00    359047.60
   63.03        3344.00           6754       75466.00    331813.70
   63.06        3344.25           6758       70073.00    307909.50
   63.08        3344.50           6761       65593.00    288074.60
   63.11        3344.75           6765       59660.00    261838.40
   63.14        3345.00           6769       53853.00    236194.10
   63.17        3345.25           6772       48994.00    214762.60
   63.20        3345.50           6776       42440.00    185892.80
   63.22        3345.75           6780       36733.00    160789.40
   63.25        3346.00           6784       30693.00    134256.90
   63.28        3346.25           6787       26088.00    114052.60
   63.31        3346.50           6791       19521.00     85276.92
   63.34        3346.75           6795       12763.00     55709.23
   63.37        3347.00           6798        8049.00     35111.38
   63.39        3347.25           6802        2992.00     13039.29
   63.42        3347.50           6806        1154.00      5023.32
   63.48        3347.75           6810         820.00      3567.03
   63.52        3348.00           6813         671.00      2917.40
   63.55        3348.25           6817         590.00      2564.25
   63.57        3348.50           6821         474.00      2058.52
   63.60        3348.75           6825         411.00      1783.87
   63.63        3349.00           6828         320.00      1387.15
   63.66        3349.25           6832         251.00      1086.34
   63.68        3349.50           6836         207.00       894.53
   63.71        3349.75           6839         150.00       646.04
   63.74        3350.00           6843         138.00       593.73
   63.77        3350.25           6847         149.00       641.68
   63.80        3350.50           6851         138.00       593.73
   63.82        3350.75           6854         124.00       532.70
   63.85        3351.00           6858         132.00       567.58
HL scan finished at 01:04:28
end
