************************************************************
  HL Scan of (1) Internal mercury lamp
************************************************************
Integration time is 0.2294 seconds per sample
dh270417Madrid 40.45 3.17 2.750537pr940
************************************************************
Dead Time -------------------------  2.6E-08 
Number of Cycles Used -------------  4 
Starting Wavelength (Angstroms) ---  3331 
Final Wavelength (Angstoms) -------  3351 
Wavelength Increment (Angstroms) --  .25 
Filter Wheel #1 Position ---------- (1) Ground quartz diffuser (ND=2.32)
Filter Wheel #2 Position ---------- 



************************************************************
HL scan start time = 00:57:47
Dark Count =  2.1 


Time (GMT)  Wavelength (Ang)  Step Number  Raw Counts  Counts/Second

   58.30        3331.00           6561         115.00       492.16
   58.52        3331.25           6565         115.00       492.16
   58.55        3331.50           6569         120.00       513.96
   58.58        3331.75           6572         112.00       479.08
   58.61        3332.00           6576         105.00       448.57
   58.63        3332.25           6580         119.00       509.60
   58.66        3332.50           6583         123.00       527.03
   58.69        3332.75           6587         123.00       527.03
   58.72        3333.00           6591         127.00       544.47
   58.75        3333.25           6594         137.00       588.06
   58.77        3333.50           6598         125.00       535.75
   58.80        3333.75           6602         130.00       557.55
   58.83        3334.00           6606         132.00       566.27
   58.86        3334.25           6609         136.00       583.71
   58.89        3334.50           6613         143.00       614.22
   58.91        3334.75           6617         142.00       609.86
   58.94        3335.00           6620         185.00       797.31
   58.97        3335.25           6624         212.00       915.02
   59.00        3335.50           6628         266.00      1150.43
   59.03        3335.75           6631         341.00      1477.39
   59.05        3336.00           6635         450.00      1952.58
   59.09        3336.25           6639         546.00      2371.11
   59.13        3336.50           6643         694.00      3016.37
   59.17        3336.75           6646        1351.00      5881.02
   59.20        3337.00           6650        4968.00     21659.54
   59.23        3337.25           6654       10855.00     47368.25
   59.25        3337.50           6657       15385.00     67174.33
   59.28        3337.75           6661       21770.00     95125.56
   59.31        3338.00           6665       28124.00    122981.50
   59.34        3338.25           6669       34586.00    151352.50
   59.37        3338.50           6672       39157.00    171446.50
   59.40        3338.75           6676       45201.00    198048.10
   59.42        3339.00           6680       51316.00    224999.90
   59.45        3339.25           6683       56130.00    246244.10
   59.48        3339.50           6687       63164.00    277327.70
   59.51        3339.75           6691       70770.00    310995.80
   59.54        3340.00           6694       75943.00    333928.10
   59.57        3340.25           6698       81940.00    360547.60
   59.61        3340.50           6702       88243.00    388565.40
   59.64        3340.75           6706       93869.00    413608.50
   59.67        3341.00           6709       98660.00    434960.60
   59.70        3341.25           6713      104242.00    459868.10
   59.73        3341.50           6717      110100.00    486042.10
   59.76        3341.75           6720      112792.00    498082.20
   59.78        3342.00           6724      113069.00    499321.50
   59.81        3342.25           6728      112624.00    497330.60
   59.84        3342.50           6732      108631.00    479475.10
   59.87        3342.75           6735      104065.00    459077.80
   59.90        3343.00           6739       97858.00    431384.70
   59.92        3343.25           6743       92470.00    407378.00
   59.95        3343.50           6746       88185.00    388307.30
   59.98        3343.75           6750       82105.00    361280.50
   60.01        3344.00           6754       75729.00    332978.80
   60.04        3344.25           6758       69296.00    304466.50
   60.06        3344.50           6761       64243.00    282100.30
   60.09        3344.75           6765       57751.00    253403.00
   60.12        3345.00           6769       51614.00    226314.30
   60.15        3345.25           6772       47557.00    208427.70
   60.18        3345.50           6776       41856.00    183321.10
   60.21        3345.75           6780       35527.00    155487.40
   60.23        3346.00           6784       29160.00    127527.20
   60.26        3346.25           6787       24422.00    106747.00
   60.29        3346.50           6791       17264.00     75395.69
   60.32        3346.75           6795       10974.00     47888.28
   60.35        3347.00           6798        6635.00     28935.89
   60.37        3347.25           6802        2522.00     10987.88
   60.40        3347.50           6806        1092.00      4751.68
   60.43        3347.75           6810         820.00      3565.72
   60.46        3348.00           6813         710.00      3086.12
   60.49        3348.25           6817         618.00      2685.02
   60.51        3348.50           6821         494.00      2144.41
   60.54        3348.75           6825         427.00      1852.31
   60.57        3349.00           6828         326.00      1412.00
   60.60        3349.25           6832         262.00      1132.99
   60.63        3349.50           6836         183.00       788.60
   60.65        3349.75           6839         149.00       640.38
   60.68        3350.00           6843         148.00       636.02
   60.71        3350.25           6847         124.00       531.39
   60.74        3350.50           6851         140.00       601.14
   60.77        3350.75           6854         137.00       588.06
   60.79        3351.00           6858         138.00       592.42
HL scan finished at 01:01:24
end
