************************************************************
  HL Scan of (1) Internal mercury lamp
************************************************************
Integration time is 0.2294 seconds per sample
dh200417Madrid 40.45 3.17 2.750537pr940
************************************************************
Dead Time -------------------------  2.6E-08 
Number of Cycles Used -------------  4 
Starting Wavelength (Angstroms) ---  3331 
Final Wavelength (Angstoms) -------  3351 
Wavelength Increment (Angstroms) --  .25 
Filter Wheel #1 Position ---------- (1) Ground quartz diffuser (ND=2.32)
Filter Wheel #2 Position ---------- 



************************************************************
HL scan start time = 00:59:00
Dark Count =  2 


Time (GMT)  Wavelength (Ang)  Step Number  Raw Counts  Counts/Second

   59.52        3331.00           6561         113.00       483.88
   59.73        3331.25           6565         104.00       444.64
   59.76        3331.50           6569         109.00       466.44
   59.79        3331.75           6572         119.00       510.03
   59.82        3332.00           6576         119.00       510.03
   59.85        3332.25           6580         120.00       514.39
   59.87        3332.50           6583         126.00       540.55
   59.90        3332.75           6587         119.00       510.03
   59.93        3333.00           6591         130.00       557.99
   59.96        3333.25           6594         135.00       579.78
   59.99        3333.50           6598         114.00       488.24
   60.01        3333.75           6602         124.00       531.83
   60.04        3334.00           6606         142.00       610.30
   60.07        3334.25           6609         144.00       619.02
   60.10        3334.50           6613         143.00       614.66
   60.13        3334.75           6617         156.00       671.33
   60.15        3335.00           6620         152.00       653.89
   60.18        3335.25           6624         197.00       850.06
   60.21        3335.50           6628         268.00      1159.58
   60.24        3335.75           6631         353.00      1530.14
   60.27        3336.00           6635         447.00      1939.94
   60.29        3336.25           6639         523.00      2271.28
   60.32        3336.50           6643         685.00      2977.56
   60.35        3336.75           6646        1167.00      5079.14
   60.38        3337.00           6650        3891.00     16960.40
   60.41        3337.25           6654        9892.00     43160.88
   60.43        3337.50           6657       14257.00     62241.01
   60.46        3337.75           6661       20084.00     87741.35
   60.49        3338.00           6665       26734.00    116884.80
   60.52        3338.25           6669       33047.00    144592.30
   60.55        3338.50           6672       38182.00    167159.10
   60.58        3338.75           6676       44590.00    195357.70
   60.60        3339.00           6680       51072.00    223924.20
   60.63        3339.25           6683       56024.00    245776.50
   60.66        3339.50           6687       62781.00    275634.40
   60.69        3339.75           6691       68508.00    300977.30
   60.72        3340.00           6694       73260.00    322031.20
   60.74        3340.25           6698       79956.00    351737.40
   60.77        3340.50           6702       85611.00    376861.20
   60.80        3340.75           6706       91650.00    403727.50
   60.83        3341.00           6709       96005.00    423125.50
   60.86        3341.25           6713      102063.00    450141.70
   60.88        3341.50           6717      107751.00    475542.70
   60.91        3341.75           6720      110609.00    488318.50
   60.94        3342.00           6724      111323.00    491511.50
   60.97        3342.25           6728      111088.00    490460.50
   61.00        3342.50           6732      108879.00    480584.10
   61.02        3342.75           6735      104116.00    459306.00
   61.05        3343.00           6739       98406.00    433828.40
   61.08        3343.25           6743       92147.00    405940.30
   61.11        3343.50           6746       86902.00    382601.40
   61.14        3343.75           6750       80191.00    352780.80
   61.17        3344.00           6754       74498.00    327520.00
   61.19        3344.25           6758       68897.00    302699.90
   61.22        3344.50           6761       64750.00    284343.70
   61.25        3344.75           6765       58402.00    256279.20
   61.28        3345.00           6769       52388.00    229729.00
   61.31        3345.25           6772       47959.00    210199.70
   61.34        3345.50           6776       41870.00    183383.20
   61.36        3345.75           6780       35576.00    155703.20
   61.39        3346.00           6784       29507.00    129050.40
   61.42        3346.25           6787       24811.00    108452.70
   61.45        3346.50           6791       18127.00     79173.28
   61.48        3346.75           6795       11745.00     51258.33
   61.50        3347.00           6798        7497.00     32699.98
   61.53        3347.25           6802        2835.00     12353.58
   61.56        3347.50           6806        1100.00      4787.00
   61.59        3347.75           6810         806.00      3505.11
   61.62        3348.00           6813         672.00      2920.88
   61.64        3348.25           6817         582.00      2528.50
   61.67        3348.50           6821         488.00      2118.69
   61.70        3348.75           6825         384.00      1665.29
   61.73        3349.00           6828         319.00      1381.92
   61.76        3349.25           6832         245.00      1059.31
   61.78        3349.50           6836         194.00       836.98
   61.81        3349.75           6839         156.00       671.33
   61.84        3350.00           6843         139.00       597.22
   61.87        3350.25           6847         145.00       623.38
   61.90        3350.50           6851         131.00       562.34
   61.92        3350.75           6854         124.00       531.83
   61.95        3351.00           6858         124.00       531.83
HL scan finished at 01:02:34
end
