************************************************************
  HL Scan of (1) Internal mercury lamp
************************************************************
Integration time is 0.2294 seconds per sample
dh040517Madrid 40.45 3.17 2.857833pr940
************************************************************
Dead Time -------------------------  2.6E-08 
Number of Cycles Used -------------  4 
Starting Wavelength (Angstroms) ---  3331 
Final Wavelength (Angstoms) -------  3351 
Wavelength Increment (Angstroms) --  .25 
Filter Wheel #1 Position ---------- (1) Ground quartz diffuser (ND=2.32)
Filter Wheel #2 Position ---------- 



************************************************************
HL scan start time = 00:56:45
Dark Count =  2.7 


Time (GMT)  Wavelength (Ang)  Step Number  Raw Counts  Counts/Second

   57.27        3331.00           6561         109.00       463.39
   57.48        3331.25           6565         123.00       524.42
   57.51        3331.50           6569         123.00       524.42
   57.54        3331.75           6572         113.00       480.83
   57.57        3332.00           6576         125.00       533.14
   57.60        3332.25           6580         126.00       537.50
   57.62        3332.50           6583         127.00       541.86
   57.65        3332.75           6587         121.00       515.70
   57.68        3333.00           6591         118.00       502.62
   57.71        3333.25           6594         126.00       537.50
   57.73        3333.50           6598         124.00       528.78
   57.76        3333.75           6602         135.00       576.73
   57.79        3334.00           6606         143.00       611.61
   57.82        3334.25           6609         144.00       615.96
   57.85        3334.50           6613         130.00       554.93
   57.87        3334.75           6617         150.00       642.12
   57.90        3335.00           6620         159.00       681.35
   57.93        3335.25           6624         186.00       799.06
   57.96        3335.50           6628         250.00      1078.06
   57.99        3335.75           6631         349.00      1509.65
   58.01        3336.00           6635         446.00      1932.53
   58.04        3336.25           6639         526.00      2281.30
   58.07        3336.50           6643         684.00      2970.15
   58.10        3336.75           6646        1074.00      4670.58
   58.13        3337.00           6650        4102.00     17877.97
   58.15        3337.25           6654       10577.00     46150.82
   58.18        3337.50           6657       15334.00     66948.60
   58.21        3337.75           6661       21625.00     94487.72
   58.24        3338.00           6665       28672.00    125383.20
   58.26        3338.25           6669       34866.00    152580.10
   58.29        3338.50           6672       39376.00    172407.10
   58.32        3338.75           6676       45831.00    200820.50
   58.35        3339.00           6680       52493.00    230189.20
   58.38        3339.25           6683       57486.00    252229.80
   58.41        3339.50           6687       63572.00    279129.60
   58.43        3339.75           6691       69789.00    306647.40
   58.46        3340.00           6694       74917.00    329374.90
   58.49        3340.25           6698       81725.00    359590.00
   58.52        3340.50           6702       88660.00    390417.80
   58.54        3340.75           6706       94247.00    415289.50
   58.57        3341.00           6709       98797.00    435568.80
   58.60        3341.25           6713      105420.00    465125.90
   58.63        3341.50           6717      110621.00    488369.00
   58.66        3341.75           6720      113393.00    500768.50
   58.68        3342.00           6724      113980.00    503395.30
   58.71        3342.25           6728      114104.00    503950.20
   58.74        3342.50           6732      110174.00    486370.30
   58.77        3342.75           6735      105029.00    463379.70
   58.80        3343.00           6739       98902.00    436037.10
   58.82        3343.25           6743       93135.00    410336.60
   58.85        3343.50           6746       88217.00    388447.00
   58.88        3343.75           6750       81882.00    360287.30
   58.91        3344.00           6754       76305.00    335531.20
   58.94        3344.25           6758       68961.00    302980.20
   58.96        3344.50           6761       64199.00    281903.00
   58.99        3344.75           6765       58494.00    256682.50
   59.02        3345.00           6769       52971.00    232298.10
   59.05        3345.25           6772       48635.00    213176.10
   59.08        3345.50           6776       42823.00    187574.80
   59.11        3345.75           6780       36021.00    157655.80
   59.13        3346.00           6784       29804.00    130350.80
   59.16        3346.25           6787       24761.00    108230.50
   59.19        3346.50           6791       18292.00     79892.47
   59.22        3346.75           6795       12199.00     53239.73
   59.24        3347.00           6798        7509.00     32749.32
   59.27        3347.25           6802        2480.00     10802.07
   59.31        3347.50           6806        1063.00      4622.61
   59.34        3347.75           6810         805.00      3497.70
   59.37        3348.00           6813         686.00      2978.87
   59.40        3348.25           6817         616.00      2673.68
   59.43        3348.50           6821         505.00      2189.75
   59.45        3348.75           6825         410.00      1775.58
   59.48        3349.00           6828         308.00      1330.91
   59.51        3349.25           6832         243.00      1047.54
   59.54        3349.50           6836         197.00       847.01
   59.57        3349.75           6839         153.00       655.20
   59.59        3350.00           6843         146.00       624.68
   59.62        3350.25           6847         133.00       568.01
   59.65        3350.50           6851         134.00       572.37
   59.68        3350.75           6854         129.00       550.57
   59.71        3351.00           6858         132.00       563.65
HL scan finished at 01:00:19
end
