************************************************************
  HL Scan of (1) Internal mercury lamp
************************************************************
Integration time is 0.2294 seconds per sample
dh110517Madrid 40.45 3.17 2.750537pr940
************************************************************
Dead Time -------------------------  2.6E-08 
Number of Cycles Used -------------  4 
Starting Wavelength (Angstroms) ---  3331 
Final Wavelength (Angstoms) -------  3351 
Wavelength Increment (Angstroms) --  .25 
Filter Wheel #1 Position ---------- (1) Ground quartz diffuser (ND=2.32)
Filter Wheel #2 Position ---------- 



************************************************************
HL scan start time = 00:56:29
Dark Count =  1.9 


Time (GMT)  Wavelength (Ang)  Step Number  Raw Counts  Counts/Second

   57.00        3331.00           6561         115.00       493.03
   57.22        3331.25           6565         112.00       479.95
   57.25        3331.50           6569         114.00       488.67
   57.28        3331.75           6572         117.00       501.75
   57.30        3332.00           6576         106.00       453.80
   57.33        3332.25           6580         123.00       527.91
   57.36        3332.50           6583         118.00       506.11
   57.39        3332.75           6587         110.00       471.24
   57.42        3333.00           6591         127.00       545.34
   57.45        3333.25           6594         124.00       532.27
   57.47        3333.50           6598         134.00       575.86
   57.50        3333.75           6602         138.00       593.30
   57.53        3334.00           6606         140.00       602.01
   57.56        3334.25           6609         128.00       549.70
   57.58        3334.50           6613         127.00       545.34
   57.61        3334.75           6617         143.00       615.09
   57.64        3335.00           6620         151.00       649.97
   57.67        3335.25           6624         176.00       758.95
   57.70        3335.50           6628         216.00       933.33
   57.73        3335.75           6631         290.00      1255.93
   57.75        3336.00           6635         373.00      1617.77
   57.78        3336.25           6639         473.00      2053.73
   57.81        3336.50           6643         598.00      2598.69
   57.84        3336.75           6646         883.00      3841.27
   57.87        3337.00           6650        2741.00     11943.99
   57.89        3337.25           6654        7941.00     34639.29
   57.92        3337.50           6657       12440.00     54296.74
   57.95        3337.75           6661       18807.00     82150.43
   57.98        3338.00           6665       25010.00    109325.60
   58.01        3338.25           6669       31446.00    137562.20
   58.03        3338.50           6672       36472.00    159641.60
   58.06        3338.75           6676       42939.00    188088.90
   58.09        3339.00           6680       49211.00    215718.70
   58.12        3339.25           6683       54142.00    237469.10
   58.15        3339.50           6687       60055.00    263583.60
   58.18        3339.75           6691       66416.00    291716.40
   58.21        3340.00           6694       71674.00    315002.20
   58.23        3340.25           6698       77834.00    342318.80
   58.26        3340.50           6702       83159.00    365964.00
   58.29        3340.75           6706       89054.00    392174.30
   58.32        3341.00           6709       93820.00    413391.10
   58.35        3341.25           6713       99536.00    438868.20
   58.37        3341.50           6717      105123.00    463803.10
   58.40        3341.75           6720      108245.00    477750.80
   58.43        3342.00           6724      110391.00    487344.10
   58.46        3342.25           6728      109861.00    484974.40
   58.49        3342.50           6732      108434.00    478595.50
   58.51        3342.75           6735      104127.00    459355.50
   58.54        3343.00           6739       97967.00    431871.50
   58.57        3343.25           6743       91725.00    404061.90
   58.60        3343.50           6746       87050.00    383260.00
   58.63        3343.75           6750       80523.00    354255.40
   58.65        3344.00           6754       75583.00    332332.20
   58.68        3344.25           6758       69980.00    307497.00
   58.71        3344.50           6761       65276.00    286671.50
   58.74        3344.75           6765       59577.00    261471.20
   58.77        3345.00           6769       53310.00    233797.50
   58.80        3345.25           6772       48177.00    211161.00
   58.82        3345.50           6776       42362.00    185549.10
   58.85        3345.75           6780       36723.00    160745.00
   58.88        3346.00           6784       30604.00    133865.70
   58.91        3346.25           6787       25846.00    112991.00
   58.94        3346.50           6791       18956.00     82802.75
   58.97        3346.75           6795       12819.00     55953.62
   58.99        3347.00           6798        8550.00     37299.01
   59.02        3347.25           6802        3638.00     15857.02
   59.05        3347.50           6806        1303.00      5672.59
   59.08        3347.75           6810         853.00      3710.47
   59.11        3348.00           6813         734.00      3191.63
   59.13        3348.25           6817         608.00      2642.29
   59.16        3348.50           6821         516.00      2241.19
   59.19        3348.75           6825         424.00      1840.11
   59.22        3349.00           6828         317.00      1373.63
   59.25        3349.25           6832         280.00      1212.33
   59.27        3349.50           6836         212.00       915.89
   59.30        3349.75           6839         171.00       737.15
   59.34        3350.00           6843         143.00       615.09
   59.37        3350.25           6847         141.00       606.37
   59.40        3350.50           6851         130.00       558.42
   59.43        3350.75           6854         125.00       536.62
   59.46        3351.00           6858         117.00       501.75
HL scan finished at 01:00:04
end
