************************************************************
  HL Scan of (1) Internal mercury lamp
************************************************************
Integration time is 0.2294 seconds per sample
dh180517Madrid 40.45 3.17 2.804185pr940
************************************************************
Dead Time -------------------------  2.6E-08 
Number of Cycles Used -------------  4 
Starting Wavelength (Angstroms) ---  3331 
Final Wavelength (Angstoms) -------  3351 
Wavelength Increment (Angstroms) --  .25 
Filter Wheel #1 Position ---------- (1) Ground quartz diffuser (ND=2.32)
Filter Wheel #2 Position ---------- 



************************************************************
HL scan start time = 00:56:34
Dark Count =  1.7 


Time (GMT)  Wavelength (Ang)  Step Number  Raw Counts  Counts/Second

   57.08        3331.00           6561         112.00       480.83
   57.30        3331.25           6565         119.00       511.34
   57.33        3331.50           6569         115.00       493.90
   57.36        3331.75           6572         113.00       485.18
   57.38        3332.00           6576         122.00       524.42
   57.41        3332.25           6580         118.00       506.98
   57.44        3332.50           6583         125.00       537.50
   57.47        3332.75           6587         120.00       515.70
   57.50        3333.00           6591         124.00       533.14
   57.52        3333.25           6594         122.00       524.42
   57.55        3333.50           6598         133.00       572.37
   57.58        3333.75           6602         121.00       520.06
   57.61        3334.00           6606         127.00       546.22
   57.64        3334.25           6609         136.00       585.45
   57.66        3334.50           6613         141.00       607.25
   57.69        3334.75           6617         149.00       642.12
   57.72        3335.00           6620         161.00       694.43
   57.75        3335.25           6624         180.00       777.26
   57.78        3335.50           6628         250.00      1082.42
   57.80        3335.75           6631         342.00      1483.49
   57.83        3336.00           6635         451.00      1958.69
   57.86        3336.25           6639         525.00      2281.30
   57.89        3336.50           6643         630.00      2739.08
   57.92        3336.75           6646         960.00      4177.87
   57.94        3337.00           6650        3150.00     13728.96
   57.97        3337.25           6654        9858.00     43013.64
   58.00        3337.50           6657       14532.00     63445.03
   58.03        3337.75           6661       20985.00     91688.68
   58.06        3338.00           6665       27066.00    118342.20
   58.08        3338.25           6669       33319.00    145788.30
   58.11        3338.50           6672       37927.00    166039.10
   58.14        3338.75           6676       43920.00    192408.70
   58.17        3339.00           6680       50736.00    222443.70
   58.20        3339.25           6683       55238.00    242307.70
   58.22        3339.50           6687       61303.00    269100.70
   58.25        3339.75           6691       68002.00    298738.10
   58.28        3340.00           6694       73146.00    321527.10
   58.31        3340.25           6698       79565.00    350002.80
   58.34        3340.50           6702       85696.00    377240.40
   58.37        3340.75           6706       91180.00    401636.50
   58.39        3341.00           6709       95900.00    422658.90
   58.42        3341.25           6713      102108.00    450343.90
   58.45        3341.50           6717      107623.00    474972.00
   58.48        3341.75           6720      110513.00    487890.60
   58.51        3342.00           6724      111974.00    494424.60
   58.53        3342.25           6728      111740.00    493378.00
   58.56        3342.50           6732      108528.00    479016.60
   58.59        3342.75           6735      104100.00    459235.80
   58.62        3343.00           6739       98391.00    433762.90
   58.65        3343.25           6743       92218.00    406257.70
   58.68        3343.50           6746       87616.00    385778.20
   58.70        3343.75           6750       81286.00    357644.60
   58.73        3344.00           6754       74611.00    328022.40
   58.76        3344.25           6758       68656.00    301634.00
   58.79        3344.50           6761       64611.00    283730.10
   58.81        3344.75           6765       59153.00    259598.50
   58.84        3345.00           6769       53478.00    234539.70
   58.87        3345.25           6772       48753.00    213700.70
   58.90        3345.50           6776       42687.00    186980.50
   58.93        3345.75           6780       36581.00    160121.70
   58.95        3346.00           6784       30031.00    131351.50
   58.98        3346.25           6787       25112.00    109773.60
   59.01        3346.50           6791       19115.00     83499.75
   59.04        3346.75           6795       12675.00     55324.95
   59.07        3347.00           6798        7687.00     33530.96
   59.09        3347.25           6802        2758.00     12019.01
   59.12        3347.50           6806        1076.00      4683.66
   59.15        3347.75           6810         778.00      3384.34
   59.18        3348.00           6813         649.00      2821.92
   59.21        3348.25           6817         591.00      2569.05
   59.23        3348.50           6821         502.00      2181.03
   59.27        3348.75           6825         367.00      1592.48
   59.30        3349.00           6828         301.00      1304.75
   59.33        3349.25           6832         248.00      1073.70
   59.35        3349.50           6836         203.00       877.53
   59.38        3349.75           6839         148.00       637.76
   59.41        3350.00           6843         149.00       642.12
   59.44        3350.25           6847         139.00       598.53
   59.47        3350.50           6851         131.00       563.65
   59.50        3350.75           6854         132.00       568.01
   59.52        3351.00           6858         123.00       528.78
HL scan finished at 01:00:08
end
