************************************************************
  HL Scan of (1) Internal mercury lamp
************************************************************
Integration time is 0.2294 seconds per sample
dh250517Madrid 40.45 3.17 3.126073pr940
************************************************************
Dead Time -------------------------  2.6E-08 
Number of Cycles Used -------------  4 
Starting Wavelength (Angstroms) ---  3331 
Final Wavelength (Angstoms) -------  3351 
Wavelength Increment (Angstroms) --  .25 
Filter Wheel #1 Position ---------- (1) Ground quartz diffuser (ND=2.32)
Filter Wheel #2 Position ---------- 



************************************************************
HL scan start time = 00:57:07
Dark Count =  1.7 


Time (GMT)  Wavelength (Ang)  Step Number  Raw Counts  Counts/Second

   57.64        3331.00           6561         122.00       524.42
   57.86        3331.25           6565         128.00       550.57
   57.88        3331.50           6569         126.00       541.86
   57.91        3331.75           6572         124.00       533.14
   57.94        3332.00           6576         123.00       528.78
   57.97        3332.25           6580         121.00       520.06
   57.99        3332.50           6583         137.00       589.81
   58.02        3332.75           6587         134.00       576.73
   58.05        3333.00           6591         127.00       546.22
   58.08        3333.25           6594         130.00       559.29
   58.11        3333.50           6598         131.00       563.65
   58.14        3333.75           6602         142.00       611.61
   58.16        3334.00           6606         141.00       607.25
   58.19        3334.25           6609         135.00       581.09
   58.22        3334.50           6613         158.00       681.35
   58.25        3334.75           6617         174.00       751.10
   58.28        3335.00           6620         200.00       864.45
   58.30        3335.25           6624         220.00       951.64
   58.33        3335.50           6628         284.00      1230.64
   58.36        3335.75           6631         384.00      1666.59
   58.39        3336.00           6635         480.00      2085.12
   58.41        3336.25           6639         578.00      2512.37
   58.44        3336.50           6643         738.00      3209.95
   58.47        3336.75           6646        1255.00      5464.16
   58.50        3337.00           6650        4596.00     20037.90
   58.53        3337.25           6654       11690.00     51019.25
   58.56        3337.50           6657       17219.00     75200.52
   58.58        3337.75           6661       23616.00    103216.00
   58.61        3338.00           6665       29696.00    129881.20
   58.64        3338.25           6669       36025.00    157677.80
   58.67        3338.50           6672       41468.00    181615.40
   58.70        3338.75           6676       48553.00    212819.10
   58.72        3339.00           6680       55589.00    243857.30
   58.75        3339.25           6683       60970.00    267628.70
   58.78        3339.50           6687       68611.00    301434.70
   58.81        3339.75           6691       75122.00    330288.50
   58.84        3340.00           6694       79967.00    351787.50
   58.87        3340.25           6698       86784.00    382078.00
   58.89        3340.50           6702       94215.00    415151.50
   58.92        3340.75           6706      100951.00    445181.20
   58.95        3341.00           6709      106106.00    468194.50
   58.98        3341.25           6713      112239.00    495610.00
   59.01        3341.50           6717      117766.00    520350.40
   59.03        3341.75           6720      120872.00    534267.80
   59.06        3342.00           6724      121562.00    537360.90
   59.09        3342.25           6728      121049.00    535061.10
   59.12        3342.50           6732      116105.00    512911.90
   59.15        3342.75           6735      111333.00    491557.60
   59.18        3343.00           6739      105539.00    465661.90
   59.20        3343.25           6743       98702.00    435149.70
   59.23        3343.50           6746       93598.00    412403.20
   59.26        3343.75           6750       86498.00    380806.30
   59.29        3344.00           6754       80159.00    352640.00
   59.32        3344.25           6758       73784.00    324355.50
   59.34        3344.50           6761       69032.00    303299.10
   59.37        3344.75           6765       62649.00    275052.00
   59.40        3345.00           6769       56557.00    248131.40
   59.43        3345.25           6772       51379.00    225279.50
   59.46        3345.50           6776       44484.00    194892.20
   59.48        3345.75           6780       37199.00    162838.40
   59.51        3346.00           6784       30758.00    134542.60
   59.54        3346.25           6787       25863.00    113066.40
   59.57        3346.50           6791       18948.00     82768.61
   59.60        3346.75           6795       12498.00     54551.16
   59.62        3347.00           6798        7625.00     33260.22
   59.65        3347.25           6802        2741.00     11944.86
   59.68        3347.50           6806        1117.00      4862.43
   59.71        3347.75           6810         870.00      3785.46
   59.74        3348.00           6813         735.00      3196.87
   59.76        3348.25           6817         627.00      2726.00
   59.79        3348.50           6821         505.00      2194.11
   59.82        3348.75           6825         391.00      1697.11
   59.85        3349.00           6828         307.00      1330.91
   59.88        3349.25           6832         240.00      1038.82
   59.90        3349.50           6836         180.00       777.26
   59.93        3349.75           6839         164.00       707.51
   59.96        3350.00           6843         141.00       607.25
   59.99        3350.25           6847         134.00       576.73
   60.02        3350.50           6851         131.00       563.65
   60.04        3350.75           6854         134.00       576.73
   60.07        3351.00           6858         145.00       624.68
HL scan finished at 01:00:41
end
