************************************************************
  HL Scan of (1) Internal mercury lamp
************************************************************
Integration time is 0.2294 seconds per sample
dh310517El Arenosillo 37.1 6.73 3.072425pr1000
************************************************************
Dead Time -------------------------  2.6E-08 
Number of Cycles Used -------------  4 
Starting Wavelength (Angstroms) ---  3331 
Final Wavelength (Angstoms) -------  3351 
Wavelength Increment (Angstroms) --  .25 
Filter Wheel #1 Position ---------- (1) Ground quartz diffuser (ND=2.32)
Filter Wheel #2 Position ---------- 



************************************************************
HL scan start time = 21:56:20
Dark Count =  1.1 


Time (GMT)  Wavelength (Ang)  Step Number  Raw Counts  Counts/Second

 1316.85        3331.00           6561         101.00       435.49
 1317.07        3331.25           6565         109.00       470.36
 1317.10        3331.50           6569          99.00       426.77
 1317.12        3331.75           6572         112.00       483.44
 1317.15        3332.00           6576         114.00       492.16
 1317.18        3332.25           6580         124.00       535.75
 1317.21        3332.50           6583         112.00       483.44
 1317.23        3332.75           6587         112.00       483.44
 1317.26        3333.00           6591         111.00       479.08
 1317.30        3333.25           6594         119.00       513.96
 1317.32        3333.50           6598         135.00       583.71
 1317.35        3333.75           6602         123.00       531.39
 1317.38        3334.00           6606         128.00       553.19
 1317.41        3334.25           6609         135.00       583.71
 1317.44        3334.50           6613         156.00       675.25
 1317.46        3334.75           6617         178.00       771.16
 1317.49        3335.00           6620         190.00       823.47
 1317.52        3335.25           6624         232.00      1006.57
 1317.55        3335.50           6628         303.00      1316.09
 1317.57        3335.75           6631         390.00      1695.37
 1317.60        3336.00           6635         489.00      2126.97
 1317.63        3336.25           6639         560.00      2436.51
 1317.66        3336.50           6643         885.00      3853.48
 1317.69        3336.75           6646        2011.00      8763.55
 1317.71        3337.00           6650        7119.00     31053.40
 1317.74        3337.25           6654       13703.00     59822.28
 1317.77        3337.50           6657       18364.00     80214.63
 1317.80        3337.75           6661       24329.00    106343.80
 1317.83        3338.00           6665       30745.00    134488.20
 1317.85        3338.25           6669       37036.00    162124.40
 1317.88        3338.50           6672       41602.00    182207.70
 1317.91        3338.75           6676       48117.00    210900.00
 1317.94        3339.00           6680       53441.00    234379.00
 1317.97        3339.25           6683       57775.00    253513.40
 1317.99        3339.50           6687       63939.00    280760.00
 1318.02        3339.75           6691       70442.00    309547.10
 1318.05        3340.00           6694       74916.00    329377.60
 1318.08        3340.25           6698       81272.00    357585.10
 1318.11        3340.50           6702       87678.00    386056.60
 1318.13        3340.75           6706       93443.00    411715.50
 1318.16        3341.00           6709       97702.00    430693.60
 1318.19        3341.25           6713      103521.00    456653.50
 1318.22        3341.50           6717      108048.00    476873.90
 1318.25        3341.75           6720      109406.00    482943.80
 1318.28        3342.00           6724      109162.00    481853.10
 1318.30        3342.25           6728      106710.00    470895.40
 1318.33        3342.50           6732      101796.00    448954.20
 1318.36        3342.75           6735       97594.00    430212.20
 1318.39        3343.00           6739       91911.00    404893.50
 1318.42        3343.25           6743       86117.00    379114.80
 1318.44        3343.50           6746       81935.00    360529.90
 1318.47        3343.75           6750       75247.00    330845.50
 1318.50        3344.00           6754       69200.00    304045.80
 1318.53        3344.25           6758       63230.00    277624.00
 1318.56        3344.50           6761       58476.00    256610.00
 1318.58        3344.75           6765       52058.00    228277.20
 1318.61        3345.00           6769       45820.00    200779.00
 1318.64        3345.25           6772       41996.00    183941.70
 1318.67        3345.50           6776       36514.00    159829.80
 1318.70        3345.75           6780       30823.00    134830.60
 1318.72        3346.00           6784       24979.00    109193.20
 1318.75        3346.25           6787       20216.00     88323.34
 1318.78        3346.50           6791       13840.00     60421.35
 1318.81        3346.75           6795        7730.00     33721.36
 1318.83        3347.00           6798        3721.00     16222.62
 1318.86        3347.25           6802        1276.00      5558.34
 1318.89        3347.50           6806         808.00      3517.76
 1318.92        3347.75           6810         690.00      3003.29
 1318.95        3348.00           6813         575.00      2501.91
 1318.97        3348.25           6817         483.00      2100.81
 1319.00        3348.50           6821         406.00      1765.12
 1319.03        3348.75           6825         305.00      1324.81
 1319.06        3349.00           6828         242.00      1050.16
 1319.08        3349.25           6832         196.00       849.63
 1319.11        3349.50           6836         153.00       662.17
 1319.14        3349.75           6839         140.00       605.50
 1319.17        3350.00           6843         130.00       561.91
 1319.20        3350.25           6847         129.00       557.55
 1319.22        3350.50           6851         140.00       605.50
 1319.25        3350.75           6854         127.00       548.83
 1319.28        3351.00           6858         122.00       527.03
HL scan finished at 21:59:53
end
