************************************************************
  HL Scan of (1) Internal mercury lamp
************************************************************
Integration time is 0.2294 seconds per sample
dh080619Madrid 40.45 3.717 2.750537pr940
************************************************************
Dead Time -------------------------  3.1E-08 
Number of Cycles Used -------------  4 
Starting Wavelength (Angstroms) ---  3331 
Final Wavelength (Angstoms) -------  3351 
Wavelength Increment (Angstroms) --  .25 
Filter Wheel #1 Position ---------- (1) Ground quartz diffuser (ND=2.32)
Filter Wheel #2 Position ---------- 



************************************************************
HL scan start time = 00:59:48
Dark Count =  2.8 


Time (GMT)  Wavelength (Ang)  Step Number  Raw Counts  Counts/Second

   60.31        3331.00           6561          96.00       406.28
   60.53        3331.25           6565         106.00       449.88
   60.56        3331.50           6569          97.00       410.64
   60.58        3331.75           6572         105.00       445.52
   60.61        3332.00           6576         109.00       462.95
   60.64        3332.25           6580         104.00       441.16
   60.67        3332.50           6583         111.00       471.67
   60.69        3332.75           6587         127.00       541.42
   60.72        3333.00           6591         123.00       523.98
   60.75        3333.25           6594         112.00       476.03
   60.78        3333.50           6598         118.00       502.19
   60.81        3333.75           6602         121.00       515.27
   60.83        3334.00           6606         122.00       519.62
   60.86        3334.25           6609         117.00       497.83
   60.89        3334.50           6613         123.00       523.98
   60.92        3334.75           6617         147.00       628.61
   60.94        3335.00           6620         164.00       702.72
   60.97        3335.25           6624         219.00       942.49
   61.00        3335.50           6628         298.00      1286.89
   61.03        3335.75           6631         372.00      1609.50
   61.06        3336.00           6635         444.00      1923.39
   61.08        3336.25           6639         534.00      2315.77
   61.11        3336.50           6643         746.00      3240.08
   61.14        3336.75           6646        1377.00      5991.52
   61.17        3337.00           6650        4355.00     18983.27
   61.19        3337.25           6654        9008.00     39303.31
   61.22        3337.50           6657       12717.00     55519.19
   61.25        3337.75           6661       17739.00     77501.58
   61.28        3338.00           6665       22691.00     99206.99
   61.31        3338.25           6669       27471.00    120186.30
   61.34        3338.50           6672       31471.00    137763.20
   61.36        3338.75           6676       36712.00    160822.50
   61.39        3339.00           6680       42020.00    184210.20
   61.42        3339.25           6683       46029.00    201897.00
   61.45        3339.50           6687       51315.00    225247.40
   61.48        3339.75           6691       56642.00    248813.30
   61.50        3340.00           6694       60286.00    264953.70
   61.53        3340.25           6698       64506.00    283665.80
   61.56        3340.50           6702       68999.00    303612.30
   61.59        3340.75           6706       74267.00    327031.10
   61.62        3341.00           6709       78579.00    346225.40
   61.64        3341.25           6713       83657.00    368859.00
   61.67        3341.50           6717       88237.00    389300.40
   61.70        3341.75           6720       90749.00    400522.90
   61.73        3342.00           6724       91678.00    404675.30
   61.75        3342.25           6728       90671.00    400174.30
   61.78        3342.50           6732       87096.00    384205.50
   61.81        3342.75           6735       83501.00    368163.20
   61.84        3343.00           6739       78756.00    347013.80
   61.87        3343.25           6743       74289.00    327129.00
   61.90        3343.50           6746       70941.00    312241.50
   61.92        3343.75           6750       65689.00    288915.30
   61.95        3344.00           6754       60376.00    265352.50
   61.98        3344.25           6758       55302.00    242882.00
   62.01        3344.50           6761       51636.00    226666.50
   62.04        3344.75           6765       46771.00    205172.70
   62.06        3345.00           6769       41616.00    182428.90
   62.09        3345.25           6772       37618.00    164812.00
   62.12        3345.50           6776       32317.00    141483.20
   62.15        3345.75           6780       26934.00    117828.00
   62.17        3346.00           6784       21754.00     95097.72
   62.20        3346.25           6787       17875.00     78097.31
   62.23        3346.50           6791       12760.00     55707.28
   62.26        3346.75           6795        8134.00     35484.52
   62.29        3347.00           6798        4832.00     21065.19
   62.31        3347.25           6802        1589.00      6916.04
   62.34        3347.50           6806         758.00      3292.40
   62.37        3347.75           6810         579.00      2511.97
   62.40        3348.00           6813         485.00      2102.14
   62.43        3348.25           6817         418.00      1810.04
   62.45        3348.50           6821         334.00      1443.83
   62.48        3348.75           6825         255.00      1099.43
   62.51        3349.00           6828         220.00       946.85
   62.54        3349.25           6832         179.00       768.11
   62.56        3349.50           6836         152.00       650.41
   62.59        3349.75           6839         125.00       532.70
   62.62        3350.00           6843         118.00       502.19
   62.65        3350.25           6847         120.00       510.91
   62.68        3350.50           6851         119.00       506.55
   62.70        3350.75           6854         110.00       467.31
   62.73        3351.00           6858         112.00       476.03
HL scan finished at 01:03:20
end
