************************************************************
  HL Scan of (1) Internal mercury lamp
************************************************************
Integration time is 0.2294 seconds per sample
dh030617El Arenosillo 37.1 6.73 3.018777pr1000
************************************************************
Dead Time -------------------------  2.6E-08 
Number of Cycles Used -------------  4 
Starting Wavelength (Angstroms) ---  3331 
Final Wavelength (Angstoms) -------  3351 
Wavelength Increment (Angstroms) --  .25 
Filter Wheel #1 Position ---------- (1) Ground quartz diffuser (ND=2.32)
Filter Wheel #2 Position ---------- 



************************************************************
HL scan start time = 02:06:40
Dark Count =  12.9 


Time (GMT)  Wavelength (Ang)  Step Number  Raw Counts  Counts/Second

  127.18        3331.00           6561         156.00       623.81
  127.39        3331.25           6565         147.00       584.58
  127.42        3331.50           6569         159.00       636.89
  127.45        3331.75           6572         154.00       615.09
  127.48        3332.00           6576         153.00       610.73
  127.51        3332.25           6580         177.00       715.36
  127.53        3332.50           6583         157.00       628.17
  127.56        3332.75           6587         163.00       654.33
  127.59        3333.00           6591         171.00       689.20
  127.62        3333.25           6594         165.00       663.05
  127.65        3333.50           6598         176.00       711.00
  127.67        3333.75           6602         160.00       641.25
  127.70        3334.00           6606         176.00       711.00
  127.73        3334.25           6609         181.00       732.80
  127.76        3334.50           6613         221.00       907.17
  127.79        3334.75           6617         276.00      1146.94
  127.81        3335.00           6620         365.00      1534.93
  127.84        3335.25           6624         436.00      1844.47
  127.87        3335.50           6628         536.00      2280.43
  127.90        3335.75           6631         680.00      2908.24
  127.93        3336.00           6635         782.00      3352.95
  127.95        3336.25           6639         871.00      3740.99
  127.98        3336.50           6643         986.00      4242.40
  128.01        3336.75           6646        1617.00      6993.86
  128.04        3337.00           6650        5982.00     26038.11
  128.06        3337.25           6654       12929.00     56386.44
  128.09        3337.50           6657       17897.00     78118.83
  128.13        3337.75           6661       24856.00    108602.20
  128.16        3338.00           6665       31611.00    138238.40
  128.19        3338.25           6669       38534.00    168659.10
  128.21        3338.50           6672       42923.00    187970.00
  128.24        3338.75           6676       49371.00    216375.60
  128.27        3339.00           6680       56003.00    245635.70
  128.30        3339.25           6683       61044.00    267906.30
  128.33        3339.50           6687       67928.00    298361.00
  128.35        3339.75           6691       75300.00    331028.20
  128.38        3340.00           6694       80530.00    354237.60
  128.41        3340.25           6698       86481.00    380680.90
  128.44        3340.50           6702       92666.00    408202.70
  128.47        3340.75           6706       99314.00    437829.00
  128.50        3341.00           6709      104495.00    460949.60
  128.52        3341.25           6713      110868.00    489427.90
  128.55        3341.50           6717      117339.00    518387.80
  128.58        3341.75           6720      120625.00    533110.50
  128.61        3342.00           6724      122440.00    541247.40
  128.64        3342.25           6728      121781.00    538292.50
  128.66        3342.50           6732      119218.00    526805.10
  128.69        3342.75           6735      114352.00    505014.50
  128.72        3343.00           6739      107387.00    473867.50
  128.75        3343.25           6743      100225.00    441892.40
  128.78        3343.50           6746       95126.00    419160.10
  128.80        3343.75           6750       87957.00    387245.10
  128.83        3344.00           6754       81307.00    357688.10
  128.86        3344.25           6758       74351.00    326819.80
  128.89        3344.50           6761       68948.00    302877.50
  128.92        3344.75           6765       62169.00    272880.00
  128.94        3345.00           6769       55699.00    244293.50
  128.97        3345.25           6772       50986.00    223496.80
  129.00        3345.50           6776       44452.00    194702.00
  129.03        3345.75           6780       37624.00    164657.60
  129.06        3346.00           6784       30140.00    131780.80
  129.08        3346.25           6787       24655.00    107721.10
  129.11        3346.50           6791       17872.00     78009.41
  129.14        3346.75           6795       10613.00     46263.55
  129.17        3347.00           6798        5909.00     25719.46
  129.20        3347.25           6802        2052.00      8890.90
  129.22        3347.50           6806         837.00      3592.75
  129.25        3347.75           6810         651.00      2781.81
  129.28        3348.00           6813         500.00      2123.48
  129.31        3348.25           6817         447.00      1892.42
  129.34        3348.50           6821         336.00      1408.51
  129.36        3348.75           6825         281.00      1168.74
  129.39        3349.00           6828         222.00       911.53
  129.42        3349.25           6832         202.00       824.34
  129.45        3349.50           6836         192.00       780.75
  129.48        3349.75           6839         177.00       715.36
  129.50        3350.00           6843         188.00       763.31
  129.53        3350.25           6847         169.00       680.48
  129.56        3350.50           6851         185.00       750.23
  129.59        3350.75           6854         167.00       671.76
  129.61        3351.00           6858         164.00       658.69
HL scan finished at 02:10:13
end
