************************************************************
  HL Scan of (1) Internal mercury lamp
************************************************************
Integration time is 0.2294 seconds per sample
dh020617El Arenosillo 37.1 6.73 3.126073pr1000
************************************************************
Dead Time -------------------------  2.6E-08 
Number of Cycles Used -------------  4 
Starting Wavelength (Angstroms) ---  3331 
Final Wavelength (Angstoms) -------  3351 
Wavelength Increment (Angstroms) --  .25 
Filter Wheel #1 Position ---------- (1) Ground quartz diffuser (ND=2.32)
Filter Wheel #2 Position ---------- 



************************************************************
HL scan start time = 02:14:52
Dark Count =  7.3 


Time (GMT)  Wavelength (Ang)  Step Number  Raw Counts  Counts/Second

  135.37        3331.00           6561         182.00       761.57
  135.59        3331.25           6565         178.00       744.13
  135.62        3331.50           6569         189.00       792.08
  135.64        3331.75           6572         185.00       774.65
  135.67        3332.00           6576         173.00       722.33
  135.70        3332.25           6580         185.00       774.65
  135.73        3332.50           6583         186.00       779.00
  135.76        3332.75           6587         178.00       744.13
  135.78        3333.00           6591         190.00       796.44
  135.81        3333.25           6594         197.00       826.96
  135.84        3333.50           6598         181.00       757.21
  135.87        3333.75           6602         206.00       866.19
  135.90        3334.00           6606         210.00       883.63
  135.92        3334.25           6609         202.00       848.75
  135.95        3334.50           6613         227.00       957.74
  135.98        3334.75           6617         260.00      1101.60
  136.01        3335.00           6620         325.00      1384.97
  136.03        3335.25           6624         410.00      1755.53
  136.06        3335.50           6628         530.00      2278.69
  136.09        3335.75           6631         704.00      3037.29
  136.12        3336.00           6635         779.00      3364.29
  136.15        3336.25           6639         888.00      3839.53
  136.17        3336.50           6643        1177.00      5099.63
  136.20        3336.75           6646        2077.00      9024.35
  136.23        3337.00           6650        7678.00     33467.21
  136.26        3337.25           6654       15575.00     67982.75
  136.29        3337.50           6657       21438.00     93648.41
  136.31        3337.75           6661       29371.00    128430.30
  136.34        3338.00           6665       37034.00    162088.40
  136.37        3338.25           6669       45033.00    197285.30
  136.40        3338.50           6672       51764.00    226953.00
  136.43        3338.75           6676       60036.00    263475.70
  136.46        3339.00           6680       68483.00    300843.10
  136.49        3339.25           6683       74021.00    325381.50
  136.51        3339.50           6687       82456.00    362816.70
  136.54        3339.75           6691       90647.00    399239.20
  136.57        3340.00           6694       96445.00    425062.80
  136.60        3340.25           6698      103483.00    456456.30
  136.63        3340.50           6702      112775.00    497982.90
  136.66        3340.75           6706      121293.00    536129.90
  136.68        3341.00           6709      126176.00    558032.30
  136.71        3341.25           6713      133682.00    591749.20
  136.74        3341.50           6717      140831.00    623918.00
  136.77        3341.75           6720      145132.00    643297.50
  136.79        3342.00           6724      147313.00    653132.30
  136.82        3342.25           6728      146880.00    651179.30
  136.85        3342.50           6732      143549.00    636162.40
  136.88        3342.75           6735      137448.00    608688.50
  136.91        3343.00           6739      128944.00    570459.30
  136.94        3343.25           6743      120641.00    533207.30
  136.96        3343.50           6746      114996.00    507922.00
  136.99        3343.75           6750      107047.00    472373.40
  137.02        3344.00           6754       98914.00    436070.10
  137.05        3344.25           6758       91375.00    402479.70
  137.08        3344.50           6761       85153.00    374801.60
  137.10        3344.75           6765       76307.00    335519.70
  137.13        3345.00           6769       68495.00    300896.30
  137.16        3345.25           6772       63088.00    276968.60
  137.19        3345.50           6776       54141.00    237440.80
  137.22        3345.75           6780       45668.00    200082.20
  137.24        3346.00           6784       38511.00    168582.60
  137.27        3346.25           6787       31958.00    139786.50
  137.30        3346.50           6791       22879.00     99961.72
  137.33        3346.75           6795       14338.00     62572.07
  137.35        3347.00           6798        8475.00     36947.86
  137.38        3347.25           6802        3299.00     14354.53
  137.41        3347.50           6806        1227.00      5317.65
  137.44        3347.75           6810         902.00      3900.57
  137.47        3348.00           6813         776.00      3351.21
  137.49        3348.25           6817         632.00      2723.38
  137.52        3348.50           6821         494.00      2121.74
  137.55        3348.75           6825         383.00      1637.82
  137.58        3349.00           6828         280.00      1188.79
  137.61        3349.25           6832         237.00      1001.33
  137.63        3349.50           6836         214.00       901.07
  137.66        3349.75           6839         219.00       922.86
  137.69        3350.00           6843         216.00       909.79
  137.72        3350.25           6847         206.00       866.19
  137.75        3350.50           6851         214.00       901.07
  137.77        3350.75           6854         196.00       822.60
  137.80        3351.00           6858         198.00       831.32
HL scan finished at 02:18:25
end
************************************************************
  HL Scan of (1) Internal mercury lamp
************************************************************
Integration time is 0.2294 seconds per sample
dh020617El Arenosillo 37.1 6.73 3.126073pr1000
************************************************************
Dead Time -------------------------  2.6E-08 
Number of Cycles Used -------------  4 
Starting Wavelength (Angstroms) ---  3331 
Final Wavelength (Angstoms) -------  3351 
Wavelength Increment (Angstroms) --  .25 
Filter Wheel #1 Position ---------- (1) Ground quartz diffuser (ND=2.32)
Filter Wheel #2 Position ---------- 



************************************************************
HL scan start time = 21:53:54
Dark Count =  20 


Time (GMT)  Wavelength (Ang)  Step Number  Raw Counts  Counts/Second

 1314.40        3331.00           6561         162.00       619.02
 1314.62        3331.25           6565         155.00       588.50
 1314.65        3331.50           6569         169.00       649.53
 1314.68        3331.75           6572         164.00       627.73
 1314.71        3332.00           6576         158.00       601.58
 1314.73        3332.25           6580         166.00       636.45
 1314.76        3332.50           6583         168.00       645.17
 1314.79        3332.75           6587         172.00       662.61
 1314.82        3333.00           6591         170.00       653.89
 1314.85        3333.25           6594         178.00       688.77
 1314.87        3333.50           6598         173.00       666.97
 1314.90        3333.75           6602         187.00       728.00
 1314.93        3334.00           6606         188.00       732.36
 1314.96        3334.25           6609         200.00       784.67
 1314.99        3334.50           6613         206.00       810.83
 1315.01        3334.75           6617         212.00       836.98
 1315.04        3335.00           6620         264.00      1063.67
 1315.07        3335.25           6624         320.00      1307.80
 1315.10        3335.50           6628         408.00      1691.44
 1315.13        3335.75           6631         533.00      2236.40
 1315.15        3336.00           6635         675.00      2855.49
 1315.18        3336.25           6639         794.00      3374.32
 1315.21        3336.50           6643         963.00      4111.16
 1315.24        3336.75           6646        1692.00      7289.96
 1315.27        3337.00           6650        5571.00     24213.15
 1315.29        3337.25           6654       13076.00     56998.10
 1315.32        3337.50           6657       19139.00     83524.70
 1315.35        3337.75           6661       26299.00    114898.10
 1315.38        3338.00           6665       32740.00    143164.90
 1315.40        3338.25           6669       40019.00    175159.50
 1315.43        3338.50           6672       45457.00    199096.80
 1315.46        3338.75           6676       52483.00    230068.70
 1315.49        3339.00           6680       59989.00    263211.90
 1315.52        3339.25           6683       64974.00    285255.20
 1315.54        3339.50           6687       71731.00    315174.60
 1315.57        3339.75           6691       77929.00    342660.00
 1315.60        3340.00           6694       82815.00    364355.10
 1315.63        3340.25           6698       90143.00    396939.50
 1315.66        3340.50           6702       97835.00    431202.30
 1315.68        3340.75           6706      105334.00    464664.60
 1315.71        3341.00           6709      110399.00    487299.00
 1315.74        3341.25           6713      116218.00    513336.00
 1315.77        3341.50           6717      122068.00    539547.50
 1315.80        3341.75           6720      125841.00    556471.90
 1315.82        3342.00           6724      127752.00    565049.70
 1315.85        3342.25           6728      127551.00    564147.30
 1315.88        3342.50           6732      124550.00    550679.20
 1315.91        3342.75           6735      119350.00    527364.70
 1315.94        3343.00           6739      112195.00    495331.30
 1315.96        3343.25           6743      105628.00    465977.70
 1315.99        3343.50           6746      100635.00    443689.70
 1316.02        3343.75           6750       92854.00    409008.20
 1316.05        3344.00           6754       85479.00    376194.40
 1316.08        3344.25           6758       78028.00    343099.40
 1316.10        3344.50           6761       72625.00    319136.60
 1316.13        3344.75           6765       65632.00    288166.70
 1316.16        3345.00           6769       59064.00    259124.40
 1316.19        3345.25           6772       53566.00    234847.30
 1316.22        3345.50           6776       46133.00    202074.60
 1316.24        3345.75           6780       39077.00    171015.90
 1316.27        3346.00           6784       32505.00    142132.80
 1316.30        3346.25           6787       27488.00    120113.00
 1316.33        3346.50           6791       20215.00     88236.21
 1316.36        3346.75           6795       12331.00     53741.12
 1316.38        3347.00           6798        7097.00     30874.82
 1316.41        3347.25           6802        2643.00     11437.58
 1316.44        3347.50           6806        1127.00      4826.24
 1316.47        3347.75           6810         872.00      3714.40
 1316.50        3348.00           6813         712.00      3016.80
 1316.52        3348.25           6817         612.00      2580.82
 1316.55        3348.50           6821         484.00      2022.77
 1316.58        3348.75           6825         376.00      1551.94
 1316.61        3349.00           6828         300.00      1220.61
 1316.63        3349.25           6832         257.00      1033.16
 1316.66        3349.50           6836         234.00       932.89
 1316.69        3349.75           6839         202.00       793.39
 1316.72        3350.00           6843         188.00       732.36
 1316.75        3350.25           6847         208.00       819.55
 1316.77        3350.50           6851         191.00       745.44
 1316.80        3350.75           6854         184.00       714.92
 1316.83        3351.00           6858         188.00       732.36
HL scan finished at 21:57:26
end
