************************************************************
  HL Scan of (1) Internal mercury lamp
************************************************************
Integration time is 0.2294 seconds per sample
dh010617El Arenosillo 37.1 6.73 2.965129pr1000
************************************************************
Dead Time -------------------------  2.6E-08 
Number of Cycles Used -------------  4 
Starting Wavelength (Angstroms) ---  3331 
Final Wavelength (Angstoms) -------  3351 
Wavelength Increment (Angstroms) --  .25 
Filter Wheel #1 Position ---------- (1) Ground quartz diffuser (ND=2.32)
Filter Wheel #2 Position ---------- 



************************************************************
HL scan start time = 01:08:25
Dark Count =  1 


Time (GMT)  Wavelength (Ang)  Step Number  Raw Counts  Counts/Second

   68.93        3331.00           6561         114.00       492.60
   69.15        3331.25           6565         109.00       470.80
   69.18        3331.50           6569         121.00       523.11
   69.21        3331.75           6572         120.00       518.75
   69.23        3332.00           6576         120.00       518.75
   69.26        3332.25           6580         126.00       544.91
   69.29        3332.50           6583         124.00       536.19
   69.32        3332.75           6587         130.00       562.34
   69.34        3333.00           6591         122.00       527.47
   69.37        3333.25           6594         125.00       540.55
   69.40        3333.50           6598         129.00       557.99
   69.43        3333.75           6602         141.00       610.30
   69.46        3334.00           6606         139.00       601.58
   69.48        3334.25           6609         142.00       614.66
   69.51        3334.50           6613         144.00       623.38
   69.54        3334.75           6617         168.00       728.00
   69.57        3335.00           6620         191.00       828.27
   69.60        3335.25           6624         212.00       919.81
   69.62        3335.50           6628         292.00      1268.57
   69.65        3335.75           6631         373.00      1621.69
   69.68        3336.00           6635         487.00      2118.69
   69.71        3336.25           6639         596.00      2593.90
   69.73        3336.50           6643         791.00      3444.07
   69.76        3336.75           6646        1562.00      6805.91
   69.79        3337.00           6650        6088.00     26552.76
   69.82        3337.25           6654       12309.00     53728.01
   69.85        3337.50           6657       17307.00     75588.69
   69.87        3337.75           6661       23964.00    104744.30
   69.90        3338.00           6665       30633.00    133997.00
   69.93        3338.25           6669       38168.00    167101.90
   69.96        3338.50           6672       42625.00    186710.60
   69.99        3338.75           6676       49446.00    216758.70
   70.01        3339.00           6680       55666.00    244200.30
   70.04        3339.25           6683       61186.00    268586.60
   70.07        3339.50           6687       67449.00    296293.00
   70.10        3339.75           6691       73271.00    322084.40
   70.13        3340.00           6694       77908.00    342651.10
   70.15        3340.25           6698       84451.00    371709.30
   70.18        3340.50           6702       91198.00    401719.80
   70.21        3340.75           6706       97744.00    430881.30
   70.24        3341.00           6709      103017.00    454404.20
   70.26        3341.25           6713      110424.00    487495.70
   70.29        3341.50           6717      115349.00    509530.50
   70.32        3341.75           6720      116915.00    516542.20
   70.35        3342.00           6724      116960.00    516743.70
   70.38        3342.25           6728      115496.00    510188.50
   70.40        3342.50           6732      109876.00    485045.50
   70.43        3342.75           6735      105207.00    464182.20
   70.46        3343.00           6739       99482.00    438631.30
   70.49        3343.25           6743       92994.00    409716.30
   70.52        3343.50           6746       88169.00    388241.10
   70.54        3343.75           6750       82046.00    361023.30
   70.57        3344.00           6754       75933.00    333888.60
   70.60        3344.25           6758       68502.00    300955.20
   70.63        3344.50           6761       63372.00    278252.50
   70.66        3344.75           6765       56774.00    249092.80
   70.68        3345.00           6769       51008.00    223646.30
   70.71        3345.25           6772       46164.00    202294.90
   70.74        3345.50           6776       40017.00    175234.20
   70.77        3345.75           6780       33437.00    146309.60
   70.80        3346.00           6784       27685.00    121060.50
   70.82        3346.25           6787       23067.00    100813.20
   70.85        3346.50           6791       16398.00     71610.98
   70.88        3346.75           6795        9818.00     42841.94
   70.91        3347.00           6798        5622.00     24518.68
   70.94        3347.25           6802        1904.00      8297.34
   70.96        3347.50           6806         987.00      4298.65
   70.99        3347.75           6810         798.00      3474.59
   71.02        3348.00           6813         645.00      2807.53
   71.05        3348.25           6817         580.00      2524.14
   71.07        3348.50           6821         473.00      2057.65
   71.10        3348.75           6825         379.00      1647.85
   71.13        3349.00           6828         295.00      1281.65
   71.16        3349.25           6832         243.00      1054.95
   71.19        3349.50           6836         190.00       823.91
   71.21        3349.75           6839         163.00       706.20
   71.24        3350.00           6843         152.00       658.25
   71.27        3350.25           6847         134.00       579.78
   71.30        3350.50           6851         138.00       597.22
   71.33        3350.75           6854         136.00       588.50
   71.36        3351.00           6858         129.00       557.99
HL scan finished at 01:11:58
end
************************************************************
  HL Scan of (1) Internal mercury lamp
************************************************************
Integration time is 0.2294 seconds per sample
dh010617El Arenosillo 37.1 6.73 3.018777pr1000
************************************************************
Dead Time -------------------------  2.6E-08 
Number of Cycles Used -------------  4 
Starting Wavelength (Angstroms) ---  3331 
Final Wavelength (Angstoms) -------  3351 
Wavelength Increment (Angstroms) --  .25 
Filter Wheel #1 Position ---------- (1) Ground quartz diffuser (ND=2.32)
Filter Wheel #2 Position ---------- 



************************************************************
HL scan start time = 02:13:19
Dark Count =  2.2 


Time (GMT)  Wavelength (Ang)  Step Number  Raw Counts  Counts/Second

  133.82        3331.00           6561         114.00       487.36
  134.04        3331.25           6565         112.00       478.65
  134.07        3331.50           6569         110.00       469.93
  134.10        3331.75           6572         112.00       478.65
  134.13        3332.00           6576         118.00       504.80
  134.15        3332.25           6580         126.00       539.68
  134.18        3332.50           6583         120.00       513.52
  134.21        3332.75           6587         116.00       496.08
  134.24        3333.00           6591         109.00       465.57
  134.26        3333.25           6594         117.00       500.44
  134.29        3333.50           6598         124.00       530.96
  134.32        3333.75           6602         118.00       504.80
  134.35        3334.00           6606         126.00       539.68
  134.38        3334.25           6609         136.00       583.27
  134.40        3334.50           6613         143.00       613.78
  134.43        3334.75           6617         161.00       692.25
  134.46        3335.00           6620         177.00       762.00
  134.49        3335.25           6624         213.00       918.94
  134.52        3335.50           6628         289.00      1250.26
  134.54        3335.75           6631         368.00      1594.66
  134.57        3336.00           6635         491.00      2130.89
  134.60        3336.25           6639         534.00      2318.36
  134.63        3336.50           6643         808.00      3512.96
  134.65        3336.75           6646        1770.00      7707.73
  134.68        3337.00           6650        6792.00     29620.89
  134.71        3337.25           6654       12679.00     55340.25
  134.74        3337.50           6657       17200.00     75115.18
  134.77        3337.75           6661       23282.00    101750.10
  134.79        3338.00           6665       29594.00    129431.40
  134.82        3338.25           6669       35393.00    154898.10
  134.85        3338.50           6672       40075.00    175484.10
  134.88        3338.75           6676       46346.00    203091.40
  134.91        3339.00           6680       51537.00    225974.20
  134.93        3339.25           6683       55622.00    244000.80
  134.96        3339.50           6687       61605.00    270433.60
  134.99        3339.75           6691       67911.00    298333.00
  135.02        3340.00           6694       72466.00    318510.80
  135.05        3340.25           6698       78427.00    344949.10
  135.07        3340.50           6702       84747.00    373019.60
  135.10        3340.75           6706       90582.00    398972.50
  135.13        3341.00           6709       94381.00    415888.70
  135.16        3341.25           6713      100175.00    441717.10
  135.19        3341.50           6717      104913.00    462863.90
  135.21        3341.75           6720      106328.00    469184.00
  135.24        3342.00           6724      106505.00    469974.70
  135.27        3342.25           6728      104637.00    461631.40
  135.30        3342.50           6732       99249.00    437586.80
  135.33        3342.75           6735       95462.00    420704.90
  135.35        3343.00           6739       89805.00    395514.60
  135.38        3343.25           6743       84224.00    370695.10
  135.41        3343.50           6746       79684.00    350528.90
  135.44        3343.75           6750       73273.00    322087.90
  135.47        3344.00           6754       67943.00    298474.70
  135.49        3344.25           6758       62256.00    273312.00
  135.52        3344.50           6761       57421.00    251944.90
  135.55        3344.75           6765       51008.00    223641.00
  135.58        3345.00           6769       45202.00    198052.10
  135.61        3345.25           6772       41088.00    179941.00
  135.63        3345.50           6776       36077.00    157904.10
  135.66        3345.75           6780       30780.00    134637.00
  135.69        3346.00           6784       24989.00    109232.20
  135.72        3346.25           6787       20288.00     88633.84
  135.75        3346.50           6791       13746.00     60005.49
  135.77        3346.75           6795        7915.00     34524.44
  135.80        3347.00           6798        3999.00     17430.74
  135.83        3347.25           6802        1459.00      6351.53
  135.86        3347.50           6806         840.00      3652.48
  135.88        3347.75           6810         702.00      3050.81
  135.91        3348.00           6813         630.00      2736.90
  135.94        3348.25           6817         509.00      2209.37
  135.97        3348.50           6821         420.00      1821.36
  136.00        3348.75           6825         322.00      1394.12
  136.02        3349.00           6828         244.00      1054.08
  136.05        3349.25           6832         200.00       862.27
  136.08        3349.50           6836         160.00       687.89
  136.11        3349.75           6839         128.00       548.40
  136.13        3350.00           6843         133.00       570.19
  136.16        3350.25           6847         133.00       570.19
  136.19        3350.50           6851         130.00       557.11
  136.22        3350.75           6854         114.00       487.36
  136.25        3351.00           6858         119.00       509.16
HL scan finished at 02:16:51
end
************************************************************
  HL Scan of (1) Internal mercury lamp
************************************************************
Integration time is 0.2294 seconds per sample
dh010617El Arenosillo 37.1 6.73 3.608906pr1000
************************************************************
Dead Time -------------------------  2.6E-08 
Number of Cycles Used -------------  4 
Starting Wavelength (Angstroms) ---  3331 
Final Wavelength (Angstoms) -------  3351 
Wavelength Increment (Angstroms) --  .25 
Filter Wheel #1 Position ---------- (1) Ground quartz diffuser (ND=2.32)
Filter Wheel #2 Position ---------- 



************************************************************
HL scan start time = 12:32:10
Dark Count =  20.3 


Time (GMT)  Wavelength (Ang)  Step Number  Raw Counts  Counts/Second

  752.69        3331.00           6561         212.00       835.68
  752.90        3331.25           6565         209.00       822.60
  752.93        3331.50           6569         226.00       896.71
  752.96        3331.75           6572         207.00       813.88
  752.99        3332.00           6576         210.00       826.96
  753.02        3332.25           6580         218.00       861.83
  753.04        3332.50           6583         226.00       896.71
  753.07        3332.75           6587         225.00       892.35
  753.10        3333.00           6591         216.00       853.11
  753.13        3333.25           6594         226.00       896.71
  753.16        3333.50           6598         220.00       870.55
  753.18        3333.75           6602         243.00       970.82
  753.21        3334.00           6606         256.00      1027.49
  753.24        3334.25           6609         239.00       953.38
  753.27        3334.50           6613         257.00      1031.85
  753.30        3334.75           6617         288.00      1166.99
  753.32        3335.00           6620         307.00      1249.82
  753.35        3335.25           6624         323.00      1319.57
  753.38        3335.50           6628         427.00      1772.97
  753.41        3335.75           6631         527.00      2208.93
  753.43        3336.00           6635         708.00      2998.05
  753.46        3336.25           6639         870.00      3704.37
  753.49        3336.50           6643        1148.00      4916.50
  753.52        3336.75           6646        2207.00      9534.62
  753.54        3337.00           6650        6838.00     29742.70
  753.57        3337.25           6654       16620.00     72497.90
  753.60        3337.50           6657       24196.00    105676.60
  753.63        3337.75           6661       33268.00    145482.60
  753.66        3338.00           6665       43643.00    191107.20
  753.68        3338.25           6669       53886.00    236258.10
  753.71        3338.50           6672       61438.00    269615.30
  753.74        3338.75           6676       71227.00    312940.00
  753.77        3339.00           6680       81112.00    356789.20
  753.80        3339.25           6683       88377.00    389080.50
  753.82        3339.50           6687       97157.00    428178.50
  753.85        3339.75           6691      106356.00    469228.20
  753.88        3340.00           6694      112939.00    498658.40
  753.91        3340.25           6698      122191.00    540097.60
  753.94        3340.50           6702      131783.00    583154.80
  753.96        3340.75           6706      139710.00    618811.50
  753.99        3341.00           6709      146657.00    650115.00
  754.02        3341.25           6713      156530.00    694691.80
  754.05        3341.50           6717      165371.00    734697.60
  754.08        3341.75           6720      168787.00    750177.70
  754.11        3342.00           6724      169977.00    755573.30
  754.13        3342.25           6728      167967.00    746460.60
  754.16        3342.50           6732      161123.00    715464.70
  754.19        3342.75           6735      154765.00    686715.00
  754.22        3343.00           6739      146626.00    649975.20
  754.25        3343.25           6743      137265.00    607806.50
  754.27        3343.50           6746      131092.00    580049.80
  754.30        3343.75           6750      121222.00    535753.30
  754.33        3344.00           6754      111335.00    491483.30
  754.36        3344.25           6758      102212.00    450725.10
  754.39        3344.50           6761       95097.00    418998.00
  754.41        3344.75           6765       85949.00    378282.50
  754.44        3345.00           6769       75817.00    333288.50
  754.47        3345.25           6772       69212.00    304013.90
  754.50        3345.50           6776       58648.00    257285.10
  754.52        3345.75           6780       49122.00    215245.30
  754.55        3346.00           6784       41208.00    180389.40
  754.58        3346.25           6787       34527.00    151013.30
  754.61        3346.50           6791       25643.00    112020.20
  754.64        3346.75           6795       16378.00     71439.03
  754.66        3347.00           6798        9601.00     41809.60
  754.69        3347.25           6802        3693.00     16016.69
  754.72        3347.50           6806        1575.00      6778.44
  754.75        3347.75           6810        1248.00      5352.53
  754.78        3348.00           6813        1024.00      4375.82
  754.80        3348.25           6817         915.00      3900.57
  754.83        3348.50           6821         734.00      3111.41
  754.86        3348.75           6825         592.00      2492.32
  754.89        3349.00           6828         456.00      1899.40
  754.91        3349.25           6832         377.00      1554.99
  754.94        3349.50           6836         315.00      1284.70
  754.97        3349.75           6839         256.00      1027.49
  755.00        3350.00           6843         248.00       992.61
  755.03        3350.25           6847         252.00      1010.05
  755.05        3350.50           6851         245.00       979.54
  755.08        3350.75           6854         226.00       896.71
  755.11        3351.00           6858         249.00       996.97
HL scan finished at 12:35:43
end
************************************************************
  HL Scan of (1) Internal mercury lamp
************************************************************
Integration time is 0.2294 seconds per sample
dh010617El Arenosillo 37.1 6.73 3.179721pr1000
************************************************************
Dead Time -------------------------  2.6E-08 
Number of Cycles Used -------------  4 
Starting Wavelength (Angstroms) ---  3331 
Final Wavelength (Angstoms) -------  3351 
Wavelength Increment (Angstroms) --  .25 
Filter Wheel #1 Position ---------- (1) Ground quartz diffuser (ND=2.32)
Filter Wheel #2 Position ---------- 



************************************************************
HL scan start time = 21:53:57
Dark Count =  7.1 


Time (GMT)  Wavelength (Ang)  Step Number  Raw Counts  Counts/Second

 1314.45        3331.00           6561         177.00       740.64
 1314.67        3331.25           6565         175.00       731.92
 1314.70        3331.50           6569         183.00       766.80
 1314.73        3331.75           6572         182.00       762.44
 1314.76        3332.00           6576         196.00       823.47
 1314.79        3332.25           6580         175.00       731.92
 1314.81        3332.50           6583         206.00       867.06
 1314.84        3332.75           6587         182.00       762.44
 1314.87        3333.00           6591         202.00       849.63
 1314.90        3333.25           6594         203.00       853.99
 1314.92        3333.50           6598         204.00       858.35
 1314.95        3333.75           6602         216.00       910.66
 1314.98        3334.00           6606         214.00       901.94
 1315.01        3334.25           6609         217.00       915.02
 1315.04        3334.50           6613         234.00       989.13
 1315.06        3334.75           6617         286.00      1215.82
 1315.09        3335.00           6620         362.00      1547.14
 1315.12        3335.25           6624         432.00      1852.31
 1315.15        3335.50           6628         584.00      2514.99
 1315.17        3335.75           6631         713.00      3077.40
 1315.20        3336.00           6635         845.00      3652.92
 1315.23        3336.25           6639         993.00      4298.21
 1315.26        3336.50           6643        1245.00      5397.01
 1315.29        3336.75           6646        2605.00     11328.10
 1315.31        3337.00           6650        9865.00     43020.64
 1315.34        3337.25           6654       17835.00     77872.87
 1315.37        3337.50           6657       23699.00    103556.10
 1315.40        3337.75           6661       31670.00    138522.90
 1315.43        3338.00           6665       39695.00    173790.90
 1315.45        3338.25           6669       47819.00    209560.20
 1315.48        3338.50           6672       53617.00    235129.20
 1315.51        3338.75           6676       61689.00    270783.40
 1315.54        3339.00           6680       70372.00    309210.50
 1315.57        3339.25           6683       76534.00    336527.60
 1315.59        3339.50           6687       84338.00    371180.00
 1315.62        3339.75           6691       93372.00    411372.50
 1315.65        3340.00           6694      100174.00    441690.70
 1315.68        3340.25           6698      109080.00    481459.70
 1315.71        3340.50           6702      117149.00    517562.70
 1315.73        3340.75           6706      125223.00    553756.60
 1315.76        3341.00           6709      131059.00    579960.80
 1315.79        3341.25           6713      138255.00    612321.10
 1315.82        3341.50           6717      145706.00    645886.30
 1315.85        3341.75           6720      149857.00    664611.20
 1315.87        3342.00           6724      151969.00    674145.40
 1315.90        3342.25           6728      151365.00    671418.20
 1315.93        3342.50           6732      148003.00    656245.60
 1315.96        3342.75           6735      142279.00    630441.10
 1315.99        3343.00           6739      133204.00    589601.10
 1316.01        3343.25           6743      124631.00    551100.50
 1316.04        3343.50           6746      117921.00    521020.50
 1316.07        3343.75           6750      109591.00    483744.10
 1316.10        3344.00           6754      100647.00    443800.80
 1316.13        3344.25           6758       92472.00    407364.60
 1316.15        3344.50           6761       86803.00    382138.50
 1316.18        3344.75           6765       78521.00    345344.60
 1316.21        3345.00           6769       70035.00    307717.60
 1316.24        3345.25           6772       63714.00    279738.20
 1316.27        3345.50           6776       54705.00    239931.00
 1316.29        3345.75           6780       45483.00    199268.20
 1316.32        3346.00           6784       36854.00    161298.00
 1316.35        3346.25           6787       30345.00    132706.00
 1316.38        3346.50           6791       21332.00     93184.96
 1316.41        3346.75           6795       12704.00     55428.13
 1316.43        3347.00           6798        6930.00     30202.00
 1316.46        3347.25           6802        2023.00      8789.72
 1316.49        3347.50           6806        1093.00      4734.24
 1316.52        3347.75           6810         863.00      3731.40
 1316.55        3348.00           6813         680.00      2933.53
 1316.57        3348.25           6817         578.00      2488.83
 1316.60        3348.50           6821         436.00      1869.75
 1316.63        3348.75           6825         340.00      1451.23
 1316.66        3349.00           6828         261.00      1106.83
 1316.68        3349.25           6832         232.00       980.41
 1316.71        3349.50           6836         231.00       976.05
 1316.74        3349.75           6839         208.00       875.78
 1316.77        3350.00           6843         216.00       910.66
 1316.80        3350.25           6847         201.00       845.27
 1316.82        3350.50           6851         210.00       884.50
 1316.85        3350.75           6854         196.00       823.47
 1316.88        3351.00           6858         200.00       840.91
HL scan finished at 21:57:29
end
