************************************************************
  HL Scan of (1) Internal mercury lamp
************************************************************
Integration time is 0.2294 seconds per sample
dh170619El Arenosillo 37.1 6.73 2.804185pr1000
************************************************************
Dead Time -------------------------  3.1E-08 
Number of Cycles Used -------------  4 
Starting Wavelength (Angstroms) ---  3331 
Final Wavelength (Angstoms) -------  3351 
Wavelength Increment (Angstroms) --  .25 
Filter Wheel #1 Position ---------- (1) Ground quartz diffuser (ND=2.32)
Filter Wheel #2 Position ---------- 



************************************************************
HL scan start time = 22:07:39
Dark Count =  2.7 


Time (GMT)  Wavelength (Ang)  Step Number  Raw Counts  Counts/Second

 1328.17        3331.00           6561          96.00       406.72
 1328.39        3331.25           6565         101.00       428.51
 1328.42        3331.50           6569          97.00       411.08
 1328.44        3331.75           6572         108.00       459.03
 1328.47        3332.00           6576         109.00       463.39
 1328.50        3332.25           6580         111.00       472.11
 1328.53        3332.50           6583         111.00       472.11
 1328.56        3332.75           6587         107.00       454.67
 1328.58        3333.00           6591         107.00       454.67
 1328.61        3333.25           6594         121.00       515.70
 1328.64        3333.50           6598         106.00       450.31
 1328.67        3333.75           6602         110.00       467.75
 1328.69        3334.00           6606         118.00       502.62
 1328.72        3334.25           6609         120.00       511.34
 1328.75        3334.50           6613         137.00       585.45
 1328.78        3334.75           6617         154.00       659.56
 1328.81        3335.00           6620         196.00       842.65
 1328.83        3335.25           6624         252.00      1086.78
 1328.86        3335.50           6628         299.00      1291.68
 1328.89        3335.75           6631         416.00      1801.76
 1328.92        3336.00           6635         510.00      2211.57
 1328.95        3336.25           6639         561.00      2433.92
 1328.97        3336.50           6643         773.00      3358.24
 1329.00        3336.75           6646        1538.00      6694.07
 1329.03        3337.00           6650        5727.00     24972.68
 1329.06        3337.25           6654       10360.00     45212.85
 1329.09        3337.50           6657       13740.00     59995.09
 1329.11        3337.75           6661       17817.00     77843.68
 1329.14        3338.00           6665       22721.00     99339.02
 1329.17        3338.25           6669       27280.00    119347.90
 1329.20        3338.50           6672       30777.00    134712.70
 1329.23        3338.75           6676       36423.00    159550.50
 1329.25        3339.00           6680       41072.00    180031.20
 1329.28        3339.25           6683       44391.00    194668.60
 1329.31        3339.50           6687       48686.00    213630.20
 1329.34        3339.75           6691       53926.00    236794.20
 1329.37        3340.00           6694       57858.00    254198.00
 1329.39        3340.25           6698       62608.00    275247.50
 1329.42        3340.50           6702       67620.00    297488.10
 1329.45        3340.75           6706       72473.00    319052.50
 1329.48        3341.00           6709       75758.00    333665.90
 1329.51        3341.25           6713       79652.00    351005.70
 1329.53        3341.50           6717       83630.00    368739.00
 1329.56        3341.75           6720       86193.00    380174.80
 1329.59        3342.00           6724       86627.00    382112.10
 1329.62        3342.25           6728       86023.00    379416.00
 1329.65        3342.50           6732       82148.00    362130.20
 1329.67        3342.75           6735       78955.00    347900.60
 1329.70        3343.00           6739       74312.00    327231.70
 1329.73        3343.25           6743       69150.00    304283.50
 1329.76        3343.50           6746       65573.00    288400.90
 1329.79        3343.75           6750       61227.00    269124.80
 1329.81        3344.00           6754       56360.00    247565.30
 1329.84        3344.25           6758       52211.00    229209.20
 1329.87        3344.50           6761       48284.00    211854.50
 1329.90        3344.75           6765       43187.00    189357.20
 1329.93        3345.00           6769       38053.00    166728.30
 1329.96        3345.25           6772       34205.00    149788.50
 1329.98        3345.50           6776       29490.00    129056.30
 1330.01        3345.75           6780       24583.00    107508.10
 1330.04        3346.00           6784       20170.00     88153.83
 1330.07        3346.25           6787       16467.00     71931.36
 1330.09        3346.50           6791       11041.00     48190.07
 1330.12        3346.75           6795        6269.00     27339.20
 1330.15        3347.00           6798        3196.00     13926.24
 1330.18        3347.25           6802        1065.00      4631.44
 1330.21        3347.50           6806         640.00      2778.36
 1330.24        3347.75           6810         515.00      2233.37
 1330.26        3348.00           6813         437.00      1893.31
 1330.29        3348.25           6817         351.00      1518.38
 1330.32        3348.50           6821         299.00      1291.68
 1330.35        3348.75           6825         214.00       921.12
 1330.37        3349.00           6828         175.00       751.11
 1330.40        3349.25           6832         150.00       642.12
 1330.43        3349.50           6836         141.00       602.89
 1330.46        3349.75           6839         133.00       568.01
 1330.49        3350.00           6843         113.00       480.83
 1330.51        3350.25           6847         118.00       502.62
 1330.54        3350.50           6851         108.00       459.03
 1330.57        3350.75           6854         120.00       511.34
 1330.60        3351.00           6858         120.00       511.34
HL scan finished at 22:11:13
end
