************************************************************
  HL Scan of (1) Internal mercury lamp
************************************************************
Integration time is 0.2294 seconds per sample
dh180619El Arenosillo 37.1 6.73 2.804185pr1000
************************************************************
Dead Time -------------------------  3.1E-08 
Number of Cycles Used -------------  4 
Starting Wavelength (Angstroms) ---  3331 
Final Wavelength (Angstoms) -------  3351 
Wavelength Increment (Angstroms) --  .25 
Filter Wheel #1 Position ---------- (1) Ground quartz diffuser (ND=2.32)
Filter Wheel #2 Position ---------- 



************************************************************
HL scan start time = 02:19:49
Dark Count =  1.9 


Time (GMT)  Wavelength (Ang)  Step Number  Raw Counts  Counts/Second

  140.32        3331.00           6561          97.00       414.57
  140.54        3331.25           6565         110.00       471.24
  140.57        3331.50           6569         109.00       466.88
  140.60        3331.75           6572         108.00       462.52
  140.63        3332.00           6576         107.00       458.16
  140.65        3332.25           6580         108.00       462.52
  140.68        3332.50           6583         116.00       497.39
  140.71        3332.75           6587         119.00       510.47
  140.74        3333.00           6591         105.00       449.44
  140.76        3333.25           6594         107.00       458.16
  140.79        3333.50           6598         103.00       440.72
  140.82        3333.75           6602         122.00       523.55
  140.85        3334.00           6606         121.00       519.19
  140.88        3334.25           6609         125.00       536.63
  140.90        3334.50           6613         131.00       562.78
  140.93        3334.75           6617         146.00       628.17
  140.96        3335.00           6620         192.00       828.70
  140.99        3335.25           6624         239.00      1033.60
  141.01        3335.50           6628         292.00      1264.65
  141.04        3335.75           6631         387.00      1678.81
  141.07        3336.00           6635         475.00      2062.47
  141.10        3336.25           6639         540.00      2345.86
  141.12        3336.50           6643         849.00      3693.10
  141.15        3336.75           6646        2130.00      9279.48
  141.18        3337.00           6650        6230.00     27172.40
  141.21        3337.25           6654       10307.00     44984.66
  141.24        3337.50           6657       14119.00     61656.97
  141.26        3337.75           6661       19117.00     83542.59
  141.29        3338.00           6665       23959.00    104773.50
  141.32        3338.25           6669       28890.00    126423.50
  141.35        3338.50           6672       32526.00    142406.30
  141.38        3338.75           6676       37096.00    162517.30
  141.40        3339.00           6680       41313.00    181097.10
  141.43        3339.25           6683       44995.00    197337.40
  141.46        3339.50           6687       49985.00    219373.10
  141.49        3339.75           6691       55321.00    242970.10
  141.52        3340.00           6694       59536.00    261634.40
  141.54        3340.25           6698       63575.00    279539.70
  141.57        3340.50           6702       67932.00    298877.10
  141.60        3340.75           6706       72153.00    317633.20
  141.63        3341.00           6709       75620.00    333055.30
  141.66        3341.25           6713       80330.00    354030.30
  141.68        3341.50           6717       84337.00    371896.30
  141.71        3341.75           6720       86305.00    380678.30
  141.74        3342.00           6724       86871.00    383204.90
  141.77        3342.25           6728       86193.00    380178.40
  141.80        3342.50           6732       82996.00    365915.00
  141.83        3342.75           6735       79677.00    351120.70
  141.85        3343.00           6739       74262.00    327012.80
  141.88        3343.25           6743       69401.00    305402.20
  141.91        3343.50           6746       65453.00    287871.90
  141.94        3343.75           6750       60999.00    268117.70
  141.97        3344.00           6754       56484.00    248117.80
  142.00        3344.25           6758       51741.00    227134.70
  142.02        3344.50           6761       48143.00    211235.30
  142.05        3344.75           6765       43196.00    189400.40
  142.08        3345.00           6769       38013.00    166555.70
  142.11        3345.25           6772       34691.00    151930.50
  142.13        3345.50           6776       30039.00    131472.40
  142.16        3345.75           6780       25135.00    109934.20
  142.19        3346.00           6784       19870.00     86842.46
  142.22        3346.25           6787       16326.00     71317.48
  142.25        3346.50           6791       11638.00     50804.01
  142.27        3346.75           6795        7028.00     30657.28
  142.30        3347.00           6798        4050.00     17656.13
  142.33        3347.25           6802        1416.00      6165.52
  142.36        3347.50           6806         668.00      2903.92
  142.39        3347.75           6810         533.00      2315.34
  142.41        3348.00           6813         449.00      1949.12
  142.44        3348.25           6817         361.00      1565.46
  142.47        3348.50           6821         274.00      1186.18
  142.50        3348.75           6825         222.00       959.49
  142.53        3349.00           6828         169.00       728.44
  142.55        3349.25           6832         143.00       615.09
  142.58        3349.50           6836         123.00       527.91
  142.61        3349.75           6839         121.00       519.19
  142.64        3350.00           6843         118.00       506.11
  142.66        3350.25           6847         117.00       501.75
  142.69        3350.50           6851         121.00       519.19
  142.72        3350.75           6854         116.00       497.39
  142.75        3351.00           6858         123.00       527.91
HL scan finished at 02:23:21
end
************************************************************
  HL Scan of (1) Internal mercury lamp
************************************************************
Integration time is 0.2294 seconds per sample
dh180619El Arenosillo 37.1 6.73 3.018777pr1000
************************************************************
Dead Time -------------------------  3.1E-08 
Number of Cycles Used -------------  4 
Starting Wavelength (Angstroms) ---  3331 
Final Wavelength (Angstoms) -------  3351 
Wavelength Increment (Angstroms) --  .25 
Filter Wheel #1 Position ---------- (1) Ground quartz diffuser (ND=2.32)
Filter Wheel #2 Position ---------- 



************************************************************
HL scan start time = 21:51:58
Dark Count =  3 


Time (GMT)  Wavelength (Ang)  Step Number  Raw Counts  Counts/Second

 1312.49        3331.00           6561         103.00       435.93
 1312.70        3331.25           6565         111.00       470.80
 1312.73        3331.50           6569         100.00       422.85
 1312.76        3331.75           6572         113.00       479.52
 1312.79        3332.00           6576         122.00       518.75
 1312.82        3332.25           6580         112.00       475.16
 1312.84        3332.50           6583         120.00       510.03
 1312.87        3332.75           6587         122.00       518.75
 1312.90        3333.00           6591         120.00       510.03
 1312.93        3333.25           6594         114.00       483.88
 1312.96        3333.50           6598         117.00       496.96
 1312.98        3333.75           6602         109.00       462.08
 1313.01        3334.00           6606         129.00       549.27
 1313.04        3334.25           6609         126.00       536.19
 1313.07        3334.50           6613         131.00       557.99
 1313.10        3334.75           6617         159.00       680.05
 1313.12        3335.00           6620         200.00       858.78
 1313.15        3335.25           6624         267.00      1150.87
 1313.18        3335.50           6628         342.00      1477.84
 1313.21        3335.75           6631         421.00      1822.25
 1313.23        3336.00           6635         520.00      2253.86
 1313.26        3336.25           6639         596.00      2585.21
 1313.29        3336.50           6643        1020.00      4433.91
 1313.32        3336.75           6646        2637.00     11486.22
 1313.35        3337.00           6650        7378.00     32181.18
 1313.37        3337.25           6654       12010.00     52426.03
 1313.40        3337.50           6657       15717.00     68646.36
 1313.43        3337.75           6661       21033.00     91935.59
 1313.46        3338.00           6665       26193.00    114573.60
 1313.49        3338.25           6669       31554.00    138127.30
 1313.51        3338.50           6672       35416.00    155116.40
 1313.54        3338.75           6676       40080.00    175657.50
 1313.57        3339.00           6680       44872.00    196789.70
 1313.60        3339.25           6683       48588.00    213196.00
 1313.63        3339.50           6687       53941.00    236859.20
 1313.65        3339.75           6691       59647.00    262121.30
 1313.68        3340.00           6694       64086.00    281801.60
 1313.71        3340.25           6698       69083.00    303984.60
 1313.74        3340.50           6702       73113.00    321897.10
 1313.77        3340.75           6706       78097.00    344077.80
 1313.79        3341.00           6709       81420.00    358883.40
 1313.82        3341.25           6713       86550.00    381767.00
 1313.85        3341.50           6717       90934.00    401348.80
 1313.88        3341.75           6720       92912.00    410191.70
 1313.91        3342.00           6724       92914.00    410200.60
 1313.94        3342.25           6728       92085.00    406493.90
 1313.96        3342.50           6732       88441.00    390210.50
 1313.99        3342.75           6735       84719.00    373595.60
 1314.02        3343.00           6739       79451.00    350108.90
 1314.05        3343.25           6743       73695.00    324485.70
 1314.08        3343.50           6746       70048.00    308272.00
 1314.10        3343.75           6750       64664.00    284365.90
 1314.13        3344.00           6754       59784.00    262728.40
 1314.16        3344.25           6758       54644.00    239969.50
 1314.19        3344.50           6761       50882.00    223332.50
 1314.21        3344.75           6765       45794.00    200858.80
 1314.24        3345.00           6769       40372.00    176944.40
 1314.27        3345.25           6772       36560.00    160152.40
 1314.30        3345.50           6776       31671.00    138641.70
 1314.33        3345.75           6780       26244.00    114797.50
 1314.35        3346.00           6784       20810.00     90957.96
 1314.38        3346.25           6787       16756.00     73195.54
 1314.41        3346.50           6791       11911.00     51993.07
 1314.44        3346.75           6795        6905.00     30115.29
 1314.47        3347.00           6798        3721.00     16215.65
 1314.49        3347.25           6802        1294.00      5628.71
 1314.52        3347.50           6806         682.00      2960.17
 1314.55        3347.75           6810         563.00      2441.34
 1314.58        3348.00           6813         423.00      1830.97
 1314.61        3348.25           6817         394.00      1704.54
 1314.63        3348.50           6821         318.00      1373.21
 1314.66        3348.75           6825         257.00      1107.27
 1314.69        3349.00           6828         201.00       863.14
 1314.72        3349.25           6832         175.00       749.80
 1314.74        3349.50           6836         138.00       588.50
 1314.77        3349.75           6839         126.00       536.19
 1314.80        3350.00           6843         129.00       549.27
 1314.83        3350.25           6847         123.00       523.11
 1314.86        3350.50           6851         124.00       527.47
 1314.88        3350.75           6854         124.00       527.47
 1314.91        3351.00           6858         111.00       470.80
HL scan finished at 21:55:31
end
