************************************************************
  HL Scan of (1) Internal mercury lamp
************************************************************
Integration time is 0.2294 seconds per sample
dh190619El Arenosillo 37.1 6.73 3.018777pr1000
************************************************************
Dead Time -------------------------  3.1E-08 
Number of Cycles Used -------------  4 
Starting Wavelength (Angstroms) ---  3331 
Final Wavelength (Angstoms) -------  3351 
Wavelength Increment (Angstroms) --  .25 
Filter Wheel #1 Position ---------- (1) Ground quartz diffuser (ND=2.32)
Filter Wheel #2 Position ---------- 



************************************************************
HL scan start time = 02:19:43
Dark Count =  2.5 


Time (GMT)  Wavelength (Ang)  Step Number  Raw Counts  Counts/Second

  140.22        3331.00           6561         109.00       464.26
  140.44        3331.25           6565         112.00       477.34
  140.47        3331.50           6569         111.00       472.98
  140.50        3331.75           6572         116.00       494.78
  140.53        3332.00           6576         116.00       494.78
  140.55        3332.25           6580         113.00       481.70
  140.58        3332.50           6583         119.00       507.85
  140.61        3332.75           6587         119.00       507.85
  140.64        3333.00           6591         125.00       534.01
  140.67        3333.25           6594         122.00       520.93
  140.69        3333.50           6598         126.00       538.37
  140.72        3333.75           6602         127.00       542.73
  140.75        3334.00           6606         124.00       529.65
  140.78        3334.25           6609         120.00       512.21
  140.81        3334.50           6613         141.00       603.76
  140.83        3334.75           6617         168.00       721.46
  140.86        3335.00           6620         221.00       952.51
  140.89        3335.25           6624         274.00      1183.57
  140.92        3335.50           6628         369.00      1597.73
  140.95        3335.75           6631         473.00      2051.13
  140.97        3336.00           6635         555.00      2408.64
  141.00        3336.25           6639         625.00      2713.83
  141.03        3336.50           6643        1158.00      5037.84
  141.06        3336.75           6646        3059.00     13329.40
  141.08        3337.00           6650        8289.00     36163.01
  141.11        3337.25           6654       13381.00     58425.26
  141.14        3337.50           6657       16718.00     73031.33
  141.17        3337.75           6661       21577.00     94322.91
  141.20        3338.00           6665       26773.00    117122.40
  141.22        3338.25           6669       32008.00    140125.70
  141.25        3338.50           6672       36012.00    157742.00
  141.28        3338.75           6676       41965.00    183969.00
  141.31        3339.00           6680       46865.00    205589.00
  141.34        3339.25           6683       50543.00    221836.40
  141.36        3339.50           6687       55465.00    243604.70
  141.39        3339.75           6691       60837.00    267397.00
  141.42        3340.00           6694       65114.00    286364.90
  141.45        3340.25           6698       70523.00    310385.00
  141.48        3340.50           6702       75638.00    333132.70
  141.50        3340.75           6706       81420.00    358885.60
  141.53        3341.00           6709       84968.00    374708.90
  141.56        3341.25           6713       89381.00    394411.60
  141.59        3341.50           6717       93330.00    412063.30
  141.62        3341.75           6720       94783.00    418562.90
  141.64        3342.00           6724       94938.00    419256.50
  141.67        3342.25           6728       93143.00    411227.00
  141.70        3342.50           6732       88508.00    390512.00
  141.73        3342.75           6735       84649.00    373285.60
  141.76        3343.00           6739       79209.00    349033.00
  141.78        3343.25           6743       74079.00    326196.00
  141.81        3343.50           6746       70149.00    308723.00
  141.84        3343.75           6750       64884.00    285344.30
  141.87        3344.00           6754       60067.00    263984.60
  141.90        3344.25           6758       55022.00    241644.30
  141.92        3344.50           6761       51175.00    224629.90
  141.95        3344.75           6765       45701.00    200450.60
  141.98        3345.00           6769       39890.00    174822.40
  142.01        3345.25           6772       35807.00    156839.60
  142.04        3345.50           6776       30648.00    134146.50
  142.06        3345.75           6780       24992.00    109303.90
  142.09        3346.00           6784       19690.00     86050.96
  142.12        3346.25           6787       15899.00     69445.33
  142.15        3346.50           6791       10419.00     45471.64
  142.18        3346.75           6795        5132.00     22376.02
  142.20        3347.00           6798        2263.00      9856.98
  142.23        3347.25           6802         911.00      3960.82
  142.26        3347.50           6806         657.00      2853.35
  142.29        3347.75           6810         519.00      2251.68
  142.32        3348.00           6813         446.00      1933.42
  142.34        3348.25           6817         368.00      1593.37
  142.37        3348.50           6821         290.00      1253.32
  142.40        3348.75           6825         213.00       917.64
  142.43        3349.00           6828         189.00       813.01
  142.46        3349.25           6832         156.00       669.15
  142.48        3349.50           6836         140.00       599.40
  142.51        3349.75           6839         147.00       629.92
  142.54        3350.00           6843         138.00       590.68
  142.57        3350.25           6847         129.00       551.45
  142.60        3350.50           6851         128.00       547.09
  142.62        3350.75           6854         121.00       516.57
  142.65        3351.00           6858         113.00       481.70
HL scan finished at 02:23:16
end
************************************************************
  HL Scan of (1) Internal mercury lamp
************************************************************
Integration time is 0.2294 seconds per sample
dh190619El Arenosillo 37.1 6.73 2.965129pr1000
************************************************************
Dead Time -------------------------  3.1E-08 
Number of Cycles Used -------------  4 
Starting Wavelength (Angstroms) ---  3331 
Final Wavelength (Angstoms) -------  3351 
Wavelength Increment (Angstroms) --  .25 
Filter Wheel #1 Position ---------- (1) Ground quartz diffuser (ND=2.32)
Filter Wheel #2 Position ---------- 



************************************************************
HL scan start time = 22:06:29
Dark Count =  2.7 


Time (GMT)  Wavelength (Ang)  Step Number  Raw Counts  Counts/Second

 1327.00        3331.00           6561         106.00       450.31
 1327.22        3331.25           6565         115.00       489.55
 1327.24        3331.50           6569         110.00       467.75
 1327.27        3331.75           6572         104.00       441.59
 1327.30        3332.00           6576         109.00       463.39
 1327.33        3332.25           6580         111.00       472.11
 1327.35        3332.50           6583         109.00       463.39
 1327.38        3332.75           6587         112.00       476.47
 1327.41        3333.00           6591         123.00       524.42
 1327.44        3333.25           6594         127.00       541.86
 1327.47        3333.50           6598         123.00       524.42
 1327.49        3333.75           6602         136.00       581.09
 1327.52        3334.00           6606         114.00       485.19
 1327.55        3334.25           6609         125.00       533.14
 1327.58        3334.50           6613         144.00       615.97
 1327.61        3334.75           6617         168.00       720.59
 1327.63        3335.00           6620         208.00       894.97
 1327.66        3335.25           6624         280.00      1208.85
 1327.69        3335.50           6628         349.00      1509.66
 1327.72        3335.75           6631         440.00      1906.39
 1327.74        3336.00           6635         522.00      2263.89
 1327.77        3336.25           6639         607.00      2634.48
 1327.80        3336.50           6643         925.00      4020.99
 1327.83        3336.75           6646        2077.00      9044.82
 1327.86        3337.00           6650        6418.00     27989.84
 1327.88        3337.25           6654       11482.00     50118.35
 1327.91        3337.50           6657       15466.00     67548.88
 1327.94        3337.75           6661       20664.00     90319.24
 1327.97        3338.00           6665       25729.00    112538.00
 1328.00        3338.25           6669       30572.00    133811.60
 1328.02        3338.50           6672       34087.00    149269.40
 1328.05        3338.75           6676       38732.00    169719.30
 1328.08        3339.00           6680       44108.00    193420.00
 1328.11        3339.25           6683       47922.00    210255.70
 1328.14        3339.50           6687       53840.00    236413.70
 1328.16        3339.75           6691       59276.00    260478.90
 1328.19        3340.00           6694       63002.00    276994.80
 1328.22        3340.25           6698       67430.00    296644.40
 1328.25        3340.50           6702       72377.00    318625.60
 1328.28        3340.75           6706       77403.00    340988.70
 1328.30        3341.00           6709       81167.00    357757.00
 1328.33        3341.25           6713       85468.00    376939.10
 1328.36        3341.50           6717       90103.00    397636.50
 1328.39        3341.75           6720       92113.00    406620.50
 1328.42        3342.00           6724       93150.00    411257.40
 1328.45        3342.25           6728       92075.00    406450.50
 1328.47        3342.50           6732       88621.00    391015.80
 1328.50        3342.75           6735       84839.00    374132.40
 1328.53        3343.00           6739       79108.00    348582.20
 1328.56        3343.25           6743       73629.00    324193.50
 1328.59        3343.50           6746       70254.00    309188.70
 1328.61        3343.75           6750       65328.00    287313.60
 1328.64        3344.00           6754       60276.00    264909.90
 1328.67        3344.25           6758       55220.00    242519.60
 1328.70        3344.50           6761       51167.00    224593.60
 1328.73        3344.75           6765       45996.00    201751.80
 1328.75        3345.00           6769       41296.00    181018.60
 1328.78        3345.25           6772       37562.00    164565.80
 1328.81        3345.50           6776       32129.00    140656.90
 1328.84        3345.75           6780       26393.00    115453.00
 1328.87        3346.00           6784       21033.00     91936.89
 1328.89        3346.25           6787       17087.00     74646.38
 1328.92        3346.50           6791       11895.00     51924.41
 1328.95        3346.75           6795        7176.00     31300.19
 1328.98        3347.00           6798        4018.00     17512.99
 1329.01        3347.25           6802        1335.00      5808.81
 1329.03        3347.50           6806         676.00      2935.32
 1329.06        3347.75           6810         564.00      2447.00
 1329.09        3348.00           6813         448.00      1941.27
 1329.12        3348.25           6817         388.00      1679.69
 1329.15        3348.50           6821         327.00      1413.75
 1329.17        3348.75           6825         234.00      1008.31
 1329.20        3349.00           6828         179.00       768.54
 1329.23        3349.25           6832         162.00       694.44
 1329.26        3349.50           6836         143.00       611.61
 1329.28        3349.75           6839         125.00       533.14
 1329.31        3350.00           6843         132.00       563.65
 1329.34        3350.25           6847         126.00       537.50
 1329.37        3350.50           6851         118.00       502.62
 1329.40        3350.75           6854         120.00       511.34
 1329.42        3351.00           6858         123.00       524.42
HL scan finished at 22:10:02
end
