************************************************************
  HL Scan of (1) Internal mercury lamp
************************************************************
Integration time is 0.2294 seconds per sample
dh240619El Arenosillo 37.1 6.73 2.965129pr1000
************************************************************
Dead Time -------------------------  3.1E-08 
Number of Cycles Used -------------  4 
Starting Wavelength (Angstroms) ---  3331 
Final Wavelength (Angstoms) -------  3351 
Wavelength Increment (Angstroms) --  .25 
Filter Wheel #1 Position ---------- (1) Ground quartz diffuser (ND=2.32)
Filter Wheel #2 Position ---------- 



************************************************************
HL scan start time = 02:12:36
Dark Count =  2.9 


Time (GMT)  Wavelength (Ang)  Step Number  Raw Counts  Counts/Second

  133.12        3331.00           6561         103.00       436.36
  133.33        3331.25           6565         111.00       471.24
  133.36        3331.50           6569         113.00       479.95
  133.39        3331.75           6572         106.00       449.44
  133.42        3332.00           6576          98.00       414.57
  133.45        3332.25           6580         110.00       466.88
  133.47        3332.50           6583         105.00       445.08
  133.50        3332.75           6587         121.00       514.83
  133.53        3333.00           6591         110.00       466.88
  133.56        3333.25           6594         107.00       453.80
  133.59        3333.50           6598         112.00       475.60
  133.61        3333.75           6602         123.00       523.55
  133.64        3334.00           6606         129.00       549.70
  133.67        3334.25           6609         134.00       571.50
  133.70        3334.50           6613         138.00       588.94
  133.72        3334.75           6617         180.00       772.03
  133.75        3335.00           6620         213.00       915.89
  133.78        3335.25           6624         252.00      1085.91
  133.81        3335.50           6628         347.00      1500.07
  133.84        3335.75           6631         449.00      1944.76
  133.86        3336.00           6635         511.00      2215.06
  133.89        3336.25           6639         595.00      2581.29
  133.92        3336.50           6643         984.00      4277.38
  133.95        3336.75           6646        2079.00      9052.67
  133.98        3337.00           6650        5860.00     25552.49
  134.00        3337.25           6654       10805.00     47157.38
  134.03        3337.50           6657       14507.00     63350.53
  134.06        3337.75           6661       19339.00     84511.01
  134.09        3338.00           6665       24994.00    109310.90
  134.12        3338.25           6669       30491.00    133454.60
  134.14        3338.50           6672       33898.00    148436.90
  134.17        3338.75           6676       38828.00    170141.40
  134.20        3339.00           6680       43580.00    191089.90
  134.23        3339.25           6683       47750.00    209495.20
  134.26        3339.50           6687       53312.00    234077.30
  134.28        3339.75           6691       58238.00    255880.00
  134.31        3340.00           6694       62103.00    273007.40
  134.34        3340.25           6698       67349.00    296283.90
  134.37        3340.50           6702       72585.00    319549.60
  134.40        3340.75           6706       77326.00    340645.00
  134.42        3341.00           6709       80734.00    355826.30
  134.45        3341.25           6713       85563.00    377362.20
  134.48        3341.50           6717       90076.00    397515.00
  134.51        3341.75           6720       91789.00    405171.00
  134.54        3342.00           6724       92195.00    406986.10
  134.56        3342.25           6728       91149.00    402310.20
  134.59        3342.50           6732       86900.00    383329.90
  134.62        3342.75           6735       83449.00    367930.80
  134.65        3343.00           6739       78215.00    344603.70
  134.67        3343.25           6743       73028.00    321519.60
  134.70        3343.50           6746       69648.00    306495.10
  134.73        3343.75           6750       64724.00    284632.50
  134.76        3344.00           6754       59867.00    263096.60
  134.79        3344.25           6758       54523.00    239434.60
  134.82        3344.50           6761       50378.00    221105.40
  134.84        3344.75           6765       45138.00    197964.00
  134.87        3345.00           6769       39971.00    175177.60
  134.90        3345.25           6772       35692.00    156331.70
  134.93        3345.50           6776       30384.00    132984.40
  134.96        3345.75           6780       25375.00    110983.20
  134.98        3346.00           6784       20178.00     88188.02
  135.01        3346.25           6787       16325.00     71308.72
  135.04        3346.50           6791       11280.00     49234.20
  135.07        3346.75           6795        6592.00     28748.80
  135.10        3347.00           6798        3457.00     15064.14
  135.12        3347.25           6802        1125.00      4892.20
  135.15        3347.50           6806         683.00      2964.96
  135.18        3347.75           6810         536.00      2324.06
  135.21        3348.00           6813         444.00      1922.96
  135.24        3348.25           6817         362.00      1565.46
  135.26        3348.50           6821         298.00      1286.45
  135.29        3348.75           6825         224.00       963.85
  135.32        3349.00           6828         177.00       758.95
  135.35        3349.25           6832         170.00       728.44
  135.37        3349.50           6836         130.00       554.06
  135.40        3349.75           6839         126.00       536.63
  135.43        3350.00           6843         125.00       532.27
  135.46        3350.25           6847         118.00       501.75
  135.49        3350.50           6851         126.00       536.63
  135.51        3350.75           6854         129.00       549.70
  135.54        3351.00           6858         114.00       484.31
HL scan finished at 02:16:09
end
