************************************************************
  HL Scan of (1) Internal mercury lamp
************************************************************
Integration time is 0.2294 seconds per sample
dh200619El Arenosillo 37.1 6.73 2.911481pr1000
************************************************************
Dead Time -------------------------  3.1E-08 
Number of Cycles Used -------------  4 
Starting Wavelength (Angstroms) ---  3331 
Final Wavelength (Angstoms) -------  3351 
Wavelength Increment (Angstroms) --  .25 
Filter Wheel #1 Position ---------- (1) Ground quartz diffuser (ND=2.32)
Filter Wheel #2 Position ---------- 



************************************************************
HL scan start time = 02:20:42
Dark Count =  2.8 


Time (GMT)  Wavelength (Ang)  Step Number  Raw Counts  Counts/Second

  141.21        3331.00           6561         108.00       458.59
  141.42        3331.25           6565         105.00       445.52
  141.45        3331.50           6569         114.00       484.75
  141.48        3331.75           6572          98.00       415.00
  141.51        3332.00           6576         108.00       458.59
  141.54        3332.25           6580          99.00       419.36
  141.56        3332.50           6583         107.00       454.23
  141.59        3332.75           6587         104.00       441.16
  141.62        3333.00           6591         112.00       476.03
  141.65        3333.25           6594         115.00       489.11
  141.68        3333.50           6598         120.00       510.91
  141.70        3333.75           6602         118.00       502.19
  141.73        3334.00           6606         123.00       523.98
  141.76        3334.25           6609         136.00       580.66
  141.79        3334.50           6613         142.00       606.81
  141.81        3334.75           6617         175.00       750.67
  141.84        3335.00           6620         238.00      1025.32
  141.87        3335.25           6624         278.00      1199.70
  141.90        3335.50           6628         355.00      1535.38
  141.93        3335.75           6631         444.00      1923.39
  141.95        3336.00           6635         532.00      2307.05
  141.98        3336.25           6639         583.00      2529.41
  142.01        3336.50           6643        1047.00      4552.52
  142.04        3336.75           6646        2836.00     12355.21
  142.06        3337.00           6650        7406.00     32304.35
  142.09        3337.25           6654       11946.00     52147.01
  142.12        3337.50           6657       15527.00     67815.49
  142.15        3337.75           6661       20783.00     90840.46
  142.18        3338.00           6665       25637.00    112133.70
  142.20        3338.25           6669       30995.00    135670.60
  142.23        3338.50           6672       34371.00    150518.50
  142.26        3338.75           6676       39169.00    171644.10
  142.29        3339.00           6680       43503.00    190750.60
  142.32        3339.25           6683       47388.00    207897.00
  142.35        3339.50           6687       52466.00    230336.30
  142.37        3339.75           6691       58058.00    255083.30
  142.40        3340.00           6694       62205.00    273460.10
  142.43        3340.25           6698       66697.00    293389.60
  142.46        3340.50           6702       70970.00    312370.30
  142.49        3340.75           6706       75427.00    332192.40
  142.51        3341.00           6709       79128.00    348670.90
  142.54        3341.25           6713       83997.00    370375.60
  142.57        3341.50           6717       87573.00    386335.10
  142.60        3341.75           6720       89318.00    394128.90
  142.63        3342.00           6724       89984.00    397104.40
  142.65        3342.25           6728       88506.00    390501.80
  142.68        3342.50           6732       84953.00    374640.60
  142.71        3342.75           6735       81243.00    358095.30
  142.74        3343.00           6739       75786.00    333790.10
  142.77        3343.25           6743       70618.00    310805.90
  142.79        3343.50           6746       66866.00    294139.80
  142.82        3343.75           6750       62060.00    272817.20
  142.85        3344.00           6754       57518.00    252691.90
  142.88        3344.25           6758       52565.00    230774.10
  142.91        3344.50           6761       48746.00    213894.80
  142.93        3344.75           6765       43506.00    190763.90
  142.96        3345.00           6769       38435.00    168410.50
  142.99        3345.25           6772       34928.00    152969.50
  143.02        3345.50           6776       30256.00    132422.20
  143.05        3345.75           6780       24861.00    108727.70
  143.07        3346.00           6784       19735.00     86246.84
  143.10        3346.25           6787       15790.00     68966.83
  143.13        3346.50           6791       11106.00     48473.83
  143.16        3346.75           6795        6307.00     27504.70
  143.19        3347.00           6798        3305.00     14401.37
  143.21        3347.25           6802        1111.00      4831.59
  143.24        3347.50           6806         637.00      2764.84
  143.27        3347.75           6810         509.00      2206.78
  143.30        3348.00           6813         426.00      1844.92
  143.33        3348.25           6817         339.00      1465.63
  143.35        3348.50           6821         266.00      1147.38
  143.38        3348.75           6825         214.00       920.69
  143.41        3349.00           6828         175.00       750.67
  143.44        3349.25           6832         146.00       624.25
  143.47        3349.50           6836         136.00       580.66
  143.49        3349.75           6839         128.00       545.78
  143.52        3350.00           6843         132.00       563.22
  143.55        3350.25           6847         114.00       484.75
  143.58        3350.50           6851         115.00       489.11
  143.60        3350.75           6854         123.00       523.98
  143.63        3351.00           6858         116.00       493.47
HL scan finished at 02:24:15
end
