************************************************************
  HL Scan of (1) Internal mercury lamp
************************************************************
Integration time is 0.2294 seconds per sample
dh220619El Arenosillo 37.1 6.73 3.018777pr1000
************************************************************
Dead Time -------------------------  3.1E-08 
Number of Cycles Used -------------  4 
Starting Wavelength (Angstroms) ---  3331 
Final Wavelength (Angstoms) -------  3351 
Wavelength Increment (Angstroms) --  .25 
Filter Wheel #1 Position ---------- (1) Ground quartz diffuser (ND=2.32)
Filter Wheel #2 Position ---------- 



************************************************************
HL scan start time = 01:12:35
Dark Count =  6.2 


Time (GMT)  Wavelength (Ang)  Step Number  Raw Counts  Counts/Second

   73.11        3331.00           6561         108.00       443.77
   73.32        3331.25           6565         105.00       430.69
   73.35        3331.50           6569         108.00       443.77
   73.38        3331.75           6572         112.00       461.21
   73.41        3332.00           6576         112.00       461.21
   73.43        3332.25           6580         123.00       509.16
   73.46        3332.50           6583         118.00       487.37
   73.49        3332.75           6587         122.00       504.80
   73.52        3333.00           6591         122.00       504.80
   73.55        3333.25           6594         114.00       469.93
   73.57        3333.50           6598         125.00       517.88
   73.60        3333.75           6602         119.00       491.73
   73.63        3334.00           6606         127.00       526.60
   73.66        3334.25           6609         134.00       557.12
   73.69        3334.50           6613         132.00       548.40
   73.71        3334.75           6617         154.00       644.30
   73.74        3335.00           6620         198.00       836.12
   73.77        3335.25           6624         233.00       988.70
   73.80        3335.50           6628         323.00      1381.05
   73.83        3335.75           6631         402.00      1725.46
   73.85        3336.00           6635         512.00      2205.03
   73.88        3336.25           6639         564.00      2431.74
   73.91        3336.50           6643         763.00      3299.38
   73.94        3336.75           6646        1429.00      6203.46
   73.97        3337.00           6650        5183.00     22582.50
   73.99        3337.25           6654       10575.00     46137.43
   74.02        3337.50           6657       14662.00     64014.44
   74.05        3337.75           6661       19939.00     87126.02
   74.08        3338.00           6665       24889.00    108835.60
   74.11        3338.25           6669       29996.00    131264.50
   74.13        3338.50           6672       34112.00    149363.90
   74.16        3338.75           6676       39477.00    172986.20
   74.19        3339.00           6680       45767.00    200725.50
   74.22        3339.25           6683       50138.00    220030.20
   74.25        3339.50           6687       55625.00    244296.50
   74.27        3339.75           6691       60583.00    266254.90
   74.30        3340.00           6694       64518.00    283703.90
   74.33        3340.25           6698       69700.00    306711.50
   74.36        3340.50           6702       74832.00    329529.60
   74.39        3340.75           6706       79856.00    351899.00
   74.41        3341.00           6709       84104.00    370837.70
   74.44        3341.25           6713       89484.00    394855.20
   74.47        3341.50           6717       94350.00    416609.10
   74.50        3341.75           6720       97241.00    429547.70
   74.53        3342.00           6724       98641.00    435817.10
   74.55        3342.25           6728       97845.00    432252.20
   74.58        3342.50           6732       95119.00    420049.80
   74.61        3342.75           6735       91122.00    402174.80
   74.64        3343.00           6739       85463.00    376901.20
   74.67        3343.25           6743       80492.00    354733.10
   74.69        3343.50           6746       76507.00    336984.10
   74.72        3343.75           6750       71156.00    313182.00
   74.75        3344.00           6754       65506.00    288088.00
   74.78        3344.25           6758       60266.00    264850.00
   74.81        3344.50           6761       56373.00    247607.40
   74.83        3344.75           6765       51475.00    225939.70
   74.86        3345.00           6769       45789.00    200822.60
   74.89        3345.25           6772       41302.00    181029.70
   74.92        3345.50           6776       35451.00    155256.40
   74.95        3345.75           6780       30173.00    132042.50
   74.97        3346.00           6784       24834.00    108594.30
   75.00        3346.25           6787       20625.00     90132.93
   75.03        3346.50           6791       15334.00     66955.75
   75.06        3346.75           6795       10048.00     43833.72
   75.09        3347.00           6798        6301.00     27463.65
   75.11        3347.25           6802        2338.00     10167.98
   75.14        3347.50           6806         880.00      3809.52
   75.17        3347.75           6810         652.00      2815.42
   75.20        3348.00           6813         525.00      2261.71
   75.23        3348.25           6817         462.00      1987.04
   75.25        3348.50           6821         354.00      1516.20
   75.28        3348.75           6825         275.00      1171.79
   75.31        3349.00           6828         226.00       958.18
   75.34        3349.25           6832         198.00       836.12
   75.37        3349.50           6836         168.00       705.33
   75.39        3349.75           6839         146.00       609.43
   75.42        3350.00           6843         151.00       631.22
   75.45        3350.25           6847         129.00       535.32
   75.48        3350.50           6851         129.00       535.32
   75.51        3350.75           6854         127.00       526.60
   75.53        3351.00           6858         123.00       509.16
HL scan finished at 01:16:09
end
************************************************************
  HL Scan of (1) Internal mercury lamp
************************************************************
Integration time is 0.2294 seconds per sample
dh220619El Arenosillo 37.1 6.73 3.072425pr1000
************************************************************
Dead Time -------------------------  3.1E-08 
Number of Cycles Used -------------  4 
Starting Wavelength (Angstroms) ---  3331 
Final Wavelength (Angstoms) -------  3351 
Wavelength Increment (Angstroms) --  .25 
Filter Wheel #1 Position ---------- (1) Ground quartz diffuser (ND=2.32)
Filter Wheel #2 Position ---------- 



************************************************************
HL scan start time = 02:16:42
Dark Count =  4.1 


Time (GMT)  Wavelength (Ang)  Step Number  Raw Counts  Counts/Second

  137.21        3331.00           6561         115.00       483.44
  137.43        3331.25           6565         119.00       500.88
  137.46        3331.50           6569         105.00       439.85
  137.49        3331.75           6572         110.00       461.65
  137.51        3332.00           6576         116.00       487.80
  137.54        3332.25           6580         118.00       496.52
  137.57        3332.50           6583         128.00       540.11
  137.60        3332.75           6587         110.00       461.65
  137.63        3333.00           6591         117.00       492.16
  137.65        3333.25           6594         116.00       487.80
  137.68        3333.50           6598         117.00       492.16
  137.71        3333.75           6602         126.00       531.39
  137.74        3334.00           6606         136.00       574.99
  137.77        3334.25           6609         132.00       557.55
  137.79        3334.50           6613         138.00       583.71
  137.82        3334.75           6617         171.00       727.57
  137.85        3335.00           6620         219.00       936.82
  137.88        3335.25           6624         265.00      1137.35
  137.90        3335.50           6628         333.00      1433.80
  137.93        3335.75           6631         419.00      1808.73
  137.96        3336.00           6635         506.00      2188.03
  137.99        3336.25           6639         580.00      2510.66
  138.02        3336.50           6643         937.00      4067.21
  138.04        3336.75           6646        2199.00      9570.84
  138.07        3337.00           6650        6484.00     28271.93
  138.10        3337.25           6654       11085.00     48376.34
  138.13        3337.50           6657       14707.00     64220.58
  138.16        3337.75           6661       19892.00     86929.24
  138.18        3338.00           6665       25115.00    109836.70
  138.21        3338.25           6669       30799.00    134803.20
  138.24        3338.50           6672       35435.00    155195.20
  138.27        3338.75           6676       40525.00    177613.90
  138.30        3339.00           6680       45714.00    200500.90
  138.32        3339.25           6683       49240.00    216071.50
  138.35        3339.50           6687       55160.00    242247.90
  138.38        3339.75           6691       60308.00    265045.40
  138.41        3340.00           6694       63929.00    281100.20
  138.44        3340.25           6698       69477.00    305730.00
  138.46        3340.50           6702       74903.00    329854.90
  138.49        3340.75           6706       79502.00    350331.20
  138.52        3341.00           6709       83281.00    367176.20
  138.55        3341.25           6713       88085.00    388615.70
  138.57        3341.50           6717       92655.00    409037.50
  138.60        3341.75           6720       95033.00    419674.40
  138.63        3342.00           6724       95337.00    421034.70
  138.66        3342.25           6728       94354.00    416636.50
  138.69        3342.50           6732       90244.00    398260.30
  138.71        3342.75           6735       86193.00    380168.50
  138.74        3343.00           6739       81273.00    358223.30
  138.77        3343.25           6743       75744.00    333597.40
  138.80        3343.50           6746       72081.00    317303.30
  138.83        3343.75           6750       67213.00    295674.70
  138.86        3344.00           6754       62160.00    273254.80
  138.88        3344.25           6758       57221.00    251371.00
  138.91        3344.50           6761       52553.00    230715.30
  138.94        3344.75           6765       47110.00    206663.70
  138.97        3345.00           6769       41782.00    183155.10
  139.00        3345.25           6772       37242.00    163150.50
  139.02        3345.50           6776       31792.00    139168.90
  139.05        3345.75           6780       26938.00    117839.90
  139.08        3346.00           6784       21629.00     94543.91
  139.11        3346.25           6787       17555.00     76689.96
  139.13        3346.50           6791       12276.00     53584.58
  139.16        3346.75           6795        6888.00     30036.24
  139.19        3347.00           6798        3728.00     16241.39
  139.22        3347.25           6802        1235.00      5366.63
  139.25        3347.50           6806         665.00      2881.25
  139.27        3347.75           6810         557.00      2410.38
  139.30        3348.00           6813         473.00      2044.16
  139.33        3348.25           6817         391.00      1686.66
  139.36        3348.50           6821         315.00      1355.33
  139.39        3348.75           6825         264.00      1133.00
  139.41        3349.00           6828         196.00       836.55
  139.44        3349.25           6832         166.00       705.77
  139.47        3349.50           6836         137.00       579.35
  139.50        3349.75           6839         138.00       583.71
  139.52        3350.00           6843         134.00       566.27
  139.55        3350.25           6847         127.00       535.75
  139.58        3350.50           6851         121.00       509.60
  139.61        3350.75           6854         122.00       513.96
  139.64        3351.00           6858         124.00       522.68
HL scan finished at 02:20:15
end
