************************************************************
  HL Scan of (1) Internal mercury lamp
************************************************************
Integration time is 0.2294 seconds per sample
dh190619El Arenosillo 37.1 6.73 3.018777pr1000
************************************************************
Dead Time -------------------------  3.1E-08 
Number of Cycles Used -------------  4 
Starting Wavelength (Angstroms) ---  3331 
Final Wavelength (Angstoms) -------  3351 
Wavelength Increment (Angstroms) --  .25 
Filter Wheel #1 Position ---------- (1) Ground quartz diffuser (ND=2.32)
Filter Wheel #2 Position ---------- 



************************************************************
HL scan start time = 02:19:43
Dark Count =  2.5 


Time (GMT)  Wavelength (Ang)  Step Number  Raw Counts  Counts/Second

  140.22        3331.00           6561         109.00       464.26
  140.44        3331.25           6565         112.00       477.34
  140.47        3331.50           6569         111.00       472.98
  140.50        3331.75           6572         116.00       494.78
  140.53        3332.00           6576         116.00       494.78
  140.55        3332.25           6580         113.00       481.70
  140.58        3332.50           6583         119.00       507.85
  140.61        3332.75           6587         119.00       507.85
  140.64        3333.00           6591         125.00       534.01
  140.67        3333.25           6594         122.00       520.93
  140.69        3333.50           6598         126.00       538.37
  140.72        3333.75           6602         127.00       542.73
  140.75        3334.00           6606         124.00       529.65
  140.78        3334.25           6609         120.00       512.21
  140.81        3334.50           6613         141.00       603.76
  140.83        3334.75           6617         168.00       721.46
  140.86        3335.00           6620         221.00       952.51
  140.89        3335.25           6624         274.00      1183.57
  140.92        3335.50           6628         369.00      1597.73
  140.95        3335.75           6631         473.00      2051.13
  140.97        3336.00           6635         555.00      2408.64
  141.00        3336.25           6639         625.00      2713.83
  141.03        3336.50           6643        1158.00      5037.84
  141.06        3336.75           6646        3059.00     13329.40
  141.08        3337.00           6650        8289.00     36163.01
  141.11        3337.25           6654       13381.00     58425.26
  141.14        3337.50           6657       16718.00     73031.33
  141.17        3337.75           6661       21577.00     94322.91
  141.20        3338.00           6665       26773.00    117122.40
  141.22        3338.25           6669       32008.00    140125.70
  141.25        3338.50           6672       36012.00    157742.00
  141.28        3338.75           6676       41965.00    183969.00
  141.31        3339.00           6680       46865.00    205589.00
  141.34        3339.25           6683       50543.00    221836.40
  141.36        3339.50           6687       55465.00    243604.70
  141.39        3339.75           6691       60837.00    267397.00
  141.42        3340.00           6694       65114.00    286364.90
  141.45        3340.25           6698       70523.00    310385.00
  141.48        3340.50           6702       75638.00    333132.70
  141.50        3340.75           6706       81420.00    358885.60
  141.53        3341.00           6709       84968.00    374708.90
  141.56        3341.25           6713       89381.00    394411.60
  141.59        3341.50           6717       93330.00    412063.30
  141.62        3341.75           6720       94783.00    418562.90
  141.64        3342.00           6724       94938.00    419256.50
  141.67        3342.25           6728       93143.00    411227.00
  141.70        3342.50           6732       88508.00    390512.00
  141.73        3342.75           6735       84649.00    373285.60
  141.76        3343.00           6739       79209.00    349033.00
  141.78        3343.25           6743       74079.00    326196.00
  141.81        3343.50           6746       70149.00    308723.00
  141.84        3343.75           6750       64884.00    285344.30
  141.87        3344.00           6754       60067.00    263984.60
  141.90        3344.25           6758       55022.00    241644.30
  141.92        3344.50           6761       51175.00    224629.90
  141.95        3344.75           6765       45701.00    200450.60
  141.98        3345.00           6769       39890.00    174822.40
  142.01        3345.25           6772       35807.00    156839.60
  142.04        3345.50           6776       30648.00    134146.50
  142.06        3345.75           6780       24992.00    109303.90
  142.09        3346.00           6784       19690.00     86050.96
  142.12        3346.25           6787       15899.00     69445.33
  142.15        3346.50           6791       10419.00     45471.64
  142.18        3346.75           6795        5132.00     22376.02
  142.20        3347.00           6798        2263.00      9856.98
  142.23        3347.25           6802         911.00      3960.82
  142.26        3347.50           6806         657.00      2853.35
  142.29        3347.75           6810         519.00      2251.68
  142.32        3348.00           6813         446.00      1933.42
  142.34        3348.25           6817         368.00      1593.37
  142.37        3348.50           6821         290.00      1253.32
  142.40        3348.75           6825         213.00       917.64
  142.43        3349.00           6828         189.00       813.01
  142.46        3349.25           6832         156.00       669.15
  142.48        3349.50           6836         140.00       599.40
  142.51        3349.75           6839         147.00       629.92
  142.54        3350.00           6843         138.00       590.68
  142.57        3350.25           6847         129.00       551.45
  142.60        3350.50           6851         128.00       547.09
  142.62        3350.75           6854         121.00       516.57
  142.65        3351.00           6858         113.00       481.70
HL scan finished at 02:23:16
end
