************************************************************
  HL Scan of (1) Internal mercury lamp
************************************************************
Integration time is 0.2294 seconds per sample
dh240619El Arenosillo 37.1 6.73 2.965129pr1000
************************************************************
Dead Time -------------------------  3.1E-08 
Number of Cycles Used -------------  4 
Starting Wavelength (Angstroms) ---  3331 
Final Wavelength (Angstoms) -------  3351 
Wavelength Increment (Angstroms) --  .25 
Filter Wheel #1 Position ---------- (1) Ground quartz diffuser (ND=2.32)
Filter Wheel #2 Position ---------- 



************************************************************
HL scan start time = 02:12:36
Dark Count =  2.9 


Time (GMT)  Wavelength (Ang)  Step Number  Raw Counts  Counts/Second

  133.12        3331.00           6561         103.00       436.36
  133.33        3331.25           6565         111.00       471.24
  133.36        3331.50           6569         113.00       479.95
  133.39        3331.75           6572         106.00       449.44
  133.42        3332.00           6576          98.00       414.57
  133.45        3332.25           6580         110.00       466.88
  133.47        3332.50           6583         105.00       445.08
  133.50        3332.75           6587         121.00       514.83
  133.53        3333.00           6591         110.00       466.88
  133.56        3333.25           6594         107.00       453.80
  133.59        3333.50           6598         112.00       475.60
  133.61        3333.75           6602         123.00       523.55
  133.64        3334.00           6606         129.00       549.70
  133.67        3334.25           6609         134.00       571.50
  133.70        3334.50           6613         138.00       588.94
  133.72        3334.75           6617         180.00       772.03
  133.75        3335.00           6620         213.00       915.89
  133.78        3335.25           6624         252.00      1085.91
  133.81        3335.50           6628         347.00      1500.07
  133.84        3335.75           6631         449.00      1944.76
  133.86        3336.00           6635         511.00      2215.06
  133.89        3336.25           6639         595.00      2581.29
  133.92        3336.50           6643         984.00      4277.38
  133.95        3336.75           6646        2079.00      9052.67
  133.98        3337.00           6650        5860.00     25552.49
  134.00        3337.25           6654       10805.00     47157.38
  134.03        3337.50           6657       14507.00     63350.53
  134.06        3337.75           6661       19339.00     84511.01
  134.09        3338.00           6665       24994.00    109310.90
  134.12        3338.25           6669       30491.00    133454.60
  134.14        3338.50           6672       33898.00    148436.90
  134.17        3338.75           6676       38828.00    170141.40
  134.20        3339.00           6680       43580.00    191089.90
  134.23        3339.25           6683       47750.00    209495.20
  134.26        3339.50           6687       53312.00    234077.30
  134.28        3339.75           6691       58238.00    255880.00
  134.31        3340.00           6694       62103.00    273007.40
  134.34        3340.25           6698       67349.00    296283.90
  134.37        3340.50           6702       72585.00    319549.60
  134.40        3340.75           6706       77326.00    340645.00
  134.42        3341.00           6709       80734.00    355826.30
  134.45        3341.25           6713       85563.00    377362.20
  134.48        3341.50           6717       90076.00    397515.00
  134.51        3341.75           6720       91789.00    405171.00
  134.54        3342.00           6724       92195.00    406986.10
  134.56        3342.25           6728       91149.00    402310.20
  134.59        3342.50           6732       86900.00    383329.90
  134.62        3342.75           6735       83449.00    367930.80
  134.65        3343.00           6739       78215.00    344603.70
  134.67        3343.25           6743       73028.00    321519.60
  134.70        3343.50           6746       69648.00    306495.10
  134.73        3343.75           6750       64724.00    284632.50
  134.76        3344.00           6754       59867.00    263096.60
  134.79        3344.25           6758       54523.00    239434.60
  134.82        3344.50           6761       50378.00    221105.40
  134.84        3344.75           6765       45138.00    197964.00
  134.87        3345.00           6769       39971.00    175177.60
  134.90        3345.25           6772       35692.00    156331.70
  134.93        3345.50           6776       30384.00    132984.40
  134.96        3345.75           6780       25375.00    110983.20
  134.98        3346.00           6784       20178.00     88188.02
  135.01        3346.25           6787       16325.00     71308.72
  135.04        3346.50           6791       11280.00     49234.20
  135.07        3346.75           6795        6592.00     28748.80
  135.10        3347.00           6798        3457.00     15064.14
  135.12        3347.25           6802        1125.00      4892.20
  135.15        3347.50           6806         683.00      2964.96
  135.18        3347.75           6810         536.00      2324.06
  135.21        3348.00           6813         444.00      1922.96
  135.24        3348.25           6817         362.00      1565.46
  135.26        3348.50           6821         298.00      1286.45
  135.29        3348.75           6825         224.00       963.85
  135.32        3349.00           6828         177.00       758.95
  135.35        3349.25           6832         170.00       728.44
  135.37        3349.50           6836         130.00       554.06
  135.40        3349.75           6839         126.00       536.63
  135.43        3350.00           6843         125.00       532.27
  135.46        3350.25           6847         118.00       501.75
  135.49        3350.50           6851         126.00       536.63
  135.51        3350.75           6854         129.00       549.70
  135.54        3351.00           6858         114.00       484.31
HL scan finished at 02:16:09
end
************************************************************
  HL Scan of (1) Internal mercury lamp
************************************************************
Integration time is 0.2294 seconds per sample
dh240619El Arenosillo 37.1 6.73 3.072425pr1000
************************************************************
Dead Time -------------------------  3.1E-08 
Number of Cycles Used -------------  4 
Starting Wavelength (Angstroms) ---  3331 
Final Wavelength (Angstoms) -------  3351 
Wavelength Increment (Angstroms) --  .25 
Filter Wheel #1 Position ---------- (1) Ground quartz diffuser (ND=2.32)
Filter Wheel #2 Position ---------- 



************************************************************
HL scan start time = 20:44:42
Dark Count =  4 


Time (GMT)  Wavelength (Ang)  Step Number  Raw Counts  Counts/Second

 1245.21        3331.00           6561         108.00       453.36
 1245.42        3331.25           6565         112.00       470.80
 1245.45        3331.50           6569         106.00       444.64
 1245.48        3331.75           6572         118.00       496.96
 1245.51        3332.00           6576         109.00       457.72
 1245.54        3332.25           6580         102.00       427.21
 1245.56        3332.50           6583         119.00       501.32
 1245.59        3332.75           6587         118.00       496.96
 1245.62        3333.00           6591         120.00       505.67
 1245.65        3333.25           6594         115.00       483.88
 1245.68        3333.50           6598         129.00       544.91
 1245.70        3333.75           6602         122.00       514.39
 1245.73        3334.00           6606         119.00       501.32
 1245.76        3334.25           6609         123.00       518.75
 1245.79        3334.50           6613         152.00       645.17
 1245.81        3334.75           6617         165.00       701.85
 1245.84        3335.00           6620         234.00      1002.65
 1245.87        3335.25           6624         278.00      1194.46
 1245.90        3335.50           6628         364.00      1569.39
 1245.93        3335.75           6631         448.00      1935.60
 1245.96        3336.00           6635         558.00      2415.18
 1245.98        3336.25           6639         635.00      2750.89
 1246.01        3336.50           6643         907.00      3936.84
 1246.04        3336.75           6646        1748.00      7604.23
 1246.07        3337.00           6650        5928.00     25844.59
 1246.09        3337.25           6654       11466.00     50042.71
 1246.12        3337.50           6657       15647.00     68335.55
 1246.15        3337.75           6661       21160.00     92487.99
 1246.18        3338.00           6665       26650.00    116575.70
 1246.20        3338.25           6669       31720.00    138852.70
 1246.23        3338.50           6672       35399.00    155037.20
 1246.26        3338.75           6676       40865.00    179113.00
 1246.29        3339.00           6680       46724.00    204959.90
 1246.32        3339.25           6683       50975.00    223739.20
 1246.34        3339.50           6687       56877.00    249848.40
 1246.37        3339.75           6691       62299.00    273871.60
 1246.40        3340.00           6694       66079.00    290640.90
 1246.43        3340.25           6698       70448.00    310045.00
 1246.46        3340.50           6702       75529.00    332641.00
 1246.48        3340.75           6706       80523.00    354881.00
 1246.51        3341.00           6709       84465.00    372458.00
 1246.54        3341.25           6713       89704.00    395848.00
 1246.57        3341.50           6717       94541.00    417473.50
 1246.60        3341.75           6720       97145.00    429127.70
 1246.62        3342.00           6724       97535.00    430873.90
 1246.65        3342.25           6728       96485.00    426173.10
 1246.68        3342.50           6732       91655.00    404567.10
 1246.71        3342.75           6735       88567.00    390768.80
 1246.74        3343.00           6739       83210.00    366860.00
 1246.76        3343.25           6743       78143.00    344278.20
 1246.79        3343.50           6746       74275.00    327061.30
 1246.82        3343.75           6750       68676.00    302172.20
 1246.85        3344.00           6754       63523.00    279299.70
 1246.88        3344.25           6758       58700.00    257921.50
 1246.90        3344.50           6761       54169.00    237863.50
 1246.93        3344.75           6765       48424.00    212467.20
 1246.96        3345.00           6769       43508.00    190767.40
 1246.99        3345.25           6772       39555.00    173339.60
 1247.02        3345.50           6776       34011.00    148929.20
 1247.04        3345.75           6780       28388.00    124208.80
 1247.07        3346.00           6784       22911.00    100166.70
 1247.10        3346.25           6787       19266.00     84186.30
 1247.13        3346.50           6791       14008.00     61162.07
 1247.16        3346.75           6795        8299.00     36200.15
 1247.18        3347.00           6798        4660.00     20309.21
 1247.21        3347.25           6802        1518.00      6601.18
 1247.24        3347.50           6806         760.00      3295.89
 1247.27        3347.75           6810         596.00      2580.85
 1247.30        3348.00           6813         490.00      2118.71
 1247.32        3348.25           6817         409.00      1765.57
 1247.35        3348.50           6821         306.00      1316.53
 1247.38        3348.75           6825         251.00      1076.76
 1247.41        3349.00           6828         198.00       845.71
 1247.44        3349.25           6832         178.00       758.52
 1247.46        3349.50           6836         146.00       619.02
 1247.49        3349.75           6839         136.00       575.42
 1247.52        3350.00           6843         135.00       571.07
 1247.55        3350.25           6847         132.00       557.99
 1247.58        3350.50           6851         129.00       544.91
 1247.60        3350.75           6854         117.00       492.60
 1247.63        3351.00           6858         125.00       527.47
HL scan finished at 20:48:15
end
