************************************************************
  HL Scan of (1) Internal mercury lamp
************************************************************
Integration time is 0.2294 seconds per sample
dh230619El Arenosillo 37.1 6.73 2.911481pr1000
************************************************************
Dead Time -------------------------  3.1E-08 
Number of Cycles Used -------------  4 
Starting Wavelength (Angstroms) ---  3331 
Final Wavelength (Angstoms) -------  3351 
Wavelength Increment (Angstroms) --  .25 
Filter Wheel #1 Position ---------- (1) Ground quartz diffuser (ND=2.32)
Filter Wheel #2 Position ---------- 



************************************************************
HL scan start time = 02:20:09
Dark Count =  3.1 


Time (GMT)  Wavelength (Ang)  Step Number  Raw Counts  Counts/Second

  140.67        3331.00           6561          91.00       383.18
  140.89        3331.25           6565         118.00       500.88
  140.92        3331.50           6569         107.00       452.93
  140.94        3331.75           6572         103.00       435.49
  140.97        3332.00           6576         115.00       487.80
  141.00        3332.25           6580         105.00       444.21
  141.03        3332.50           6583         111.00       470.36
  141.05        3332.75           6587         115.00       487.80
  141.08        3333.00           6591         116.00       492.16
  141.11        3333.25           6594         117.00       496.52
  141.14        3333.50           6598         123.00       522.68
  141.17        3333.75           6602         115.00       487.80
  141.19        3334.00           6606         130.00       553.19
  141.22        3334.25           6609         132.00       561.91
  141.25        3334.50           6613         150.00       640.38
  141.28        3334.75           6617         197.00       845.27
  141.30        3335.00           6620         247.00      1063.24
  141.33        3335.25           6624         312.00      1346.61
  141.36        3335.50           6628         396.00      1712.82
  141.39        3335.75           6631         462.00      2000.56
  141.42        3336.00           6635         559.00      2423.46
  141.44        3336.25           6639         637.00      2763.53
  141.47        3336.50           6643        1072.00      4660.22
  141.50        3336.75           6646        2328.00     10137.89
  141.53        3337.00           6650        6139.00     26769.81
  141.56        3337.25           6654       10960.00     47834.17
  141.58        3337.50           6657       14626.00     63870.46
  141.61        3337.75           6661       19600.00     85653.90
  141.64        3338.00           6665       25125.00    109885.00
  141.67        3338.25           6669       30304.00    132631.80
  141.70        3338.50           6672       33882.00    148365.60
  141.72        3338.75           6676       38721.00    169669.10
  141.75        3339.00           6680       43670.00    191486.00
  141.78        3339.25           6683       47892.00    210121.40
  141.81        3339.50           6687       53146.00    233342.20
  141.84        3339.75           6691       58133.00    255414.10
  141.86        3340.00           6694       61936.00    272266.10
  141.89        3340.25           6698       67081.00    295093.00
  141.92        3340.50           6702       72062.00    317223.30
  141.95        3340.75           6706       76756.00    338106.40
  141.98        3341.00           6709       80102.00    353009.00
  142.00        3341.25           6713       84732.00    373653.20
  142.03        3341.50           6717       89193.00    393569.00
  142.06        3341.75           6720       90981.00    401558.50
  142.09        3342.00           6724       91007.00    401674.60
  142.12        3342.25           6728       89405.00    394516.20
  142.14        3342.50           6732       85354.00    376428.60
  142.17        3342.75           6735       81783.00    360501.20
  142.20        3343.00           6739       76442.00    336708.60
  142.23        3343.25           6743       71432.00    314422.50
  142.26        3343.50           6746       68264.00    300346.30
  142.28        3343.75           6750       63635.00    279800.50
  142.31        3344.00           6754       58686.00    257863.50
  142.34        3344.25           6758       53210.00    233625.30
  142.37        3344.50           6761       49149.00    215673.90
  142.40        3344.75           6765       43855.00    192302.10
  142.42        3345.00           6769       38829.00    170144.90
  142.45        3345.25           6772       34596.00    151507.20
  142.48        3345.50           6776       29233.00    127925.20
  142.51        3345.75           6780       24512.00    107194.80
  142.54        3346.00           6784       19606.00     85680.19
  142.56        3346.25           6787       15584.00     68063.69
  142.59        3346.50           6791       10681.00     46614.40
  142.62        3346.75           6795        6179.00     26944.47
  142.65        3347.00           6798        3111.00     13553.65
  142.68        3347.25           6802         981.00      4263.42
  142.70        3347.50           6806         611.00      2650.17
  142.73        3347.75           6810         495.00      2144.43
  142.76        3348.00           6813         413.00      1786.93
  142.79        3348.25           6817         319.00      1377.13
  142.82        3348.50           6821         243.00      1045.81
  142.84        3348.75           6825         198.00       849.63
  142.87        3349.00           6828         171.00       731.93
  142.90        3349.25           6832         152.00       649.10
  142.93        3349.50           6836         136.00       579.35
  142.95        3349.75           6839         117.00       496.52
  142.98        3350.00           6843         118.00       500.88
  143.01        3350.25           6847         128.00       544.47
  143.04        3350.50           6851         115.00       487.80
  143.07        3350.75           6854         116.00       492.16
  143.09        3351.00           6858         111.00       470.36
HL scan finished at 02:23:42
end
