************************************************************
  HL Scan of (1) Internal mercury lamp
************************************************************
Integration time is 0.2294 seconds per sample
dh230619El Arenosillo 37.1 6.73 2.911481pr1000
************************************************************
Dead Time -------------------------  3.1E-08 
Number of Cycles Used -------------  4 
Starting Wavelength (Angstroms) ---  3331 
Final Wavelength (Angstoms) -------  3351 
Wavelength Increment (Angstroms) --  .25 
Filter Wheel #1 Position ---------- (1) Ground quartz diffuser (ND=2.32)
Filter Wheel #2 Position ---------- 



************************************************************
HL scan start time = 02:20:09
Dark Count =  3.1 


Time (GMT)  Wavelength (Ang)  Step Number  Raw Counts  Counts/Second

  140.67        3331.00           6561          91.00       383.18
  140.89        3331.25           6565         118.00       500.88
  140.92        3331.50           6569         107.00       452.93
  140.94        3331.75           6572         103.00       435.49
  140.97        3332.00           6576         115.00       487.80
  141.00        3332.25           6580         105.00       444.21
  141.03        3332.50           6583         111.00       470.36
  141.05        3332.75           6587         115.00       487.80
  141.08        3333.00           6591         116.00       492.16
  141.11        3333.25           6594         117.00       496.52
  141.14        3333.50           6598         123.00       522.68
  141.17        3333.75           6602         115.00       487.80
  141.19        3334.00           6606         130.00       553.19
  141.22        3334.25           6609         132.00       561.91
  141.25        3334.50           6613         150.00       640.38
  141.28        3334.75           6617         197.00       845.27
  141.30        3335.00           6620         247.00      1063.24
  141.33        3335.25           6624         312.00      1346.61
  141.36        3335.50           6628         396.00      1712.82
  141.39        3335.75           6631         462.00      2000.56
  141.42        3336.00           6635         559.00      2423.46
  141.44        3336.25           6639         637.00      2763.53
  141.47        3336.50           6643        1072.00      4660.22
  141.50        3336.75           6646        2328.00     10137.89
  141.53        3337.00           6650        6139.00     26769.81
  141.56        3337.25           6654       10960.00     47834.17
  141.58        3337.50           6657       14626.00     63870.46
  141.61        3337.75           6661       19600.00     85653.90
  141.64        3338.00           6665       25125.00    109885.00
  141.67        3338.25           6669       30304.00    132631.80
  141.70        3338.50           6672       33882.00    148365.60
  141.72        3338.75           6676       38721.00    169669.10
  141.75        3339.00           6680       43670.00    191486.00
  141.78        3339.25           6683       47892.00    210121.40
  141.81        3339.50           6687       53146.00    233342.20
  141.84        3339.75           6691       58133.00    255414.10
  141.86        3340.00           6694       61936.00    272266.10
  141.89        3340.25           6698       67081.00    295093.00
  141.92        3340.50           6702       72062.00    317223.30
  141.95        3340.75           6706       76756.00    338106.40
  141.98        3341.00           6709       80102.00    353009.00
  142.00        3341.25           6713       84732.00    373653.20
  142.03        3341.50           6717       89193.00    393569.00
  142.06        3341.75           6720       90981.00    401558.50
  142.09        3342.00           6724       91007.00    401674.60
  142.12        3342.25           6728       89405.00    394516.20
  142.14        3342.50           6732       85354.00    376428.60
  142.17        3342.75           6735       81783.00    360501.20
  142.20        3343.00           6739       76442.00    336708.60
  142.23        3343.25           6743       71432.00    314422.50
  142.26        3343.50           6746       68264.00    300346.30
  142.28        3343.75           6750       63635.00    279800.50
  142.31        3344.00           6754       58686.00    257863.50
  142.34        3344.25           6758       53210.00    233625.30
  142.37        3344.50           6761       49149.00    215673.90
  142.40        3344.75           6765       43855.00    192302.10
  142.42        3345.00           6769       38829.00    170144.90
  142.45        3345.25           6772       34596.00    151507.20
  142.48        3345.50           6776       29233.00    127925.20
  142.51        3345.75           6780       24512.00    107194.80
  142.54        3346.00           6784       19606.00     85680.19
  142.56        3346.25           6787       15584.00     68063.69
  142.59        3346.50           6791       10681.00     46614.40
  142.62        3346.75           6795        6179.00     26944.47
  142.65        3347.00           6798        3111.00     13553.65
  142.68        3347.25           6802         981.00      4263.42
  142.70        3347.50           6806         611.00      2650.17
  142.73        3347.75           6810         495.00      2144.43
  142.76        3348.00           6813         413.00      1786.93
  142.79        3348.25           6817         319.00      1377.13
  142.82        3348.50           6821         243.00      1045.81
  142.84        3348.75           6825         198.00       849.63
  142.87        3349.00           6828         171.00       731.93
  142.90        3349.25           6832         152.00       649.10
  142.93        3349.50           6836         136.00       579.35
  142.95        3349.75           6839         117.00       496.52
  142.98        3350.00           6843         118.00       500.88
  143.01        3350.25           6847         128.00       544.47
  143.04        3350.50           6851         115.00       487.80
  143.07        3350.75           6854         116.00       492.16
  143.09        3351.00           6858         111.00       470.36
HL scan finished at 02:23:42
end
************************************************************
  HL Scan of (1) Internal mercury lamp
************************************************************
Integration time is 0.2294 seconds per sample
dh230619El Arenosillo 37.1 6.73 2.965129pr1000
************************************************************
Dead Time -------------------------  3.1E-08 
Number of Cycles Used -------------  4 
Starting Wavelength (Angstroms) ---  3331 
Final Wavelength (Angstoms) -------  3351 
Wavelength Increment (Angstroms) --  .25 
Filter Wheel #1 Position ---------- (1) Ground quartz diffuser (ND=2.32)
Filter Wheel #2 Position ---------- 



************************************************************
HL scan start time = 21:49:45
Dark Count =  2.5 


Time (GMT)  Wavelength (Ang)  Step Number  Raw Counts  Counts/Second

 1310.25        3331.00           6561          92.00       390.15
 1310.47        3331.25           6565         100.00       425.03
 1310.50        3331.50           6569         112.00       477.34
 1310.53        3331.75           6572         105.00       446.82
 1310.56        3332.00           6576         106.00       451.18
 1310.58        3332.25           6580         111.00       472.98
 1310.61        3332.50           6583         108.00       459.90
 1310.64        3332.75           6587         111.00       472.98
 1310.67        3333.00           6591         104.00       442.46
 1310.70        3333.25           6594         118.00       503.50
 1310.72        3333.50           6598         117.00       499.14
 1310.75        3333.75           6602         127.00       542.73
 1310.78        3334.00           6606         128.00       547.09
 1310.81        3334.25           6609         137.00       586.32
 1310.84        3334.50           6613         135.00       577.60
 1310.86        3334.75           6617         165.00       708.39
 1310.89        3335.00           6620         213.00       917.64
 1310.92        3335.25           6624         245.00      1057.14
 1310.95        3335.50           6628         340.00      1471.30
 1310.97        3335.75           6631         435.00      1885.46
 1311.00        3336.00           6635         508.00      2203.73
 1311.03        3336.25           6639         591.00      2565.59
 1311.06        3336.50           6643        1026.00      4462.26
 1311.09        3336.75           6646        2359.00     10275.72
 1311.11        3337.00           6650        7078.00     30873.04
 1311.14        3337.25           6654       12191.00     53219.82
 1311.17        3337.50           6657       15723.00     68674.82
 1311.20        3337.75           6661       20532.00     89741.46
 1311.23        3338.00           6665       25254.00    110453.80
 1311.26        3338.25           6669       29646.00    129742.70
 1311.28        3338.50           6672       33993.00    148856.70
 1311.31        3338.75           6676       39745.00    174183.40
 1311.34        3339.00           6680       45368.00    198980.80
 1311.37        3339.25           6683       49053.00    215252.40
 1311.40        3339.50           6687       53990.00    237078.20
 1311.42        3339.75           6691       58385.00    256532.90
 1311.45        3340.00           6694       62218.00    273519.10
 1311.48        3340.25           6698       67358.00    296325.60
 1311.51        3340.50           6702       72345.00    318484.20
 1311.54        3340.75           6706       77369.00    340838.30
 1311.56        3341.00           6709       81432.00    358939.10
 1311.59        3341.25           6713       86194.00    380180.20
 1311.62        3341.50           6717       90330.00    398651.80
 1311.65        3341.75           6720       92044.00    406312.90
 1311.68        3342.00           6724       92526.00    408467.90
 1311.70        3342.25           6728       91495.00    403858.60
 1311.73        3342.50           6732       86949.00    383550.40
 1311.76        3342.75           6735       83518.00    368240.30
 1311.79        3343.00           6739       78044.00    343844.00
 1311.82        3343.25           6743       73675.00    324399.00
 1311.84        3343.50           6746       69821.00    307265.50
 1311.87        3343.75           6750       64315.00    282819.70
 1311.90        3344.00           6754       59289.00    260537.40
 1311.93        3344.25           6758       54606.00    239803.60
 1311.96        3344.50           6761       51170.00    224607.70
 1311.98        3344.75           6765       45772.00    200763.90
 1312.01        3345.00           6769       40450.00    177290.40
 1312.04        3345.25           6772       36207.00    158600.40
 1312.07        3345.50           6776       31079.00    136041.10
 1312.10        3345.75           6780       26129.00    114294.80
 1312.12        3346.00           6784       20591.00     90000.10
 1312.15        3346.25           6787       16777.00     73289.69
 1312.18        3346.50           6791       12052.00     52611.90
 1312.21        3346.75           6795        7217.00     31480.14
 1312.24        3347.00           6798        3854.00     16798.20
 1312.26        3347.25           6802        1236.00      5377.97
 1312.29        3347.50           6806         666.00      2892.59
 1312.32        3347.75           6810         561.00      2434.80
 1312.35        3348.00           6813         462.00      2003.18
 1312.38        3348.25           6817         371.00      1606.44
 1312.40        3348.50           6821         297.00      1283.84
 1312.43        3348.75           6825         218.00       939.43
 1312.46        3349.00           6828         182.00       782.50
 1312.49        3349.25           6832         164.00       704.03
 1312.51        3349.50           6836         128.00       547.09
 1312.54        3349.75           6839         141.00       603.76
 1312.57        3350.00           6843         118.00       503.50
 1312.60        3350.25           6847         126.00       538.37
 1312.63        3350.50           6851         128.00       547.09
 1312.66        3350.75           6854         116.00       494.78
 1312.69        3351.00           6858         118.00       503.50
HL scan finished at 21:53:18
end
