************************************************************
  HL Scan of (1) Internal mercury lamp
************************************************************
Integration time is 0.2294 seconds per sample
dh250619El Arenosillo 37.1 6.73 3.018777pr1000
************************************************************
Dead Time -------------------------  3.1E-08 
Number of Cycles Used -------------  4 
Starting Wavelength (Angstroms) ---  3331 
Final Wavelength (Angstoms) -------  3351 
Wavelength Increment (Angstroms) --  .25 
Filter Wheel #1 Position ---------- (1) Ground quartz diffuser (ND=2.32)
Filter Wheel #2 Position ---------- 



************************************************************
HL scan start time = 02:10:12
Dark Count =  2.7 


Time (GMT)  Wavelength (Ang)  Step Number  Raw Counts  Counts/Second

  130.71        3331.00           6561         117.00       498.26
  130.92        3331.25           6565         110.00       467.75
  130.95        3331.50           6569         110.00       467.75
  130.98        3331.75           6572         104.00       441.59
  131.01        3332.00           6576         111.00       472.11
  131.04        3332.25           6580         131.00       559.29
  131.06        3332.50           6583         119.00       506.98
  131.09        3332.75           6587         116.00       493.90
  131.12        3333.00           6591         113.00       480.83
  131.15        3333.25           6594         118.00       502.62
  131.18        3333.50           6598         126.00       537.50
  131.20        3333.75           6602         122.00       520.06
  131.23        3334.00           6606         126.00       537.50
  131.26        3334.25           6609         132.00       563.65
  131.29        3334.50           6613         160.00       685.72
  131.31        3334.75           6617         180.00       772.90
  131.34        3335.00           6620         225.00       969.08
  131.37        3335.25           6624         291.00      1256.81
  131.40        3335.50           6628         371.00      1605.57
  131.43        3335.75           6631         462.00      2002.30
  131.46        3336.00           6635         543.00      2355.45
  131.48        3336.25           6639         628.00      2726.04
  131.51        3336.50           6643         980.00      4260.81
  131.54        3336.75           6646        2046.00      8909.61
  131.57        3337.00           6650        6741.00     29400.37
  131.59        3337.25           6654       12120.00     52908.42
  131.62        3337.50           6657       16081.00     70241.28
  131.65        3337.75           6661       21679.00     94769.30
  131.68        3338.00           6665       27086.00    118496.00
  131.71        3338.25           6669       31559.00    138150.60
  131.73        3338.50           6672       35441.00    155227.80
  131.76        3338.75           6676       41104.00    180172.20
  131.79        3339.00           6680       46813.00    205358.60
  131.82        3339.25           6683       50650.00    222308.40
  131.85        3339.50           6687       56750.00    249291.90
  131.87        3339.75           6691       62145.00    273194.50
  131.90        3340.00           6694       65427.00    287752.90
  131.93        3340.25           6698       70054.00    308300.00
  131.96        3340.50           6702       75017.00    330368.40
  131.99        3340.75           6706       79485.00    350261.70
  132.01        3341.00           6709       83146.00    366580.40
  132.04        3341.25           6713       88773.00    391694.70
  132.07        3341.50           6717       93483.00    412746.60
  132.10        3341.75           6720       95511.00    421819.60
  132.13        3342.00           6724       95836.00    423274.00
  132.15        3342.25           6728       94003.00    415072.60
  132.18        3342.50           6732       89894.00    396702.70
  132.21        3342.75           6735       85822.00    378518.90
  132.24        3343.00           6739       81186.00    357841.70
  132.27        3343.25           6743       76365.00    336367.60
  132.29        3343.50           6746       72120.00    317482.90
  132.32        3343.75           6750       66598.00    292950.50
  132.35        3344.00           6754       61735.00    271376.70
  132.38        3344.25           6758       56415.00    247808.80
  132.41        3344.50           6761       52363.00    229881.30
  132.43        3344.75           6765       46910.00    205786.80
  132.46        3345.00           6769       42072.00    184440.00
  132.49        3345.25           6772       37691.00    165134.00
  132.52        3345.50           6776       32293.00    141378.10
  132.55        3345.75           6780       26961.00    117947.00
  132.57        3346.00           6784       21666.00     94712.30
  132.60        3346.25           6787       18441.00     80577.23
  132.63        3346.50           6791       12788.00     55830.20
  132.66        3346.75           6795        7383.00     32204.32
  132.69        3347.00           6798        3828.00     16683.87
  132.71        3347.25           6802        1198.00      5211.39
  132.74        3347.50           6806         685.00      2974.56
  132.77        3347.75           6810         529.00      2294.41
  132.80        3348.00           6813         437.00      1893.31
  132.82        3348.25           6817         365.00      1579.41
  132.85        3348.50           6821         302.00      1304.76
  132.88        3348.75           6825         231.00       995.24
  132.91        3349.00           6828         183.00       785.98
  132.94        3349.25           6832         163.00       698.79
  132.96        3349.50           6836         162.00       694.44
  132.99        3349.75           6839         136.00       581.09
  133.02        3350.00           6843         135.00       576.73
  133.05        3350.25           6847         120.00       511.34
  133.08        3350.50           6851         130.00       554.94
  133.10        3350.75           6854         134.00       572.37
  133.13        3351.00           6858         128.00       546.22
HL scan finished at 02:13:45
end
