************************************************************
  HL Scan of (1) Internal mercury lamp
************************************************************
Integration time is 0.2294 seconds per sample
dh220619El Arenosillo 37.1 6.73 3.018777pr1000
************************************************************
Dead Time -------------------------  3.1E-08 
Number of Cycles Used -------------  4 
Starting Wavelength (Angstroms) ---  3331 
Final Wavelength (Angstoms) -------  3351 
Wavelength Increment (Angstroms) --  .25 
Filter Wheel #1 Position ---------- (1) Ground quartz diffuser (ND=2.32)
Filter Wheel #2 Position ---------- 



************************************************************
HL scan start time = 01:12:35
Dark Count =  6.2 


Time (GMT)  Wavelength (Ang)  Step Number  Raw Counts  Counts/Second

   73.11        3331.00           6561         108.00       443.77
   73.32        3331.25           6565         105.00       430.69
   73.35        3331.50           6569         108.00       443.77
   73.38        3331.75           6572         112.00       461.21
   73.41        3332.00           6576         112.00       461.21
   73.43        3332.25           6580         123.00       509.16
   73.46        3332.50           6583         118.00       487.37
   73.49        3332.75           6587         122.00       504.80
   73.52        3333.00           6591         122.00       504.80
   73.55        3333.25           6594         114.00       469.93
   73.57        3333.50           6598         125.00       517.88
   73.60        3333.75           6602         119.00       491.73
   73.63        3334.00           6606         127.00       526.60
   73.66        3334.25           6609         134.00       557.12
   73.69        3334.50           6613         132.00       548.40
   73.71        3334.75           6617         154.00       644.30
   73.74        3335.00           6620         198.00       836.12
   73.77        3335.25           6624         233.00       988.70
   73.80        3335.50           6628         323.00      1381.05
   73.83        3335.75           6631         402.00      1725.46
   73.85        3336.00           6635         512.00      2205.03
   73.88        3336.25           6639         564.00      2431.74
   73.91        3336.50           6643         763.00      3299.38
   73.94        3336.75           6646        1429.00      6203.46
   73.97        3337.00           6650        5183.00     22582.50
   73.99        3337.25           6654       10575.00     46137.43
   74.02        3337.50           6657       14662.00     64014.44
   74.05        3337.75           6661       19939.00     87126.02
   74.08        3338.00           6665       24889.00    108835.60
   74.11        3338.25           6669       29996.00    131264.50
   74.13        3338.50           6672       34112.00    149363.90
   74.16        3338.75           6676       39477.00    172986.20
   74.19        3339.00           6680       45767.00    200725.50
   74.22        3339.25           6683       50138.00    220030.20
   74.25        3339.50           6687       55625.00    244296.50
   74.27        3339.75           6691       60583.00    266254.90
   74.30        3340.00           6694       64518.00    283703.90
   74.33        3340.25           6698       69700.00    306711.50
   74.36        3340.50           6702       74832.00    329529.60
   74.39        3340.75           6706       79856.00    351899.00
   74.41        3341.00           6709       84104.00    370837.70
   74.44        3341.25           6713       89484.00    394855.20
   74.47        3341.50           6717       94350.00    416609.10
   74.50        3341.75           6720       97241.00    429547.70
   74.53        3342.00           6724       98641.00    435817.10
   74.55        3342.25           6728       97845.00    432252.20
   74.58        3342.50           6732       95119.00    420049.80
   74.61        3342.75           6735       91122.00    402174.80
   74.64        3343.00           6739       85463.00    376901.20
   74.67        3343.25           6743       80492.00    354733.10
   74.69        3343.50           6746       76507.00    336984.10
   74.72        3343.75           6750       71156.00    313182.00
   74.75        3344.00           6754       65506.00    288088.00
   74.78        3344.25           6758       60266.00    264850.00
   74.81        3344.50           6761       56373.00    247607.40
   74.83        3344.75           6765       51475.00    225939.70
   74.86        3345.00           6769       45789.00    200822.60
   74.89        3345.25           6772       41302.00    181029.70
   74.92        3345.50           6776       35451.00    155256.40
   74.95        3345.75           6780       30173.00    132042.50
   74.97        3346.00           6784       24834.00    108594.30
   75.00        3346.25           6787       20625.00     90132.93
   75.03        3346.50           6791       15334.00     66955.75
   75.06        3346.75           6795       10048.00     43833.72
   75.09        3347.00           6798        6301.00     27463.65
   75.11        3347.25           6802        2338.00     10167.98
   75.14        3347.50           6806         880.00      3809.52
   75.17        3347.75           6810         652.00      2815.42
   75.20        3348.00           6813         525.00      2261.71
   75.23        3348.25           6817         462.00      1987.04
   75.25        3348.50           6821         354.00      1516.20
   75.28        3348.75           6825         275.00      1171.79
   75.31        3349.00           6828         226.00       958.18
   75.34        3349.25           6832         198.00       836.12
   75.37        3349.50           6836         168.00       705.33
   75.39        3349.75           6839         146.00       609.43
   75.42        3350.00           6843         151.00       631.22
   75.45        3350.25           6847         129.00       535.32
   75.48        3350.50           6851         129.00       535.32
   75.51        3350.75           6854         127.00       526.60
   75.53        3351.00           6858         123.00       509.16
HL scan finished at 01:16:09
end
