************************************************************
  HS Scan of (1) Internal mercury lamp
************************************************************
Integration time is 0.2294 seconds per sample
dh060117Madrid 40.45 3.717 2.750537pr940
************************************************************
Dead Time -------------------------  2.6E-08 
Number of Cycles Used -------------  4 
Starting Wavelength (Angstroms) ---  2950 
Final Wavelength (Angstoms) -------  2984 
Wavelength Increment (Angstroms) --  .25 
Filter Wheel #1 Position ---------- (1) Ground quartz diffuser (ND=2.32)
Filter Wheel #2 Position ---------- (1) Neutral Density 0.494



************************************************************
HS scan start time = 01:07:46
Dark Count =  3.4 


Time (GMT)  Wavelength (Ang)  Step Number  Raw Counts  Counts/Second

   68.13        2950.00           1237          94.00       394.95
   68.19        2950.25           1240          85.00       355.71
   68.22        2950.50           1244          79.00       329.56
   68.25        2950.75           1247          88.00       368.79
   68.27        2951.00           1250          83.00       347.00
   68.30        2951.25           1254          84.00       351.35
   68.33        2951.50           1257          90.00       377.51
   68.36        2951.75           1260          84.00       351.35
   68.39        2952.00           1264          77.00       320.84
   68.42        2952.25           1267          82.00       342.64
   68.45        2952.50           1270          77.00       320.84
   68.48        2952.75           1273          78.00       325.20
   68.51        2953.00           1277          83.00       347.00
   68.54        2953.25           1280          85.00       355.71
   68.57        2953.50           1283         103.00       434.18
   68.59        2953.75           1287          87.00       364.43
   68.62        2954.00           1290          87.00       364.43
   68.65        2954.25           1293          84.00       351.35
   68.68        2954.50           1297          97.00       408.03
   68.71        2954.75           1300          95.00       399.31
   68.73        2955.00           1303          83.00       347.00
   68.76        2955.25           1307          94.00       394.95
   68.79        2955.50           1310         102.00       429.82
   68.82        2955.75           1313          97.00       408.03
   68.85        2956.00           1317          99.00       416.74
   68.87        2956.25           1320          92.00       386.23
   68.90        2956.50           1323          98.00       412.38
   68.93        2956.75           1326         107.00       451.62
   68.96        2957.00           1330         121.00       512.65
   68.99        2957.25           1333         111.00       469.06
   69.01        2957.50           1336         125.00       530.09
   69.04        2957.75           1340         124.00       525.73
   69.07        2958.00           1343         126.00       534.45
   69.10        2958.25           1346         131.00       556.24
   69.13        2958.50           1350         133.00       564.96
   69.15        2958.75           1353         136.00       578.04
   69.18        2959.00           1356         154.00       656.51
   69.21        2959.25           1360         166.00       708.82
   69.24        2959.50           1363         234.00      1005.26
   69.27        2959.75           1366         328.00      1415.05
   69.29        2960.00           1370         456.00      1973.07
   69.32        2960.25           1373         689.00      2988.90
   69.35        2960.50           1376         823.00      3573.13
   69.38        2960.75           1380         990.00      4301.27
   69.41        2961.00           1383        1264.00      5495.99
   69.43        2961.25           1386        1499.00      6520.72
   69.46        2961.50           1390        3392.00     14777.26
   69.49        2961.75           1393        6757.00     29462.84
   69.52        2962.00           1396       12180.00     53153.62
   69.55        2962.25           1399       18193.00     79456.05
   69.58        2962.50           1403       26481.00    115769.10
   69.60        2962.75           1406       32592.00    142587.80
   69.63        2963.00           1409       38241.00    167412.40
   69.66        2963.25           1413       46406.00    203350.40
   69.69        2963.50           1416       52351.00    229559.60
   69.72        2963.75           1419       58553.00    256940.10
   69.74        2964.00           1423       67015.00    294361.10
   69.77        2964.25           1426       73268.00    322060.50
   69.80        2964.50           1429       79372.00    349138.50
   69.83        2964.75           1433       86603.00    381265.60
   69.86        2965.00           1436       92270.00    406481.70
   69.89        2965.25           1439       98581.00    434602.50
   69.91        2965.50           1443      106716.00    470912.00
   69.94        2965.75           1446      112826.00    498228.50
   69.97        2966.00           1449      119410.00    527708.00
   70.00        2966.25           1453      126997.00    561734.90
   70.03        2966.50           1456      130818.00    578894.60
   70.05        2966.75           1459      132850.00    588026.40
   70.08        2967.00           1463      133169.00    589460.40
   70.11        2967.25           1466      132949.00    588471.50
   70.14        2967.50           1469      132760.00    587621.80
   70.17        2967.75           1473      129819.00    574406.70
   70.19        2968.00           1476      125852.00    556595.80
   70.22        2968.25           1479      120657.00    533296.50
   70.25        2968.50           1483      113135.00    499611.00
   70.28        2968.75           1486      107113.00    472685.70
   70.31        2969.00           1489      100483.00    443085.60
   70.34        2969.25           1493       92332.00    406757.70
   70.36        2969.50           1496       86736.00    381857.00
   70.39        2969.75           1499       80736.00    355194.50
   70.42        2970.00           1502       73959.00    325123.90
   70.45        2970.25           1506       66449.00    291855.80
   70.48        2970.50           1509       60044.00    263528.40
   70.50        2970.75           1512       53586.00    235008.80
   70.53        2971.00           1516       45828.00    200804.20
   70.56        2971.25           1519       39527.00    173068.20
   70.59        2971.50           1522       33162.00    145091.20
   70.62        2971.75           1526       25228.00    110274.70
   70.64        2972.00           1529       19537.00     85339.98
   70.67        2972.25           1532       14390.00     62816.55
   70.70        2972.50           1536        7485.00     32641.47
   70.73        2972.75           1539        3392.00     14777.26
   70.76        2973.00           1542        1858.00      8086.27
   70.78        2973.25           1546        1412.00      6141.35
   70.81        2973.50           1549        1152.00      5007.63
   70.84        2973.75           1552         991.00      4305.63
   70.87        2974.00           1556         796.00      3455.41
   70.90        2974.25           1559         564.00      2443.92
   70.92        2974.50           1562         438.00      1894.60
   70.95        2974.75           1566         292.00      1258.11
   70.98        2975.00           1569         182.00       778.57
   71.01        2975.25           1572         161.00       687.02
   71.04        2975.50           1576         150.00       639.07
   71.06        2975.75           1579         154.00       656.51
   71.09        2976.00           1582         135.00       573.68
   71.12        2976.25           1586         133.00       564.96
   71.15        2976.50           1589         131.00       556.24
   71.18        2976.75           1592         109.00       460.34
   71.20        2977.00           1596         109.00       460.34
   71.23        2977.25           1599         116.00       490.85
   71.26        2977.50           1602         109.00       460.34
   71.29        2977.75           1606         112.00       473.41
   71.32        2978.00           1609         106.00       447.26
   71.34        2978.25           1612          95.00       399.31
   71.37        2978.50           1616          90.00       377.51
   71.40        2978.75           1619          93.00       390.59
   71.43        2979.00           1622          96.00       403.67
   71.46        2979.25           1626          93.00       390.59
   71.48        2979.50           1629          88.00       368.79
   71.51        2979.75           1632          97.00       408.03
   71.54        2980.00           1636          90.00       377.51
   71.57        2980.25           1639          85.00       355.71
   71.60        2980.50           1642          86.00       360.07
   71.62        2980.75           1646          76.00       316.48
   71.65        2981.00           1649          86.00       360.07
   71.68        2981.25           1652          81.00       338.28
   71.71        2981.50           1656          83.00       347.00
   71.74        2981.75           1659          90.00       377.51
   71.76        2982.00           1662          89.00       373.15
   71.79        2982.25           1666          84.00       351.35
   71.82        2982.50           1669          83.00       347.00
   71.85        2982.75           1672          74.00       307.76
   71.88        2983.00           1676          81.00       338.28
   71.90        2983.25           1679          80.00       333.92
   71.93        2983.50           1682          79.00       329.56
   71.96        2983.75           1686          75.00       312.12
   71.99        2984.00           1689          82.00       342.64
HS scan finished at 01:12:10
end
