************************************************************
  HS Scan of (1) Internal mercury lamp
************************************************************
Integration time is 0.2294 seconds per sample
dh130117Madrid 40.45 3.717 2.750537pr940
************************************************************
Dead Time -------------------------  2.6E-08 
Number of Cycles Used -------------  4 
Starting Wavelength (Angstroms) ---  2950 
Final Wavelength (Angstoms) -------  2984 
Wavelength Increment (Angstroms) --  .25 
Filter Wheel #1 Position ---------- (1) Ground quartz diffuser (ND=2.32)
Filter Wheel #2 Position ---------- (1) Neutral Density 0.494



************************************************************
HS scan start time = 01:10:39
Dark Count =  2.8 


Time (GMT)  Wavelength (Ang)  Step Number  Raw Counts  Counts/Second

   71.00        2950.00           1237          79.00       332.17
   71.07        2950.25           1240          79.00       332.17
   71.09        2950.50           1244          87.00       367.05
   71.12        2950.75           1247          87.00       367.05
   71.15        2951.00           1250          78.00       327.81
   71.18        2951.25           1254          85.00       358.33
   71.21        2951.50           1257          77.00       323.46
   71.23        2951.75           1260          92.00       388.84
   71.26        2952.00           1264          90.00       380.13
   71.29        2952.25           1267          84.00       353.97
   71.32        2952.50           1270          92.00       388.84
   71.34        2952.75           1273          79.00       332.17
   71.37        2953.00           1277          90.00       380.13
   71.40        2953.25           1280          88.00       371.41
   71.43        2953.50           1283          93.00       393.20
   71.46        2953.75           1287          85.00       358.33
   71.48        2954.00           1290          82.00       345.25
   71.51        2954.25           1293          89.00       375.77
   71.54        2954.50           1297          87.00       367.05
   71.57        2954.75           1300         101.00       428.08
   71.59        2955.00           1303          78.00       327.81
   71.62        2955.25           1307          99.00       419.36
   71.65        2955.50           1310          97.00       410.64
   71.68        2955.75           1313          97.00       410.64
   71.71        2956.00           1317          96.00       406.28
   71.73        2956.25           1320          92.00       388.84
   71.76        2956.50           1323          98.00       415.00
   71.79        2956.75           1326         105.00       445.52
   71.82        2957.00           1330         109.00       462.95
   71.85        2957.25           1333         115.00       489.11
   71.87        2957.50           1336         113.00       480.39
   71.90        2957.75           1340         121.00       515.26
   71.93        2958.00           1343         122.00       519.62
   71.96        2958.25           1346         137.00       585.01
   71.98        2958.50           1350         136.00       580.65
   72.01        2958.75           1353         140.00       598.09
   72.04        2959.00           1356         152.00       650.40
   72.07        2959.25           1360         168.00       720.15
   72.10        2959.50           1363         224.00       964.28
   72.12        2959.75           1366         317.00      1369.71
   72.15        2960.00           1370         446.00      1932.09
   72.18        2960.25           1373         658.00      2856.36
   72.21        2960.50           1376         802.00      3484.19
   72.23        2960.75           1380         991.00      4308.24
   72.26        2961.00           1383        1227.00      5337.27
   72.29        2961.25           1386        1420.00      6178.85
   72.32        2961.50           1390        2873.00     12515.84
   72.35        2961.75           1393        6045.00     26357.20
   72.38        2962.00           1396       10939.00     47732.26
   72.40        2962.25           1399       17185.00     75046.90
   72.43        2962.50           1403       25472.00    111347.20
   72.46        2962.75           1406       31477.00    137694.30
   72.49        2963.00           1409       37982.00    166276.10
   72.52        2963.25           1413       46025.00    201674.60
   72.54        2963.50           1416       51538.00    225976.00
   72.57        2963.75           1419       57088.00    250471.50
   72.60        2964.00           1423       63490.00    278766.50
   72.63        2964.25           1426       69366.00    304773.50
   72.66        2964.50           1429       75659.00    332665.30
   72.68        2964.75           1433       83039.00    365426.80
   72.71        2965.00           1436       89364.00    393549.60
   72.74        2965.25           1439       94989.00    418594.70
   72.77        2965.50           1443      102703.00    452994.60
   72.80        2965.75           1446      108316.00    478064.10
   72.82        2966.00           1449      114254.00    504621.10
   72.85        2966.25           1453      121523.00    537181.10
   72.88        2966.50           1456      126011.00    557312.00
   72.91        2966.75           1459      129597.00    573412.30
   72.94        2967.00           1463      131605.00    582433.60
   72.97        2967.25           1466      131308.00    581099.00
   72.99        2967.50           1469      131102.00    580173.30
   73.02        2967.75           1473      130405.00    577041.80
   73.05        2968.00           1476      127874.00    565674.70
   73.08        2968.25           1479      123659.00    546759.50
   73.11        2968.50           1483      116569.00    514984.70
   73.13        2968.75           1486      110129.00    486168.60
   73.16        2969.00           1489      103317.00    455735.30
   73.19        2969.25           1493       94010.00    414233.40
   73.22        2969.50           1496       87867.00    386889.80
   73.25        2969.75           1499       81741.00    359660.60
   73.27        2970.00           1502       75068.00    330044.20
   73.30        2970.25           1506       66259.00    291017.60
   73.33        2970.50           1509       59808.00    262488.00
   73.36        2970.75           1512       52925.00    232094.70
   73.39        2971.00           1516       45367.00    198776.20
   73.41        2971.25           1519       39622.00    173488.70
   73.44        2971.50           1522       33838.00    148063.20
   73.47        2971.75           1526       26091.00    114061.40
   73.50        2972.00           1529       20103.00     87821.05
   73.53        2972.25           1532       14362.00     62696.72
   73.55        2972.50           1536        6957.00     30338.66
   73.58        2972.75           1539        3354.00     14614.10
   73.61        2973.00           1542        1998.00      8699.44
   73.64        2973.25           1546        1462.00      6361.99
   73.67        2973.50           1549        1219.00      5302.39
   73.69        2973.75           1552        1047.00      4552.41
   73.72        2974.00           1556         873.00      3793.75
   73.75        2974.25           1559         647.00      2808.40
   73.78        2974.50           1562         498.00      2158.80
   73.80        2974.75           1566         353.00      1526.65
   73.83        2975.00           1569         223.00       959.92
   73.86        2975.25           1572         170.00       728.87
   73.89        2975.50           1576         162.00       694.00
   73.92        2975.75           1579         153.00       654.76
   73.94        2976.00           1582         135.00       576.29
   73.97        2976.25           1586         129.00       550.14
   74.00        2976.50           1589         119.00       506.55
   74.03        2976.75           1592         125.00       532.70
   74.06        2977.00           1596         109.00       462.95
   74.08        2977.25           1599         113.00       480.39
   74.11        2977.50           1602         117.00       497.83
   74.14        2977.75           1606         101.00       428.08
   74.17        2978.00           1609         107.00       454.23
   74.19        2978.25           1612          96.00       406.28
   74.22        2978.50           1616          91.00       384.49
   74.25        2978.75           1619          99.00       419.36
   74.28        2979.00           1622          93.00       393.20
   74.31        2979.25           1626          95.00       401.92
   74.34        2979.50           1629          78.00       327.81
   74.37        2979.75           1632          87.00       367.05
   74.40        2980.00           1636          89.00       375.77
   74.43        2980.25           1639          83.00       349.61
   74.45        2980.50           1642          86.00       362.69
   74.48        2980.75           1646          96.00       406.28
   74.51        2981.00           1649          85.00       358.33
   74.54        2981.25           1652          79.00       332.17
   74.56        2981.50           1656          79.00       332.17
   74.59        2981.75           1659          84.00       353.97
   74.62        2982.00           1662          88.00       371.41
   74.65        2982.25           1666          70.00       292.94
   74.68        2982.50           1669          81.00       340.89
   74.70        2982.75           1672          89.00       375.77
   74.73        2983.00           1676          79.00       332.17
   74.76        2983.25           1679          70.00       292.94
   74.79        2983.50           1682          82.00       345.25
   74.82        2983.75           1686          84.00       353.97
   74.84        2984.00           1689          79.00       332.17
HS scan finished at 01:15:01
end
