************************************************************
  HS Scan of (1) Internal mercury lamp
************************************************************
Integration time is 0.2294 seconds per sample
dh200117Madrid 40.45 3.717 2.750537pr940
************************************************************
Dead Time -------------------------  2.6E-08 
Number of Cycles Used -------------  4 
Starting Wavelength (Angstroms) ---  2950 
Final Wavelength (Angstoms) -------  2984 
Wavelength Increment (Angstroms) --  .25 
Filter Wheel #1 Position ---------- (1) Ground quartz diffuser (ND=2.32)
Filter Wheel #2 Position ---------- (1) Neutral Density 0.494



************************************************************
HS scan start time = 01:13:00
Dark Count =  3.9 


Time (GMT)  Wavelength (Ang)  Step Number  Raw Counts  Counts/Second

   73.36        2950.00           1237          83.00       344.82
   73.42        2950.25           1240          84.00       349.17
   73.45        2950.50           1244          84.00       349.17
   73.48        2950.75           1247          78.00       323.02
   73.50        2951.00           1250          87.00       362.25
   73.53        2951.25           1254          76.00       314.30
   73.56        2951.50           1257          74.00       305.58
   73.59        2951.75           1260          86.00       357.89
   73.62        2952.00           1264          90.00       375.33
   73.65        2952.25           1267          78.00       323.02
   73.67        2952.50           1270          92.00       384.05
   73.70        2952.75           1273          81.00       336.10
   73.73        2953.00           1277          83.00       344.82
   73.76        2953.25           1280          83.00       344.82
   73.78        2953.50           1283          80.00       331.74
   73.81        2953.75           1287          88.00       366.61
   73.84        2954.00           1290          94.00       392.77
   73.87        2954.25           1293          90.00       375.33
   73.90        2954.50           1297          79.00       327.38
   73.92        2954.75           1300          95.00       397.13
   73.95        2955.00           1303          93.00       388.41
   73.98        2955.25           1307          88.00       366.61
   74.02        2955.50           1310          92.00       384.05
   74.05        2955.75           1313          94.00       392.77
   74.08        2956.00           1317         106.00       445.08
   74.11        2956.25           1320         100.00       418.92
   74.14        2956.50           1323         100.00       418.92
   74.16        2956.75           1326         123.00       519.19
   74.19        2957.00           1330         115.00       484.31
   74.22        2957.25           1333         121.00       510.47
   74.25        2957.50           1336         117.00       493.03
   74.28        2957.75           1340         126.00       532.27
   74.31        2958.00           1343         125.00       527.91
   74.33        2958.25           1346         130.00       549.70
   74.36        2958.50           1350         132.00       558.42
   74.39        2958.75           1353         139.00       588.94
   74.42        2959.00           1356         150.00       636.89
   74.45        2959.25           1360         167.00       711.00
   74.47        2959.50           1363         290.00      1247.21
   74.50        2959.75           1366         340.00      1465.18
   74.53        2960.00           1370         511.00      2210.68
   74.56        2960.25           1373         701.00      3039.04
   74.58        2960.50           1376         860.00      3732.27
   74.61        2960.75           1380        1044.00      4534.54
   74.64        2961.00           1383        1339.00      5820.85
   74.67        2961.25           1386        1754.00      7630.55
   74.70        2961.50           1390        4063.00     17702.57
   74.72        2961.75           1393        7798.00     34006.08
   74.75        2962.00           1396       13166.00     57461.99
   74.78        2962.25           1399       19665.00     85898.26
   74.81        2962.50           1403       28156.00    123114.00
   74.84        2962.75           1406       34776.00    152179.40
   74.87        2963.00           1409       40410.00    176950.40
   74.89        2963.25           1413       49386.00    216481.40
   74.92        2963.50           1416       55369.00    242876.30
   74.95        2963.75           1419       60723.00    266527.20
   74.98        2964.00           1423       67855.00    298077.50
   75.01        2964.25           1426       73639.00    323703.00
   75.03        2964.50           1429       79574.00    350033.00
   75.06        2964.75           1433       87466.00    385101.30
   75.09        2965.00           1436       94087.00    414571.50
   75.12        2965.25           1439      100206.00    441847.70
   75.15        2965.50           1443      107819.00    475838.10
   75.17        2965.75           1446      113397.00    500781.00
   75.20        2966.00           1449      119083.00    526240.50
   75.23        2966.25           1453      126557.00    559757.60
   75.26        2966.50           1456      131226.00    580725.50
   75.29        2966.75           1459      132512.00    586504.80
   75.31        2967.00           1463      133150.00    589372.70
   75.34        2967.25           1466      132898.00    588239.90
   75.37        2967.50           1469      132529.00    586581.30
   75.40        2967.75           1473      129122.00    571273.90
   75.43        2968.00           1476      124184.00    549109.50
   75.46        2968.25           1479      119755.00    529251.70
   75.48        2968.50           1483      112180.00    495336.20
   75.51        2968.75           1486      105938.00    467434.20
   75.54        2969.00           1489       99576.00    439037.60
   75.57        2969.25           1493       92203.00    406181.10
   75.60        2969.50           1496       85758.00    377506.30
   75.62        2969.75           1499       79074.00    347813.40
   75.65        2970.00           1502       72724.00    319646.90
   75.68        2970.25           1506       65443.00    287401.60
   75.71        2970.50           1509       59200.00    259796.50
   75.74        2970.75           1512       52621.00    230748.60
   75.77        2971.00           1516       44646.00    195595.90
   75.79        2971.25           1519       39325.00    172177.50
   75.82        2971.50           1522       32664.00    142901.80
   75.85        2971.75           1526       25332.00    110728.50
   75.88        2972.00           1529       19510.00     85219.56
   75.91        2972.25           1532       13169.00     57475.10
   75.93        2972.50           1536        5842.00     25466.29
   75.96        2972.75           1539        2969.00     12929.81
   75.99        2973.00           1542        1763.00      7669.79
   76.02        2973.25           1546        1331.00      5785.96
   76.05        2973.50           1549        1061.00      4608.66
   76.07        2973.75           1552         877.00      3806.39
   76.10        2974.00           1556         726.00      3148.03
   76.13        2974.25           1559         523.00      2262.99
   76.16        2974.50           1562         358.00      1543.65
   76.19        2974.75           1566         249.00      1068.47
   76.22        2975.00           1569         187.00       798.19
   76.24        2975.25           1572         163.00       693.56
   76.27        2975.50           1576         142.00       602.01
   76.30        2975.75           1579         135.00       571.50
   76.33        2976.00           1582         147.00       623.81
   76.36        2976.25           1586         132.00       558.42
   76.38        2976.50           1589         120.00       506.11
   76.41        2976.75           1592         117.00       493.03
   76.44        2977.00           1596         120.00       506.11
   76.47        2977.25           1599         110.00       462.52
   76.50        2977.50           1602         109.00       458.16
   76.52        2977.75           1606         108.00       453.80
   76.55        2978.00           1609         104.00       436.36
   76.58        2978.25           1612          97.00       405.85
   76.61        2978.50           1616          99.00       414.56
   76.64        2978.75           1619          97.00       405.85
   76.66        2979.00           1622         100.00       418.92
   76.69        2979.25           1626          91.00       379.69
   76.72        2979.50           1629          92.00       384.05
   76.75        2979.75           1632          91.00       379.69
   76.77        2980.00           1636          89.00       370.97
   76.80        2980.25           1639          83.00       344.82
   76.83        2980.50           1642          88.00       366.61
   76.86        2980.75           1646          83.00       344.82
   76.89        2981.00           1649          90.00       375.33
   76.91        2981.25           1652          91.00       379.69
   76.94        2981.50           1656          85.00       353.53
   76.97        2981.75           1659          81.00       336.10
   77.00        2982.00           1662          76.00       314.30
   77.03        2982.25           1666          79.00       327.38
   77.05        2982.50           1669          81.00       336.10
   77.08        2982.75           1672          87.00       362.25
   77.11        2983.00           1676          80.00       331.74
   77.14        2983.25           1679          69.00       283.79
   77.17        2983.50           1682          76.00       314.30
   77.19        2983.75           1686          82.00       340.46
   77.22        2984.00           1689          76.00       314.30
HS scan finished at 01:17:24
end
