************************************************************
  HS Scan of (1) Internal mercury lamp
************************************************************
Integration time is 0.2294 seconds per sample
dh270117Madrid 40.45 3.717 2.750537pr940
************************************************************
Dead Time -------------------------  2.6E-08 
Number of Cycles Used -------------  4 
Starting Wavelength (Angstroms) ---  2950 
Final Wavelength (Angstoms) -------  2984 
Wavelength Increment (Angstroms) --  .25 
Filter Wheel #1 Position ---------- (1) Ground quartz diffuser (ND=2.32)
Filter Wheel #2 Position ---------- (1) Neutral Density 0.494



************************************************************
HS scan start time = 01:14:39
Dark Count =  1.7 


Time (GMT)  Wavelength (Ang)  Step Number  Raw Counts  Counts/Second

   75.01        2950.00           1237          91.00       389.28
   75.07        2950.25           1240          85.00       363.12
   75.10        2950.50           1244          82.00       350.05
   75.13        2950.75           1247          89.00       380.56
   75.15        2951.00           1250          86.00       367.48
   75.18        2951.25           1254          88.00       376.20
   75.21        2951.50           1257          67.00       284.66
   75.24        2951.75           1260          81.00       345.69
   75.27        2952.00           1264          83.00       354.41
   75.30        2952.25           1267          79.00       336.97
   75.32        2952.50           1270          96.00       411.08
   75.35        2952.75           1273          80.00       341.33
   75.38        2953.00           1277          83.00       354.41
   75.41        2953.25           1280          88.00       376.20
   75.43        2953.50           1283          81.00       345.69
   75.46        2953.75           1287          84.00       358.77
   75.49        2954.00           1290          81.00       345.69
   75.52        2954.25           1293         100.00       428.51
   75.55        2954.50           1297          80.00       341.33
   75.57        2954.75           1300          95.00       406.72
   75.60        2955.00           1303          90.00       384.92
   75.63        2955.25           1307          90.00       384.92
   75.66        2955.50           1310          85.00       363.12
   75.69        2955.75           1313         101.00       432.87
   75.71        2956.00           1317          90.00       384.92
   75.74        2956.25           1320         104.00       445.95
   75.77        2956.50           1323          97.00       415.44
   75.80        2956.75           1326         101.00       432.87
   75.83        2957.00           1330         106.00       454.67
   75.85        2957.25           1333         116.00       498.26
   75.88        2957.50           1336         110.00       472.11
   75.91        2957.75           1340         119.00       511.34
   75.94        2958.00           1343         121.00       520.06
   75.97        2958.25           1346         129.00       554.93
   75.99        2958.50           1350         130.00       559.29
   76.02        2958.75           1353         140.00       602.89
   76.05        2959.00           1356         153.00       659.56
   76.08        2959.25           1360         181.00       781.62
   76.11        2959.50           1363         231.00       999.59
   76.14        2959.75           1366         366.00      1588.12
   76.17        2960.00           1370         503.00      2185.39
   76.19        2960.25           1373         711.00      3092.23
   76.22        2960.50           1376         875.00      3807.26
   76.25        2960.75           1380        1044.00      4544.13
   76.28        2961.00           1383        1300.00      5660.38
   76.31        2961.25           1386        1531.00      6667.68
   76.33        2961.50           1390        3080.00     13423.60
   76.36        2961.75           1393        6449.00     28125.62
   76.39        2962.00           1396       11416.00     49821.69
   76.42        2962.25           1399       17058.00     74495.95
   76.45        2962.50           1403       25397.00    111023.20
   76.48        2962.75           1406       31748.00    138889.10
   76.50        2963.00           1409       38116.00    166870.20
   76.53        2963.25           1413       46360.00    203155.30
   76.56        2963.50           1416       52702.00    231115.70
   76.59        2963.75           1419       58649.00    257371.70
   76.62        2964.00           1423       65745.00    288747.70
   76.65        2964.25           1426       71226.00    313018.00
   76.67        2964.50           1429       76829.00    337860.30
   76.70        2964.75           1433       84778.00    373159.60
   76.73        2965.00           1436       90156.00    397078.80
   76.76        2965.25           1439       96637.00    425943.50
   76.78        2965.50           1443      104249.00    459901.10
   76.81        2965.75           1446      109279.00    482373.40
   76.84        2966.00           1449      114922.00    507615.90
   76.87        2966.25           1453      121945.00    539078.10
   76.90        2966.50           1456      126581.00    559875.20
   76.93        2966.75           1459      130203.00    576139.30
   76.95        2967.00           1463      131484.00    581894.80
   76.98        2967.25           1466      131563.00    582249.80
   77.01        2967.50           1469      131791.00    583274.30
   77.04        2967.75           1473      130211.00    576175.30
   77.07        2968.00           1476      127109.00    562245.30
   77.09        2968.25           1479      123050.00    544033.00
   77.12        2968.50           1483      115708.00    511134.40
   77.15        2968.75           1486      109919.00    485234.60
   77.18        2969.00           1489      103668.00    457307.10
   77.21        2969.25           1493       94872.00    418078.30
   77.24        2969.50           1496       88423.00    389367.90
   77.26        2969.75           1499       82289.00    362099.60
   77.29        2970.00           1502       76018.00    334262.50
   77.32        2970.25           1506       66651.00    292757.40
   77.35        2970.50           1509       59798.00    262448.70
   77.38        2970.75           1512       53220.00    233401.20
   77.40        2971.00           1516       45060.00    197428.90
   77.43        2971.25           1519       39748.00    174047.90
   77.46        2971.50           1522       33657.00    147273.00
   77.49        2971.75           1526       25277.00    110497.00
   77.52        2972.00           1529       19582.00     85544.46
   77.55        2972.25           1532       13512.00     58984.46
   77.57        2972.50           1536        5812.00     25344.95
   77.60        2972.75           1539        2899.00     12634.05
   77.63        2973.00           1542        1666.00      7256.38
   77.66        2973.25           1546        1222.00      5320.27
   77.69        2973.50           1549        1023.00      4452.56
   77.71        2973.75           1552         867.00      3772.38
   77.74        2974.00           1556         719.00      3127.11
   77.77        2974.25           1559         481.00      2089.48
   77.80        2974.50           1562         336.00      1457.34
   77.83        2974.75           1566         235.00      1017.03
   77.85        2975.00           1569         170.00       733.67
   77.88        2975.25           1572         151.00       650.84
   77.91        2975.50           1576         148.00       637.76
   77.94        2975.75           1579         145.00       624.68
   77.97        2976.00           1582         125.00       537.50
   77.99        2976.25           1586         133.00       572.37
   78.02        2976.50           1589         123.00       528.78
   78.05        2976.75           1592         126.00       541.86
   78.08        2977.00           1596         110.00       472.11
   78.11        2977.25           1599         108.00       463.39
   78.14        2977.50           1602         115.00       493.90
   78.16        2977.75           1606         109.00       467.75
   78.19        2978.00           1609         113.00       485.18
   78.22        2978.25           1612          92.00       393.64
   78.25        2978.50           1616          99.00       424.15
   78.28        2978.75           1619          92.00       393.64
   78.30        2979.00           1622          89.00       380.56
   78.33        2979.25           1626          96.00       411.08
   78.36        2979.50           1629          90.00       384.92
   78.39        2979.75           1632          93.00       398.00
   78.41        2980.00           1636          89.00       380.56
   78.44        2980.25           1639          94.00       402.36
   78.47        2980.50           1642          94.00       402.36
   78.50        2980.75           1646          88.00       376.20
   78.53        2981.00           1649          81.00       345.69
   78.55        2981.25           1652          90.00       384.92
   78.58        2981.50           1656          90.00       384.92
   78.61        2981.75           1659          85.00       363.12
   78.64        2982.00           1662          88.00       376.20
   78.66        2982.25           1666          88.00       376.20
   78.69        2982.50           1669          81.00       345.69
   78.72        2982.75           1672          80.00       341.33
   78.75        2983.00           1676          79.00       336.97
   78.78        2983.25           1679          86.00       367.48
   78.80        2983.50           1682          88.00       376.20
   78.83        2983.75           1686          79.00       336.97
   78.86        2984.00           1689          77.00       328.25
HS scan finished at 01:19:02
end
