************************************************************
  HS Scan of (1) Internal mercury lamp
************************************************************
Integration time is 0.2294 seconds per sample
dh100217Madrid 40.45 3.717 2.750537pr940
************************************************************
Dead Time -------------------------  2.6E-08 
Number of Cycles Used -------------  4 
Starting Wavelength (Angstroms) ---  2950 
Final Wavelength (Angstoms) -------  2984 
Wavelength Increment (Angstroms) --  .25 
Filter Wheel #1 Position ---------- (1) Ground quartz diffuser (ND=2.32)
Filter Wheel #2 Position ---------- (1) Neutral Density 0.494



************************************************************
HS scan start time = 01:16:14
Dark Count =  4.8 


Time (GMT)  Wavelength (Ang)  Step Number  Raw Counts  Counts/Second

   76.60        2950.00           1237          70.00       284.22
   76.66        2950.25           1240          80.00       327.81
   76.69        2950.50           1244          97.00       401.92
   76.72        2950.75           1247          89.00       367.05
   76.75        2951.00           1250          85.00       349.61
   76.78        2951.25           1254          86.00       353.97
   76.80        2951.50           1257          84.00       345.25
   76.83        2951.75           1260          86.00       353.97
   76.86        2952.00           1264          79.00       323.46
   76.89        2952.25           1267          99.00       410.64
   76.91        2952.50           1270          83.00       340.89
   76.94        2952.75           1273          88.00       362.69
   76.97        2953.00           1277          86.00       353.97
   77.00        2953.25           1280          89.00       367.05
   77.03        2953.50           1283          90.00       371.41
   77.05        2953.75           1287          84.00       345.25
   77.08        2954.00           1290          94.00       388.84
   77.11        2954.25           1293          82.00       336.53
   77.14        2954.50           1297          89.00       367.05
   77.17        2954.75           1300          81.00       332.17
   77.19        2955.00           1303          86.00       353.97
   77.22        2955.25           1307          92.00       380.13
   77.25        2955.50           1310         105.00       436.80
   77.28        2955.75           1313          89.00       367.05
   77.31        2956.00           1317          97.00       401.92
   77.33        2956.25           1320         102.00       423.72
   77.36        2956.50           1323          99.00       410.64
   77.39        2956.75           1326         105.00       436.80
   77.42        2957.00           1330         110.00       458.59
   77.45        2957.25           1333         109.00       454.23
   77.47        2957.50           1336         107.00       445.52
   77.50        2957.75           1340         121.00       506.55
   77.53        2958.00           1343         133.00       558.86
   77.56        2958.25           1346         128.00       537.06
   77.59        2958.50           1350         134.00       563.22
   77.61        2958.75           1353         143.00       602.45
   77.64        2959.00           1356         159.00       672.20
   77.67        2959.25           1360         162.00       685.28
   77.70        2959.50           1363         278.00      1190.97
   77.73        2959.75           1366         401.00      1727.19
   77.75        2960.00           1370         583.00      2520.65
   77.78        2960.25           1373         789.00      3418.79
   77.81        2960.50           1376         946.00      4103.32
   77.84        2960.75           1380        1148.00      4984.08
   77.87        2961.00           1383        1385.00      6017.51
   77.89        2961.25           1386        1610.00      6998.66
   77.92        2961.50           1390        3190.00     13889.93
   77.95        2961.75           1393        6299.00     27457.26
   77.98        2962.00           1396       10763.00     46954.41
   78.01        2962.25           1399       16745.00     73112.69
   78.04        2962.50           1403       25037.00    109431.20
   78.06        2962.75           1406       31474.00    137672.40
   78.09        2963.00           1409       37652.00    164816.40
   78.12        2963.25           1413       45997.00    201542.50
   78.15        2963.50           1416       52354.00    229566.70
   78.17        2963.75           1419       58478.00    256602.50
   78.20        2964.00           1423       66528.00    292199.30
   78.24        2964.25           1426       72378.00    318109.30
   78.27        2964.50           1429       77679.00    341618.10
   78.30        2964.75           1433       84605.00    372376.90
   78.33        2965.00           1436       90372.00    398026.40
   78.35        2965.25           1439       95729.00    421883.10
   78.38        2965.50           1443      103434.00    456248.70
   78.41        2965.75           1446      109261.00    482279.10
   78.44        2966.00           1449      115269.00    509155.30
   78.47        2966.25           1453      122637.00    542167.00
   78.49        2966.50           1456      126865.00    561136.00
   78.52        2966.75           1459      129511.00    573017.00
   78.55        2967.00           1463      131080.00    580065.50
   78.58        2967.25           1466      131168.00    580461.00
   78.61        2967.50           1469      131038.00    579876.80
   78.64        2967.75           1473      129998.00    575204.50
   78.66        2968.00           1476      126540.00    559677.30
   78.69        2968.25           1479      121665.00    537808.80
   78.72        2968.50           1483      113927.00    503148.70
   78.75        2968.75           1486      108998.00    481103.50
   78.78        2969.00           1489      103377.00    455994.20
   78.80        2969.25           1493       95380.00    420328.00
   78.83        2969.50           1496       89134.00    392517.30
   78.86        2969.75           1499       82586.00    363405.30
   78.89        2970.00           1502       75670.00    332705.20
   78.92        2970.25           1506       67048.00    294501.00
   78.94        2970.50           1509       60600.00    265979.50
   78.97        2970.75           1512       54299.00    238149.20
   79.00        2971.00           1516       44724.00    195935.50
   79.03        2971.25           1519       38015.00    166412.50
   79.06        2971.50           1522       31492.00    137751.40
   79.09        2971.75           1526       23571.00    103005.20
   79.11        2972.00           1529       18267.00     79773.83
   79.14        2972.25           1532       12731.00     55556.22
   79.17        2972.50           1536        6146.00     26789.36
   79.20        2972.75           1539        3024.00     13165.80
   79.23        2973.00           1542        1636.00      7112.04
   79.24        2973.25           1546        1235.00      5363.43
   79.29        2973.50           1549        1005.00      4360.56
   79.33        2973.75           1552         823.00      3567.03
   79.36        2974.00           1556         669.00      2895.60
   79.39        2974.25           1559         447.00      1927.73
   79.41        2974.50           1562         322.00      1382.79
   79.44        2974.75           1566         223.00       951.20
   79.47        2975.00           1569         165.00       698.36
   79.50        2975.25           1572         153.00       646.04
   79.53        2975.50           1576         132.00       554.50
   79.55        2975.75           1579         132.00       554.50
   79.58        2976.00           1582         129.00       541.42
   79.61        2976.25           1586         128.00       537.06
   79.64        2976.50           1589         119.00       497.83
   79.67        2976.75           1592         120.00       502.19
   79.69        2977.00           1596         109.00       454.23
   79.72        2977.25           1599         111.00       462.95
   79.75        2977.50           1602         110.00       458.59
   79.78        2977.75           1606         101.00       419.36
   79.81        2978.00           1609          97.00       401.92
   79.83        2978.25           1612          93.00       384.49
   79.86        2978.50           1616         101.00       419.36
   79.89        2978.75           1619          90.00       371.41
   79.92        2979.00           1622          98.00       406.28
   79.95        2979.25           1626          88.00       362.69
   79.97        2979.50           1629          94.00       388.84
   80.00        2979.75           1632          83.00       340.89
   80.03        2980.00           1636          78.00       319.10
   80.06        2980.25           1639          95.00       393.20
   80.09        2980.50           1642          82.00       336.53
   80.11        2980.75           1646          81.00       332.17
   80.14        2981.00           1649          83.00       340.89
   80.17        2981.25           1652          81.00       332.17
   80.20        2981.50           1656          86.00       353.97
   80.23        2981.75           1659          89.00       367.05
   80.25        2982.00           1662          84.00       345.25
   80.28        2982.25           1666          87.00       358.33
   80.31        2982.50           1669          82.00       336.53
   80.34        2982.75           1672          79.00       323.46
   80.36        2983.00           1676          85.00       349.61
   80.39        2983.25           1679          87.00       358.33
   80.42        2983.50           1682          83.00       340.89
   80.45        2983.75           1686          88.00       362.69
   80.48        2984.00           1689          79.00       323.46
HS scan finished at 01:20:39
end
