************************************************************
  HS Scan of (1) Internal mercury lamp
************************************************************
Integration time is 0.2294 seconds per sample
dh170217Madrid 40.45 3.17 2.750537pr940
************************************************************
Dead Time -------------------------  2.6E-08 
Number of Cycles Used -------------  4 
Starting Wavelength (Angstroms) ---  2950 
Final Wavelength (Angstoms) -------  2984 
Wavelength Increment (Angstroms) --  .25 
Filter Wheel #1 Position ---------- (1) Ground quartz diffuser (ND=2.32)
Filter Wheel #2 Position ---------- (1) Neutral Density 0.494



************************************************************
HS scan start time = 01:14:01
Dark Count =  1.9 


Time (GMT)  Wavelength (Ang)  Step Number  Raw Counts  Counts/Second

   74.38        2950.00           1237          87.00       370.97
   74.44        2950.25           1240          90.00       384.05
   74.47        2950.50           1244          84.00       357.89
   74.50        2950.75           1247          79.00       336.10
   74.53        2951.00           1250          88.00       375.33
   74.55        2951.25           1254          85.00       362.25
   74.58        2951.50           1257          78.00       331.74
   74.61        2951.75           1260          83.00       353.53
   74.64        2952.00           1264          86.00       366.61
   74.67        2952.25           1267          84.00       357.89
   74.69        2952.50           1270          82.00       349.17
   74.72        2952.75           1273          86.00       366.61
   74.75        2953.00           1277          89.00       379.69
   74.78        2953.25           1280          85.00       362.25
   74.81        2953.50           1283          87.00       370.97
   74.83        2953.75           1287          93.00       397.13
   74.86        2954.00           1290          77.00       327.38
   74.89        2954.25           1293          95.00       405.85
   74.92        2954.50           1297          92.00       392.77
   74.95        2954.75           1300          83.00       353.53
   74.97        2955.00           1303          90.00       384.05
   75.00        2955.25           1307          87.00       370.97
   75.03        2955.50           1310          92.00       392.77
   75.06        2955.75           1313          97.00       414.56
   75.08        2956.00           1317          95.00       405.85
   75.11        2956.25           1320          86.00       366.61
   75.14        2956.50           1323         103.00       440.72
   75.17        2956.75           1326         100.00       427.64
   75.20        2957.00           1330         121.00       519.19
   75.22        2957.25           1333         110.00       471.24
   75.25        2957.50           1336         122.00       523.55
   75.28        2957.75           1340         122.00       523.55
   75.31        2958.00           1343         113.00       484.31
   75.34        2958.25           1346         125.00       536.62
   75.37        2958.50           1350         140.00       602.01
   75.39        2958.75           1353         136.00       584.58
   75.42        2959.00           1356         154.00       663.05
   75.45        2959.25           1360         161.00       693.56
   75.48        2959.50           1363         248.00      1072.83
   75.51        2959.75           1366         336.00      1456.46
   75.53        2960.00           1370         477.00      2071.17
   75.56        2960.25           1373         716.00      3113.16
   75.59        2960.50           1376         859.00      3736.63
   75.62        2960.75           1380        1034.00      4499.65
   75.65        2961.00           1383        1258.00      5476.37
   75.67        2961.25           1386        1529.00      6658.08
   75.70        2961.50           1390        3201.00     13950.57
   75.73        2961.75           1393        6655.00     29024.08
   75.76        2962.00           1396       11390.00     49707.18
   75.79        2962.25           1399       17562.00     76700.76
   75.82        2962.50           1403       25868.00    113087.50
   75.84        2962.75           1406       31886.00    139494.10
   75.87        2963.00           1409       38148.00    167010.00
   75.90        2963.25           1413       45772.00    200564.10
   75.93        2963.50           1416       51302.00    224939.00
   75.96        2963.75           1419       56879.00    249552.50
   75.98        2964.00           1423       64226.00    282026.00
   76.01        2964.25           1426       69316.00    304556.00
   76.04        2964.50           1429       75613.00    332465.20
   76.07        2964.75           1433       83591.00    367883.50
   76.10        2965.00           1436       89260.00    393090.80
   76.12        2965.25           1439       94996.00    418629.90
   76.15        2965.50           1443      102408.00    451681.90
   76.18        2965.75           1446      107528.00    474546.70
   76.21        2966.00           1449      113152.00    499693.70
   76.24        2966.25           1453      120806.00    533971.00
   76.26        2966.50           1456      125306.00    554152.40
   76.29        2966.75           1459      128830.00    569971.50
   76.32        2967.00           1463      129549.00    573200.60
   76.35        2967.25           1466      129431.00    572670.60
   76.38        2967.50           1469      129491.00    572940.10
   76.41        2967.75           1473      128089.00    566644.10
   76.43        2968.00           1476      125124.00    553335.70
   76.46        2968.25           1479      121038.00    535011.00
   76.49        2968.50           1483      113805.00    502615.70
   76.52        2968.75           1486      107012.00    472241.10
   76.55        2969.00           1489      100958.00    445211.50
   76.57        2969.25           1493       91341.00    402352.40
   76.60        2969.50           1496       86050.00    378813.40
   76.63        2969.75           1499       79842.00    351231.70
   76.66        2970.00           1502       73093.00    321291.30
   76.69        2970.25           1506       63830.00    280274.30
   76.72        2970.50           1509       57407.00    251884.40
   76.75        2970.75           1512       51736.00    226853.30
   76.78        2971.00           1516       44165.00    193486.60
   76.81        2971.25           1519       38597.00    168984.50
   76.84        2971.50           1522       32409.00    141790.70
   76.87        2971.75           1526       24673.00    107848.20
   76.89        2972.00           1529       18746.00     81883.38
   76.92        2972.25           1532       11973.00     52255.35
   76.95        2972.50           1536        5734.00     25003.61
   76.98        2972.75           1539        2963.00     12912.36
   77.01        2973.00           1542        1720.00      7491.00
   77.03        2973.25           1546        1254.00      5458.93
   77.06        2973.50           1549        1005.00      4373.21
   77.09        2973.75           1552         853.00      3710.47
   77.12        2974.00           1556         690.00      2999.80
   77.15        2974.25           1559         516.00      2241.19
   77.17        2974.50           1562         353.00      1530.58
   77.20        2974.75           1566         243.00      1051.03
   77.23        2975.00           1569         182.00       785.11
   77.26        2975.25           1572         161.00       693.56
   77.29        2975.50           1576         152.00       654.33
   77.32        2975.75           1579         133.00       571.50
   77.35        2976.00           1582         129.00       554.06
   77.38        2976.25           1586         142.00       610.73
   77.41        2976.50           1589         141.00       606.37
   77.44        2976.75           1592         116.00       497.39
   77.46        2977.00           1596         114.00       488.67
   77.49        2977.25           1599         113.00       484.31
   77.52        2977.50           1602         119.00       510.47
   77.55        2977.75           1606          96.00       410.20
   77.57        2978.00           1609         111.00       475.59
   77.60        2978.25           1612          95.00       405.85
   77.63        2978.50           1616          92.00       392.77
   77.66        2978.75           1619         100.00       427.64
   77.69        2979.00           1622          93.00       397.13
   77.72        2979.25           1626          92.00       392.77
   77.74        2979.50           1629          85.00       362.25
   77.77        2979.75           1632          90.00       384.05
   77.80        2980.00           1636          85.00       362.25
   77.83        2980.25           1639          85.00       362.25
   77.86        2980.50           1642          85.00       362.25
   77.88        2980.75           1646          86.00       366.61
   77.91        2981.00           1649          82.00       349.17
   77.94        2981.25           1652          79.00       336.10
   77.97        2981.50           1656          91.00       388.41
   77.99        2981.75           1659          84.00       357.89
   78.02        2982.00           1662          78.00       331.74
   78.05        2982.25           1666          72.00       305.58
   78.08        2982.50           1669          79.00       336.10
   78.11        2982.75           1672          80.00       340.46
   78.13        2983.00           1676          82.00       349.17
   78.16        2983.25           1679          76.00       323.02
   78.19        2983.50           1682          75.00       318.66
   78.22        2983.75           1686          79.00       336.10
   78.25        2984.00           1689          75.00       318.66
HS scan finished at 01:18:25
end
