************************************************************
  HS Scan of (1) Internal mercury lamp
************************************************************
Integration time is 0.2294 seconds per sample
dh240217Madrid 40.45 3.17 2.750537pr940
************************************************************
Dead Time -------------------------  2.6E-08 
Number of Cycles Used -------------  4 
Starting Wavelength (Angstroms) ---  2950 
Final Wavelength (Angstoms) -------  2984 
Wavelength Increment (Angstroms) --  .25 
Filter Wheel #1 Position ---------- (1) Ground quartz diffuser (ND=2.32)
Filter Wheel #2 Position ---------- (1) Neutral Density 0.494



************************************************************
HS scan start time = 01:13:10
Dark Count =  2.4 


Time (GMT)  Wavelength (Ang)  Step Number  Raw Counts  Counts/Second

   73.53        2950.00           1237          75.00       316.48
   73.60        2950.25           1240          85.00       360.07
   73.62        2950.50           1244          82.00       347.00
   73.65        2950.75           1247          89.00       377.51
   73.68        2951.00           1250          80.00       338.28
   73.72        2951.25           1254          83.00       351.35
   73.75        2951.50           1257          87.00       368.79
   73.78        2951.75           1260          90.00       381.87
   73.81        2952.00           1264          89.00       377.51
   73.84        2952.25           1267          78.00       329.56
   73.86        2952.50           1270          82.00       347.00
   73.89        2952.75           1273          89.00       377.51
   73.92        2953.00           1277          91.00       386.23
   73.95        2953.25           1280          85.00       360.07
   73.98        2953.50           1283          76.00       320.84
   74.01        2953.75           1287          87.00       368.79
   74.04        2954.00           1290          77.00       325.20
   74.07        2954.25           1293          82.00       347.00
   74.10        2954.50           1297          91.00       386.23
   74.12        2954.75           1300          95.00       403.67
   74.15        2955.00           1303          93.00       394.95
   74.18        2955.25           1307          94.00       399.31
   74.21        2955.50           1310          97.00       412.38
   74.24        2955.75           1313          93.00       394.95
   74.27        2956.00           1317          99.00       421.10
   74.29        2956.25           1320          92.00       390.59
   74.32        2956.50           1323         102.00       434.18
   74.35        2956.75           1326         110.00       469.06
   74.38        2957.00           1330          99.00       421.10
   74.41        2957.25           1333         110.00       469.06
   74.43        2957.50           1336         112.00       477.77
   74.46        2957.75           1340         126.00       538.80
   74.49        2958.00           1343         116.00       495.21
   74.52        2958.25           1346         126.00       538.80
   74.54        2958.50           1350         138.00       591.12
   74.57        2958.75           1353         134.00       573.68
   74.60        2959.00           1356         147.00       630.35
   74.63        2959.25           1360         172.00       739.33
   74.66        2959.50           1363         235.00      1013.98
   74.68        2959.75           1366         326.00      1410.69
   74.71        2960.00           1370         475.00      2060.27
   74.74        2960.25           1373         659.00      2862.46
   74.77        2960.50           1376         793.00      3446.69
   74.80        2960.75           1380         982.00      4270.75
   74.83        2961.00           1383        1188.00      5168.96
   74.85        2961.25           1386        1442.00      6276.53
   74.88        2961.50           1390        3003.00     13084.66
   74.91        2961.75           1393        6450.00     28126.93
   74.94        2962.00           1396       11470.00     50054.64
   74.97        2962.25           1399       17155.00     74917.37
   74.99        2962.50           1403       24702.00    107973.10
   75.02        2962.75           1406       30731.00    134421.00
   75.05        2963.00           1409       36537.00    159925.20
   75.08        2963.25           1413       43138.00    188962.70
   75.11        2963.50           1416       48998.00    214777.60
   75.14        2963.75           1419       54542.00    239232.30
   75.16        2964.00           1423       62303.00    273518.90
   75.19        2964.25           1426       68428.00    300621.30
   75.22        2964.50           1429       74067.00    325607.20
   75.25        2964.75           1433       81115.00    356882.10
   75.28        2965.00           1436       86167.00    379331.40
   75.30        2965.25           1439       91393.00    402581.60
   75.33        2965.50           1443       97932.00    431713.30
   75.36        2965.75           1446      103827.00    458013.90
   75.39        2966.00           1449      109255.00    482263.00
   75.42        2966.25           1453      116861.00    516294.10
   75.45        2966.50           1456      121818.00    538505.50
   75.47        2966.75           1459      125122.00    553324.50
   75.50        2967.00           1463      125603.00    555482.80
   75.53        2967.25           1466      125467.00    554872.60
   75.56        2967.50           1469      125898.00    556806.70
   75.59        2967.75           1473      124427.00    550206.40
   75.61        2968.00           1476      121945.00    539074.90
   75.64        2968.25           1479      117337.00    518425.80
   75.67        2968.50           1483      109767.00    484551.90
   75.70        2968.75           1486      104007.00    458817.50
   75.73        2969.00           1489       97755.00    430924.10
   75.76        2969.25           1493       89224.00    392928.40
   75.78        2969.50           1496       82900.00    364811.00
   75.81        2969.75           1499       76229.00    335195.40
   75.84        2970.00           1502       70746.00    310888.20
   75.87        2970.25           1506       63583.00    279179.60
   75.90        2970.50           1509       57598.00    252725.80
   75.92        2970.75           1512       51780.00    227045.20
   75.95        2971.00           1516       44293.00    194048.10
   75.98        2971.25           1519       38631.00    169131.90
   76.01        2971.50           1522       31994.00    139966.20
   76.04        2971.75           1526       23720.00    103668.80
   76.07        2972.00           1529       18697.00     81666.69
   76.09        2972.25           1532       13759.00     60061.46
   76.12        2972.50           1536        6963.00     30366.60
   76.15        2972.75           1539        3500.00     15252.78
   76.18        2973.00           1542        1810.00      7881.30
   76.21        2973.25           1546        1243.00      5408.78
   76.23        2973.50           1549        1024.00      4453.87
   76.26        2973.75           1552         854.00      3712.65
   76.29        2974.00           1556         688.00      2988.90
   76.32        2974.25           1559         499.00      2164.90
   76.35        2974.50           1562         353.00      1528.40
   76.37        2974.75           1566         246.00      1061.93
   76.40        2975.00           1569         191.00       822.16
   76.43        2975.25           1572         164.00       704.46
   76.46        2975.50           1576         133.00       569.32
   76.49        2975.75           1579         140.00       599.84
   76.51        2976.00           1582         127.00       543.16
   76.54        2976.25           1586         130.00       556.24
   76.57        2976.50           1589         122.00       521.37
   76.60        2976.75           1592         123.00       525.73
   76.63        2977.00           1596         119.00       508.29
   76.65        2977.25           1599         112.00       477.77
   76.68        2977.50           1602          99.00       421.10
   76.71        2977.75           1606         109.00       464.70
   76.74        2978.00           1609         102.00       434.18
   76.77        2978.25           1612          98.00       416.74
   76.79        2978.50           1616          92.00       390.59
   76.82        2978.75           1619         104.00       442.90
   76.85        2979.00           1622          97.00       412.38
   76.88        2979.25           1626          87.00       368.79
   76.90        2979.50           1629          85.00       360.07
   76.93        2979.75           1632          95.00       403.67
   76.96        2980.00           1636          73.00       307.76
   76.99        2980.25           1639          91.00       386.23
   77.02        2980.50           1642          85.00       360.07
   77.04        2980.75           1646          82.00       347.00
   77.07        2981.00           1649          84.00       355.71
   77.10        2981.25           1652          86.00       364.43
   77.13        2981.50           1656          73.00       307.76
   77.16        2981.75           1659          88.00       373.15
   77.18        2982.00           1662          89.00       377.51
   77.21        2982.25           1666          74.00       312.12
   77.24        2982.50           1669          81.00       342.64
   77.27        2982.75           1672          91.00       386.23
   77.30        2983.00           1676          87.00       368.79
   77.32        2983.25           1679          78.00       329.56
   77.35        2983.50           1682          78.00       329.56
   77.38        2983.75           1686          77.00       325.20
   77.41        2984.00           1689          79.00       333.92
HS scan finished at 01:17:35
end
