************************************************************
  HS Scan of (1) Internal mercury lamp
************************************************************
Integration time is 0.2294 seconds per sample
dh030317Madrid 40.45 3.17 2.750537pr940
************************************************************
Dead Time -------------------------  2.6E-08 
Number of Cycles Used -------------  4 
Starting Wavelength (Angstroms) ---  2950 
Final Wavelength (Angstoms) -------  2984 
Wavelength Increment (Angstroms) --  .25 
Filter Wheel #1 Position ---------- (1) Ground quartz diffuser (ND=2.32)
Filter Wheel #2 Position ---------- (1) Neutral Density 0.494



************************************************************
HS scan start time = 01:11:55
Dark Count =  2.1 


Time (GMT)  Wavelength (Ang)  Step Number  Raw Counts  Counts/Second

   72.27        2950.00           1237          89.00       378.82
   72.33        2950.25           1240          85.00       361.38
   72.36        2950.50           1244         102.00       435.49
   72.39        2950.75           1247          91.00       387.54
   72.42        2951.00           1250          77.00       326.51
   72.44        2951.25           1254          85.00       361.38
   72.47        2951.50           1257          93.00       396.26
   72.50        2951.75           1260          84.00       357.02
   72.53        2952.00           1264          84.00       357.02
   72.56        2952.25           1267          82.00       348.30
   72.58        2952.50           1270          90.00       383.18
   72.61        2952.75           1273          82.00       348.30
   72.64        2953.00           1277          82.00       348.30
   72.67        2953.25           1280          81.00       343.94
   72.70        2953.50           1283          91.00       387.54
   72.73        2953.75           1287          87.00       370.10
   72.75        2954.00           1290          86.00       365.74
   72.78        2954.25           1293          87.00       370.10
   72.81        2954.50           1297          94.00       400.61
   72.84        2954.75           1300          86.00       365.74
   72.87        2955.00           1303          92.00       391.90
   72.89        2955.25           1307          83.00       352.66
   72.92        2955.50           1310          86.00       365.74
   72.95        2955.75           1313          92.00       391.90
   72.98        2956.00           1317          99.00       422.41
   73.01        2956.25           1320          96.00       409.33
   73.03        2956.50           1323          97.00       413.69
   73.07        2956.75           1326         106.00       452.93
   73.10        2957.00           1330         103.00       439.85
   73.13        2957.25           1333         118.00       505.24
   73.15        2957.50           1336         104.00       444.21
   73.18        2957.75           1340         120.00       513.96
   73.21        2958.00           1343         113.00       483.44
   73.24        2958.25           1346         124.00       531.39
   73.27        2958.50           1350         140.00       601.14
   73.29        2958.75           1353         146.00       627.30
   73.32        2959.00           1356         153.00       657.81
   73.35        2959.25           1360         167.00       718.85
   73.38        2959.50           1363         224.00       967.33
   73.41        2959.75           1366         334.00      1446.87
   73.43        2960.00           1370         451.00      1956.94
   73.46        2960.25           1373         655.00      2846.33
   73.49        2960.50           1376         817.00      3552.64
   73.52        2960.75           1380         994.00      4324.37
   73.55        2961.00           1383        1247.00      5427.53
   73.57        2961.25           1386        1705.00      7424.71
   73.60        2961.50           1390        4026.00     17548.98
   73.63        2961.75           1393        7287.00     31782.58
   73.66        2962.00           1396       11920.00     52022.81
   73.69        2962.25           1399       18220.00     79579.93
   73.71        2962.50           1403       26575.00    116187.00
   73.74        2962.75           1406       32985.00    144319.50
   73.77        2963.00           1409       39542.00    173139.90
   73.80        2963.25           1413       47219.00    206938.20
   73.83        2963.50           1416       53394.00    234167.20
   73.85        2963.75           1419       59222.00    259901.60
   73.88        2964.00           1423       65905.00    289454.00
   73.91        2964.25           1426       70807.00    311159.70
   73.94        2964.50           1429       76373.00    335835.50
   73.97        2964.75           1433       83460.00    367300.50
   73.99        2965.00           1436       88906.00    391514.90
   74.02        2965.25           1439       95645.00    421520.80
   74.05        2965.50           1443      103707.00    457479.50
   74.08        2965.75           1446      108785.00    480163.40
   74.11        2966.00           1449      114443.00    505470.10
   74.14        2966.25           1453      121660.00    537798.50
   74.16        2966.50           1456      125624.00    555578.40
   74.19        2966.75           1459      127555.00    564245.60
   74.22        2967.00           1463      128211.00    567191.00
   74.25        2967.25           1466      128085.00    566625.20
   74.28        2967.50           1469      128021.00    566337.80
   74.31        2967.75           1473      124911.00    552379.10
   74.33        2968.00           1476      120309.00    531742.50
   74.36        2968.25           1479      114339.00    505004.70
   74.39        2968.50           1483      108081.00    477017.00
   74.42        2968.75           1486      102318.00    451279.30
   74.45        2969.00           1489       96443.00    425077.10
   74.48        2969.25           1493       89170.00    392689.50
   74.53        2969.50           1496       82911.00    364861.20
   74.57        2969.75           1499       76601.00    336847.00
   74.60        2970.00           1502       70646.00    310446.50
   74.62        2970.25           1506       62307.00    273537.90
   74.65        2970.50           1509       56579.00    248226.80
   74.68        2970.75           1512       51004.00    223623.80
   74.71        2971.00           1516       42563.00    186432.90
   74.74        2971.25           1519       36703.00    160656.20
   74.77        2971.50           1522       31302.00    136929.10
   74.79        2971.75           1526       23444.00    102460.50
   74.82        2972.00           1529       18118.00     79133.45
   74.85        2972.25           1532       12073.00     52691.58
   74.88        2972.50           1536        5454.00     23780.61
   74.91        2972.75           1539        2650.00     11546.19
   74.93        2973.00           1542        1625.00      7075.84
   74.96        2973.25           1546        1333.00      5802.53
   74.99        2973.50           1549        1085.00      4721.16
   75.02        2973.75           1552         919.00      3997.36
   75.05        2974.00           1556         732.00      3182.04
   75.07        2974.25           1559         511.00      2218.52
   75.10        2974.50           1562         358.00      1551.50
   75.13        2974.75           1566         256.00      1106.83
   75.16        2975.00           1569         176.00       758.08
   75.18        2975.25           1572         156.00       670.89
   75.21        2975.50           1576         158.00       679.61
   75.24        2975.75           1579         138.00       592.42
   75.27        2976.00           1582         137.00       588.06
   75.30        2976.25           1586         145.00       622.94
   75.33        2976.50           1589         123.00       527.03
   75.36        2976.75           1592         120.00       513.96
   75.39        2977.00           1596         112.00       479.08
   75.42        2977.25           1599         112.00       479.08
   75.45        2977.50           1602         103.00       439.85
   75.48        2977.75           1606         110.00       470.36
   75.50        2978.00           1609          97.00       413.69
   75.53        2978.25           1612         100.00       426.77
   75.56        2978.50           1616          88.00       374.46
   75.59        2978.75           1619          86.00       365.74
   75.62        2979.00           1622          93.00       396.26
   75.65        2979.25           1626          91.00       387.54
   75.68        2979.50           1629          83.00       352.66
   75.71        2979.75           1632          93.00       396.26
   75.74        2980.00           1636          86.00       365.74
   75.77        2980.25           1639          89.00       378.82
   75.79        2980.50           1642          82.00       348.30
   75.82        2980.75           1646          84.00       357.02
   75.85        2981.00           1649          91.00       387.54
   75.88        2981.25           1652          77.00       326.51
   75.90        2981.50           1656          87.00       370.10
   75.93        2981.75           1659          84.00       357.02
   75.96        2982.00           1662          80.00       339.58
   75.99        2982.25           1666          85.00       361.38
   76.02        2982.50           1669          80.00       339.58
   76.04        2982.75           1672          77.00       326.51
   76.07        2983.00           1676          82.00       348.30
   76.10        2983.25           1679          71.00       300.35
   76.13        2983.50           1682          85.00       361.38
   76.16        2983.75           1686          89.00       378.82
   76.18        2984.00           1689          80.00       339.58
HS scan finished at 01:16:22
end
