************************************************************
  HS Scan of (1) Internal mercury lamp
************************************************************
Integration time is 0.2294 seconds per sample
dh100317Madrid 40.45 3.17 2.750537pr940
************************************************************
Dead Time -------------------------  2.6E-08 
Number of Cycles Used -------------  4 
Starting Wavelength (Angstroms) ---  2950 
Final Wavelength (Angstoms) -------  2984 
Wavelength Increment (Angstroms) --  .25 
Filter Wheel #1 Position ---------- (1) Ground quartz diffuser (ND=2.32)
Filter Wheel #2 Position ---------- (1) Neutral Density 0.494



************************************************************
HS scan start time = 01:10:19
Dark Count =  1.2 


Time (GMT)  Wavelength (Ang)  Step Number  Raw Counts  Counts/Second

   70.67        2950.00           1237          76.00       326.07
   70.73        2950.25           1240          82.00       352.23
   70.76        2950.50           1244          81.00       347.87
   70.79        2950.75           1247          82.00       352.23
   70.82        2951.00           1250          80.00       343.51
   70.84        2951.25           1254          84.00       360.95
   70.87        2951.50           1257          84.00       360.95
   70.90        2951.75           1260          93.00       400.18
   70.93        2952.00           1264          84.00       360.95
   70.96        2952.25           1267          92.00       395.82
   70.99        2952.50           1270          84.00       360.95
   71.01        2952.75           1273          76.00       326.07
   71.04        2953.00           1277          88.00       378.38
   71.07        2953.25           1280          80.00       343.51
   71.10        2953.50           1283          76.00       326.07
   71.13        2953.75           1287          98.00       421.98
   71.15        2954.00           1290          86.00       369.66
   71.18        2954.25           1293          90.00       387.10
   71.21        2954.50           1297          86.00       369.66
   71.24        2954.75           1300          99.00       426.33
   71.26        2955.00           1303          90.00       387.10
   71.29        2955.25           1307          89.00       382.74
   71.32        2955.50           1310          94.00       404.54
   71.35        2955.75           1313         101.00       435.05
   71.38        2956.00           1317         101.00       435.05
   71.40        2956.25           1320         101.00       435.05
   71.43        2956.50           1323         111.00       478.65
   71.46        2956.75           1326         113.00       487.36
   71.49        2957.00           1330         105.00       452.49
   71.52        2957.25           1333         111.00       478.65
   71.55        2957.50           1336         115.00       496.08
   71.57        2957.75           1340         118.00       509.16
   71.60        2958.00           1343         126.00       544.04
   71.63        2958.25           1346         129.00       557.11
   71.66        2958.50           1350         144.00       622.50
   71.69        2958.75           1353         146.00       631.22
   71.71        2959.00           1356         154.00       666.10
   71.74        2959.25           1360         161.00       696.61
   71.77        2959.50           1363         249.00      1080.24
   71.80        2959.75           1366         368.00      1599.02
   71.83        2960.00           1370         506.00      2200.65
   71.85        2960.25           1373         698.00      3037.73
   71.88        2960.50           1376         893.00      3887.93
   71.91        2960.75           1380        1048.00      4563.75
   71.94        2961.00           1383        1277.00      5562.27
   71.97        2961.25           1386        1635.00      7123.38
   71.99        2961.50           1390        3762.00     16401.07
   72.02        2961.75           1393        7028.00     30655.64
   72.05        2962.00           1396       11944.00     52131.64
   72.08        2962.25           1399       17594.00     76843.88
   72.11        2962.50           1403       25449.00    111253.40
   72.13        2962.75           1406       31684.00    138610.30
   72.16        2963.00           1409       37634.00    164753.10
   72.19        2963.25           1413       45348.00    198699.60
   72.22        2963.50           1416       51888.00    227526.90
   72.25        2963.75           1419       58063.00    254785.10
   72.27        2964.00           1423       65900.00    289435.80
   72.30        2964.25           1426       71822.00    315661.10
   72.33        2964.50           1429       77356.00    340200.80
   72.36        2964.75           1433       84488.00    371872.90
   72.39        2965.00           1436       89666.00    394900.50
   72.42        2965.25           1439       94946.00    418410.20
   72.44        2965.50           1443      102355.00    451448.50
   72.47        2965.75           1446      108547.00    479103.70
   72.50        2966.00           1449      114479.00    505635.20
   72.53        2966.25           1453      122046.00    539533.10
   72.56        2966.50           1456      125724.00    556031.10
   72.58        2966.75           1459      127370.00    563419.10
   72.61        2967.00           1463      127343.00    563298.00
   72.64        2967.25           1466      127436.00    563715.40
   72.67        2967.50           1469      126716.00    560483.40
   72.70        2967.75           1473      124625.00    551100.00
   72.72        2968.00           1476      119762.00    529295.10
   72.75        2968.25           1479      114384.00    505210.00
   72.78        2968.50           1483      106868.00    471600.80
   72.81        2968.75           1486      101073.00    445727.70
   72.84        2969.00           1489       95930.00    422794.80
   72.86        2969.25           1493       88712.00    390655.80
   72.89        2969.50           1496       83017.00    365336.10
   72.92        2969.75           1499       77285.00    339885.70
   72.95        2970.00           1502       71319.00    313432.30
   72.98        2970.25           1506       62714.00    275341.70
   73.00        2970.50           1509       55864.00    245073.70
   73.03        2970.75           1512       49600.00    217436.80
   73.06        2971.00           1516       41741.00    182819.00
   73.09        2971.25           1519       35993.00    157539.40
   73.12        2971.50           1522       30179.00    132003.30
   73.15        2971.75           1526       21791.00     95221.51
   73.17        2972.00           1529       15716.00     68626.26
   73.20        2972.25           1532       10094.00     44046.93
   73.23        2972.50           1536        4835.00     21083.05
   73.26        2972.75           1539        2522.00     10991.81
   73.28        2973.00           1542        1546.00      6735.27
   73.31        2973.25           1546        1243.00      5414.01
   73.34        2973.50           1549        1010.00      4398.06
   73.37        2973.75           1552         870.00      3787.64
   73.40        2974.00           1556         647.00      2815.38
   73.43        2974.25           1559         460.00      2000.10
   73.46        2974.50           1562         344.00      1494.39
   73.48        2974.75           1566         221.00       958.18
   73.51        2975.00           1569         172.00       744.57
   73.54        2975.25           1572         153.00       661.74
   73.57        2975.50           1576         145.00       626.86
   73.60        2975.75           1579         144.00       622.50
   73.62        2976.00           1582         136.00       587.63
   73.65        2976.25           1586         125.00       539.68
   73.68        2976.50           1589         126.00       544.04
   73.71        2976.75           1592         105.00       452.49
   73.74        2977.00           1596         113.00       487.36
   73.76        2977.25           1599         101.00       435.05
   73.79        2977.50           1602         103.00       443.77
   73.82        2977.75           1606          99.00       426.33
   73.85        2978.00           1609         101.00       435.05
   73.88        2978.25           1612          94.00       404.54
   73.90        2978.50           1616          92.00       395.82
   73.94        2978.75           1619          91.00       391.46
   73.97        2979.00           1622          92.00       395.82
   74.00        2979.25           1626         102.00       439.41
   74.02        2979.50           1629          79.00       339.15
   74.05        2979.75           1632          89.00       382.74
   74.08        2980.00           1636          82.00       352.23
   74.11        2980.25           1639          83.00       356.59
   74.14        2980.50           1642          82.00       352.23
   74.16        2980.75           1646          84.00       360.95
   74.19        2981.00           1649          83.00       356.59
   74.22        2981.25           1652          80.00       343.51
   74.25        2981.50           1656          88.00       378.38
   74.28        2981.75           1659          78.00       334.79
   74.30        2982.00           1662          80.00       343.51
   74.33        2982.25           1666          76.00       326.07
   74.36        2982.50           1669          87.00       374.02
   74.39        2982.75           1672          95.00       408.90
   74.42        2983.00           1676          76.00       326.07
   74.44        2983.25           1679          81.00       347.87
   74.47        2983.50           1682          82.00       352.23
   74.50        2983.75           1686          76.00       326.07
   74.53        2984.00           1689          72.00       308.63
HS scan finished at 01:14:42
end
