************************************************************
  HS Scan of (1) Internal mercury lamp
************************************************************
Integration time is 0.2294 seconds per sample
dh170317Madrid 40.45 3.17 2.750537pr940
************************************************************
Dead Time -------------------------  2.6E-08 
Number of Cycles Used -------------  4 
Starting Wavelength (Angstroms) ---  2950 
Final Wavelength (Angstoms) -------  2984 
Wavelength Increment (Angstroms) --  .25 
Filter Wheel #1 Position ---------- (1) Ground quartz diffuser (ND=2.32)
Filter Wheel #2 Position ---------- (1) Neutral Density 0.494



************************************************************
HS scan start time = 01:08:43
Dark Count =  1.8 


Time (GMT)  Wavelength (Ang)  Step Number  Raw Counts  Counts/Second

   69.07        2950.00           1237          83.00       353.97
   69.14        2950.25           1240          82.00       349.61
   69.16        2950.50           1244          76.00       323.46
   69.19        2950.75           1247          86.00       367.05
   69.22        2951.00           1250          84.00       358.33
   69.25        2951.25           1254          86.00       367.05
   69.28        2951.50           1257          81.00       345.25
   69.30        2951.75           1260          94.00       401.92
   69.33        2952.00           1264          89.00       380.13
   69.36        2952.25           1267          86.00       367.05
   69.39        2952.50           1270          78.00       332.17
   69.42        2952.75           1273          91.00       388.84
   69.44        2953.00           1277          80.00       340.89
   69.47        2953.25           1280          90.00       384.49
   69.50        2953.50           1283          84.00       358.33
   69.53        2953.75           1287          86.00       367.05
   69.56        2954.00           1290          82.00       349.61
   69.58        2954.25           1293          92.00       393.20
   69.61        2954.50           1297          98.00       419.36
   69.64        2954.75           1300          87.00       371.41
   69.67        2955.00           1303          96.00       410.64
   69.70        2955.25           1307          91.00       388.84
   69.72        2955.50           1310          83.00       353.97
   69.75        2955.75           1313          92.00       393.20
   69.78        2956.00           1317         100.00       428.08
   69.81        2956.25           1320          96.00       410.64
   69.84        2956.50           1323         102.00       436.80
   69.86        2956.75           1326         102.00       436.80
   69.89        2957.00           1330          99.00       423.72
   69.92        2957.25           1333         121.00       519.62
   69.95        2957.50           1336         125.00       537.06
   69.98        2957.75           1340         137.00       589.37
   70.00        2958.00           1343         137.00       589.37
   70.03        2958.25           1346         128.00       550.14
   70.06        2958.50           1350         137.00       589.37
   70.09        2958.75           1353         150.00       646.04
   70.12        2959.00           1356         141.00       606.81
   70.14        2959.25           1360         175.00       755.03
   70.17        2959.50           1363         252.00      1090.70
   70.20        2959.75           1366         374.00      1622.56
   70.23        2960.00           1370         532.00      2311.39
   70.26        2960.25           1373         746.00      3244.39
   70.28        2960.50           1376         900.00      3915.83
   70.31        2960.75           1380        1113.00      4844.55
   70.34        2961.00           1383        1331.00      5795.12
   70.37        2961.25           1386        1746.00      7604.82
   70.40        2961.50           1390        4353.00     18977.11
   70.42        2961.75           1393        8615.00     37583.35
   70.45        2962.00           1396       14058.00     61371.61
   70.48        2962.25           1399       19769.00     86362.84
   70.51        2962.50           1403       27731.00    121258.80
   70.54        2962.75           1406       33471.00    146455.50
   70.56        2963.00           1409       39588.00    173343.60
   70.59        2963.25           1413       46980.00    205886.40
   70.62        2963.50           1416       52610.00    230709.30
   70.65        2963.75           1419       58631.00    257291.70
   70.68        2964.00           1423       66728.00    293097.80
   70.70        2964.25           1426       72539.00    318836.20
   70.73        2964.50           1429       78372.00    344706.90
   70.76        2964.75           1433       85200.00    375035.00
   70.79        2965.00           1436       90289.00    397670.30
   70.82        2965.25           1439       95736.00    421927.70
   70.84        2965.50           1443      102475.00    451981.30
   70.87        2965.75           1446      108641.00    479521.20
   70.90        2966.00           1449      114322.00    504929.90
   70.93        2966.25           1453      121842.00    538615.80
   70.96        2966.50           1456      126269.00    558474.40
   70.99        2966.75           1459      128219.00    567228.30
   71.01        2967.00           1463      128508.00    568526.00
   71.04        2967.25           1466      128118.00    566774.70
   71.07        2967.50           1469      128263.00    567425.80
   71.10        2967.75           1473      126264.00    558452.00
   71.13        2968.00           1476      122350.00    540893.50
   71.15        2968.25           1479      116792.00    515987.70
   71.18        2968.50           1483      108894.00    480652.00
   71.21        2968.75           1486      103401.00    456114.70
   71.24        2969.00           1489       97610.00    430280.40
   71.27        2969.25           1493       88630.00    390288.30
   71.29        2969.50           1496       82346.00    362352.50
   71.32        2969.75           1499       75627.00    332527.80
   71.35        2970.00           1502       69649.00    306031.30
   71.38        2970.25           1506       62403.00    273963.70
   71.41        2970.50           1509       56526.00    247994.10
   71.44        2970.75           1512       50525.00    221512.70
   71.46        2971.00           1516       42910.00    187961.70
   71.49        2971.25           1519       36853.00    161316.90
   71.52        2971.50           1522       30057.00    131465.20
   71.55        2971.75           1526       22264.00     97291.12
   71.58        2972.00           1529       16936.00     73961.63
   71.60        2972.25           1532       11613.00     50682.26
   71.63        2972.50           1536        5189.00     22625.34
   71.66        2972.75           1539        2595.00     11307.60
   71.68        2973.00           1542        1583.00      6894.00
   71.71        2973.25           1546        1199.00      5219.54
   71.75        2973.50           1549         983.00      4277.72
   71.77        2973.75           1552         830.00      3610.63
   71.80        2974.00           1556         665.00      2891.24
   71.83        2974.25           1559         456.00      1980.05
   71.86        2974.50           1562         326.00      1413.30
   71.89        2974.75           1566         223.00       964.28
   71.91        2975.00           1569         173.00       746.31
   71.94        2975.25           1572         153.00       659.12
   71.97        2975.50           1576         131.00       563.22
   72.00        2975.75           1579         136.00       585.01
   72.03        2976.00           1582         131.00       563.22
   72.05        2976.25           1586         127.00       545.78
   72.08        2976.50           1589         116.00       497.83
   72.11        2976.75           1592         105.00       449.87
   72.14        2977.00           1596         122.00       523.98
   72.17        2977.25           1599         114.00       489.11
   72.19        2977.50           1602          97.00       415.00
   72.22        2977.75           1606         101.00       432.44
   72.25        2978.00           1609         100.00       428.08
   72.28        2978.25           1612          90.00       384.49
   72.32        2978.50           1616         100.00       428.08
   72.34        2978.75           1619          96.00       410.64
   72.37        2979.00           1622          93.00       397.56
   72.40        2979.25           1626          89.00       380.13
   72.43        2979.50           1629          96.00       410.64
   72.46        2979.75           1632          76.00       323.46
   72.48        2980.00           1636          83.00       353.97
   72.51        2980.25           1639          90.00       384.49
   72.54        2980.50           1642          82.00       349.61
   72.57        2980.75           1646          77.00       327.81
   72.60        2981.00           1649          85.00       362.69
   72.62        2981.25           1652          91.00       388.84
   72.65        2981.50           1656          81.00       345.25
   72.68        2981.75           1659          79.00       336.53
   72.71        2982.00           1662          79.00       336.53
   72.74        2982.25           1666          77.00       327.81
   72.76        2982.50           1669          85.00       362.69
   72.79        2982.75           1672          78.00       332.17
   72.82        2983.00           1676          80.00       340.89
   72.85        2983.25           1679          84.00       358.33
   72.88        2983.50           1682          81.00       345.25
   72.90        2983.75           1686          85.00       362.69
   72.93        2984.00           1689          80.00       340.89
HS scan finished at 01:13:06
end
