************************************************************
  HS Scan of (1) Internal mercury lamp
************************************************************
Integration time is 0.2294 seconds per sample
dh240317Madrid 40.45 3.17 2.750537pr940
************************************************************
Dead Time -------------------------  2.6E-08 
Number of Cycles Used -------------  4 
Starting Wavelength (Angstroms) ---  2950 
Final Wavelength (Angstoms) -------  2984 
Wavelength Increment (Angstroms) --  .25 
Filter Wheel #1 Position ---------- (1) Ground quartz diffuser (ND=2.32)
Filter Wheel #2 Position ---------- (1) Neutral Density 0.494



************************************************************
HS scan start time = 01:06:24
Dark Count =  4.3 


Time (GMT)  Wavelength (Ang)  Step Number  Raw Counts  Counts/Second

   66.77        2950.00           1237          91.00       377.95
   66.83        2950.25           1240          88.00       364.87
   66.86        2950.50           1244          71.00       290.76
   66.89        2950.75           1247          74.00       303.84
   66.92        2951.00           1250          84.00       347.43
   66.94        2951.25           1254          94.00       391.02
   66.97        2951.50           1257          79.00       325.63
   67.00        2951.75           1260          82.00       338.71
   67.03        2952.00           1264          87.00       360.51
   67.06        2952.25           1267          86.00       356.15
   67.08        2952.50           1270          85.00       351.79
   67.11        2952.75           1273          79.00       325.63
   67.14        2953.00           1277          83.00       343.07
   67.17        2953.25           1280          93.00       386.66
   67.20        2953.50           1283          80.00       329.99
   67.22        2953.75           1287          85.00       351.79
   67.25        2954.00           1290          92.00       382.31
   67.28        2954.25           1293          80.00       329.99
   67.31        2954.50           1297          91.00       377.95
   67.33        2954.75           1300          81.00       334.35
   67.36        2955.00           1303          81.00       334.35
   67.39        2955.25           1307          98.00       408.46
   67.42        2955.50           1310          88.00       364.87
   67.45        2955.75           1313          94.00       391.02
   67.47        2956.00           1317         102.00       425.90
   67.50        2956.25           1320          85.00       351.79
   67.53        2956.50           1323         107.00       447.69
   67.56        2956.75           1326          99.00       412.82
   67.59        2957.00           1330         108.00       452.05
   67.61        2957.25           1333         126.00       530.52
   67.64        2957.50           1336         119.00       500.01
   67.67        2957.75           1340         119.00       500.01
   67.70        2958.00           1343         131.00       552.32
   67.73        2958.25           1346         132.00       556.68
   67.75        2958.50           1350         139.00       587.19
   67.78        2958.75           1353         142.00       600.27
   67.81        2959.00           1356         149.00       630.79
   67.84        2959.25           1360         169.00       717.97
   67.87        2959.50           1363         243.00      1040.57
   67.89        2959.75           1366         347.00      1493.96
   67.92        2960.00           1370         462.00      1995.31
   67.95        2960.25           1373         706.00      3059.09
   67.98        2960.50           1376         865.00      3752.33
   68.01        2960.75           1380        1021.00      4432.51
   68.03        2961.00           1383        1244.00      5404.86
   68.06        2961.25           1386        1568.00      6817.69
   68.09        2961.50           1390        3638.00     15846.55
   68.12        2961.75           1393        7436.00     32423.58
   68.15        2962.00           1396       12429.00     54238.16
   68.17        2962.25           1399       17848.00     77942.01
   68.20        2962.50           1403       26365.00    115256.40
   68.23        2962.75           1406       32930.00    144068.30
   68.26        2963.00           1409       39326.00    172180.10
   68.29        2963.25           1413       46547.00    203967.60
   68.31        2963.50           1416       52183.00    228814.50
   68.34        2963.75           1419       57869.00    253914.50
   68.37        2964.00           1423       65295.00    286745.00
   68.40        2964.25           1426       71040.00    312182.30
   68.43        2964.50           1429       77022.00    338705.10
   68.46        2964.75           1433       84461.00    371739.10
   68.48        2965.00           1436       89525.00    394259.30
   68.51        2965.25           1439       95400.00    420419.30
   68.54        2965.50           1443      103316.00    455724.10
   68.57        2965.75           1446      109079.00    481467.80
   68.60        2966.00           1449      114981.00    507868.40
   68.62        2966.25           1453      121994.00    539286.10
   68.65        2966.50           1456      126117.00    557781.00
   68.68        2966.75           1459      127991.00    566193.30
   68.71        2967.00           1463      128394.00    568002.80
   68.74        2967.25           1466      128573.00    568806.60
   68.76        2967.50           1469      128341.00    567764.80
   68.79        2967.75           1473      124811.00    551920.60
   68.82        2968.00           1476      120472.00    532463.30
   68.85        2968.25           1479      115367.00    509596.20
   68.88        2968.50           1483      108513.00    478937.90
   68.90        2968.75           1486      102732.00    453117.30
   68.93        2969.00           1489       97664.00    430510.00
   68.96        2969.25           1493       89107.00    392399.40
   68.99        2969.50           1496       83344.00    366775.30
   69.02        2969.75           1499       77170.00    339361.80
   69.05        2970.00           1502       71412.00    313830.60
   69.07        2970.25           1506       63259.00    277738.10
   69.10        2970.50           1509       57438.00    252010.70
   69.13        2970.75           1512       50700.00    222273.50
   69.16        2971.00           1516       42559.00    186405.60
   69.19        2971.25           1519       37096.00    162374.10
   69.21        2971.50           1522       31220.00    136559.40
   69.24        2971.75           1526       23780.00    103923.40
   69.27        2972.00           1529       18112.00     79097.55
   69.32        2972.25           1532       12197.00     53223.99
   69.37        2972.50           1536        5592.00     24373.34
   69.41        2972.75           1539        2856.00     12435.15
   69.43        2973.00           1542        1789.00      7781.43
   69.46        2973.25           1546        1469.00      6385.98
   69.49        2973.50           1549        1262.00      5483.34
   69.52        2973.75           1552        1097.00      4763.89
   69.55        2974.00           1556         944.00      4096.78
   69.57        2974.25           1559         743.00      3220.41
   69.60        2974.50           1562         565.00      2444.36
   69.63        2974.75           1566         419.00      1807.84
   69.66        2975.00           1569         250.00      1071.08
   69.69        2975.25           1572         187.00       796.44
   69.71        2975.50           1576         155.00       656.94
   69.74        2975.75           1579         147.00       622.07
   69.77        2976.00           1582         136.00       574.11
   69.80        2976.25           1586         145.00       613.35
   69.83        2976.50           1589         120.00       504.37
   69.85        2976.75           1592         125.00       526.16
   69.88        2977.00           1596         108.00       452.05
   69.91        2977.25           1599         123.00       517.44
   69.94        2977.50           1602         113.00       473.85
   69.97        2977.75           1606         110.00       460.77
   69.99        2978.00           1609         110.00       460.77
   70.02        2978.25           1612          97.00       404.10
   70.05        2978.50           1616         102.00       425.90
   70.08        2978.75           1619          90.00       373.59
   70.11        2979.00           1622          97.00       404.10
   70.13        2979.25           1626          91.00       377.95
   70.16        2979.50           1629          89.00       369.23
   70.19        2979.75           1632          85.00       351.79
   70.22        2980.00           1636          82.00       338.71
   70.25        2980.25           1639          89.00       369.23
   70.27        2980.50           1642          82.00       338.71
   70.30        2980.75           1646          82.00       338.71
   70.33        2981.00           1649          83.00       343.07
   70.36        2981.25           1652          86.00       356.15
   70.39        2981.50           1656          89.00       369.23
   70.41        2981.75           1659          89.00       369.23
   70.44        2982.00           1662          77.00       316.92
   70.47        2982.25           1666          87.00       360.51
   70.50        2982.50           1669          83.00       343.07
   70.53        2982.75           1672          77.00       316.92
   70.55        2983.00           1676          81.00       334.35
   70.58        2983.25           1679          76.00       312.56
   70.61        2983.50           1682          77.00       316.92
   70.64        2983.75           1686          79.00       325.63
   70.67        2984.00           1689          76.00       312.56
HS scan finished at 01:10:50
end
