************************************************************
  HS Scan of (1) Internal mercury lamp
************************************************************
Integration time is 0.2294 seconds per sample
dh310317Madrid 40.45 3.17 2.804185pr940
************************************************************
Dead Time -------------------------  2.6E-08 
Number of Cycles Used -------------  4 
Starting Wavelength (Angstroms) ---  2950 
Final Wavelength (Angstoms) -------  2984 
Wavelength Increment (Angstroms) --  .25 
Filter Wheel #1 Position ---------- (1) Ground quartz diffuser (ND=2.32)
Filter Wheel #2 Position ---------- (1) Neutral Density 0.494



************************************************************
HS scan start time = 01:04:11
Dark Count =  1.5 


Time (GMT)  Wavelength (Ang)  Step Number  Raw Counts  Counts/Second

   64.55        2950.00           1237          83.00       355.28
   64.61        2950.25           1240          89.00       381.43
   64.64        2950.50           1244          78.00       333.48
   64.67        2950.75           1247          90.00       385.79
   64.70        2951.00           1250          83.00       355.28
   64.73        2951.25           1254          88.00       377.07
   64.75        2951.50           1257          79.00       337.84
   64.78        2951.75           1260          79.00       337.84
   64.81        2952.00           1264          85.00       364.00
   64.84        2952.25           1267          95.00       407.59
   64.87        2952.50           1270          82.00       350.92
   64.89        2952.75           1273          90.00       385.79
   64.92        2953.00           1277          82.00       350.92
   64.95        2953.25           1280          91.00       390.15
   64.98        2953.50           1283          84.00       359.64
   65.01        2953.75           1287          84.00       359.64
   65.03        2954.00           1290          80.00       342.20
   65.06        2954.25           1293          84.00       359.64
   65.09        2954.50           1297          83.00       355.28
   65.12        2954.75           1300          95.00       407.59
   65.14        2955.00           1303          93.00       398.87
   65.17        2955.25           1307          86.00       368.36
   65.20        2955.50           1310          87.00       372.72
   65.23        2955.75           1313          90.00       385.79
   65.26        2956.00           1317          87.00       372.72
   65.28        2956.25           1320         102.00       438.10
   65.31        2956.50           1323          97.00       416.31
   65.34        2956.75           1326         108.00       464.26
   65.37        2957.00           1330          99.00       425.03
   65.40        2957.25           1333         111.00       477.34
   65.42        2957.50           1336         122.00       525.29
   65.45        2957.75           1340         111.00       477.34
   65.48        2958.00           1343         132.00       568.88
   65.51        2958.25           1346         132.00       568.88
   65.54        2958.50           1350         134.00       577.60
   65.56        2958.75           1353         142.00       612.48
   65.59        2959.00           1356         145.00       625.56
   65.62        2959.25           1360         171.00       738.90
   65.65        2959.50           1363         234.00      1013.54
   65.68        2959.75           1366         341.00      1480.00
   65.70        2960.00           1370         489.00      2125.23
   65.73        2960.25           1373         706.00      3071.30
   65.76        2960.50           1376         859.00      3738.38
   65.79        2960.75           1380        1056.00      4597.32
   65.82        2961.00           1383        1294.00      5635.09
   65.84        2961.25           1386        1941.00      8456.52
   65.87        2961.50           1390        4903.00     21378.49
   65.90        2961.75           1393        9418.00     41092.27
   65.93        2962.00           1396       14928.00     65177.93
   65.96        2962.25           1399       20732.00     90581.42
   65.98        2962.50           1403       28599.00    125068.20
   66.01        2962.75           1406       34956.00    152980.90
   66.04        2963.00           1409       40841.00    178857.30
   66.07        2963.25           1413       49149.00    215447.20
   66.10        2963.50           1416       54651.00    239717.50
   66.13        2963.75           1419       59966.00    263192.00
   66.15        2964.00           1423       67305.00    295653.30
   66.18        2964.25           1426       73276.00    322104.30
   66.21        2964.50           1429       79030.00    347628.70
   66.24        2964.75           1433       86686.00    381643.10
   66.27        2965.00           1436       92483.00    407438.50
   66.29        2965.25           1439       98240.00    433090.50
   66.32        2965.50           1443      105131.00    463840.60
   66.35        2965.75           1446      110750.00    488951.20
   66.38        2966.00           1449      116356.00    514036.70
   66.41        2966.25           1453      123859.00    547662.50
   66.43        2966.50           1456      127665.00    564742.20
   66.46        2966.75           1459      128919.00    570373.00
   66.49        2967.00           1463      128817.00    569914.90
   66.52        2967.25           1466      129538.00    573153.10
   66.55        2967.50           1469      128503.00    568504.90
   66.57        2967.75           1473      124742.00    551623.60
   66.60        2968.00           1476      119499.00    528115.20
   66.63        2968.25           1479      114885.00    507451.20
   66.66        2968.50           1483      107647.00    475080.20
   66.69        2968.75           1486      102046.00    450068.10
   66.71        2969.00           1489       96357.00    424696.50
   66.74        2969.25           1493       88559.00    389973.80
   66.77        2969.50           1496       82191.00    361665.30
   66.80        2969.75           1499       76297.00    335501.00
   66.83        2970.00           1502       69650.00    306037.10
   66.85        2970.25           1506       62710.00    275322.60
   66.88        2970.50           1509       57011.00    250137.20
   66.91        2970.75           1512       49528.00    217118.00
   66.94        2971.00           1516       41824.00    183182.90
   66.97        2971.25           1519       36032.00    157709.40
   66.99        2971.50           1522       29851.00    130562.40
   67.02        2971.75           1526       22257.00     97261.78
   67.05        2972.00           1529       16413.00     71674.43
   67.08        2972.25           1532       10712.00     46745.98
   67.11        2972.50           1536        4464.00     19462.77
   67.13        2972.75           1539        2347.00     10227.22
   67.16        2973.00           1542        1583.00      6895.31
   67.19        2973.25           1546        1332.00      5800.79
   67.22        2973.50           1549        1158.00      5042.07
   67.25        2973.75           1552         942.00      4100.26
   67.28        2974.00           1556         773.00      3363.42
   67.30        2974.25           1559         565.00      2456.57
   67.33        2974.50           1562         407.00      1767.74
   67.36        2974.75           1566         316.00      1371.02
   67.39        2975.00           1569         198.00       856.60
   67.42        2975.25           1572         159.00       686.59
   67.44        2975.50           1576         142.00       612.48
   67.47        2975.75           1579         135.00       581.96
   67.50        2976.00           1582         138.00       595.04
   67.53        2976.25           1586         125.00       538.37
   67.56        2976.50           1589         121.00       520.93
   67.58        2976.75           1592         114.00       490.42
   67.61        2977.00           1596         116.00       499.13
   67.64        2977.25           1599         115.00       494.78
   67.67        2977.50           1602         105.00       451.18
   67.69        2977.75           1606         105.00       451.18
   67.72        2978.00           1609          99.00       425.03
   67.75        2978.25           1612          95.00       407.59
   67.78        2978.50           1616          99.00       425.03
   67.81        2978.75           1619         111.00       477.34
   67.83        2979.00           1622         102.00       438.10
   67.86        2979.25           1626          94.00       403.23
   67.89        2979.50           1629          92.00       394.51
   67.92        2979.75           1632          80.00       342.20
   67.95        2980.00           1636          84.00       359.64
   67.97        2980.25           1639          80.00       342.20
   68.00        2980.50           1642          89.00       381.43
   68.03        2980.75           1646          85.00       364.00
   68.06        2981.00           1649          80.00       342.20
   68.09        2981.25           1652          80.00       342.20
   68.11        2981.50           1656          79.00       337.84
   68.14        2981.75           1659          78.00       333.48
   68.17        2982.00           1662          81.00       346.56
   68.20        2982.25           1666          87.00       372.72
   68.23        2982.50           1669          81.00       346.56
   68.26        2982.75           1672          78.00       333.48
   68.28        2983.00           1676          78.00       333.48
   68.31        2983.25           1679          73.00       311.69
   68.34        2983.50           1682          73.00       311.69
   68.37        2983.75           1686          75.00       320.40
   68.39        2984.00           1689          80.00       342.20
HS scan finished at 01:08:34
end
