************************************************************
  HS Scan of (1) Internal mercury lamp
************************************************************
Integration time is 0.2294 seconds per sample
dh070417Madrid 40.45 3.17 2.750537pr940
************************************************************
Dead Time -------------------------  2.6E-08 
Number of Cycles Used -------------  4 
Starting Wavelength (Angstroms) ---  2950 
Final Wavelength (Angstoms) -------  2984 
Wavelength Increment (Angstroms) --  .25 
Filter Wheel #1 Position ---------- (1) Ground quartz diffuser (ND=2.32)
Filter Wheel #2 Position ---------- (1) Neutral Density 0.494



************************************************************
HS scan start time = 01:02:05
Dark Count =  2.1 


Time (GMT)  Wavelength (Ang)  Step Number  Raw Counts  Counts/Second

   62.45        2950.00           1237          75.00       317.79
   62.51        2950.25           1240          91.00       387.54
   62.54        2950.50           1244          89.00       378.82
   62.57        2950.75           1247          80.00       339.58
   62.60        2951.00           1250          88.00       374.46
   62.62        2951.25           1254          87.00       370.10
   62.65        2951.50           1257          83.00       352.66
   62.68        2951.75           1260          81.00       343.94
   62.71        2952.00           1264          83.00       352.66
   62.74        2952.25           1267          90.00       383.18
   62.76        2952.50           1270          81.00       343.94
   62.79        2952.75           1273          88.00       374.46
   62.82        2953.00           1277          85.00       361.38
   62.85        2953.25           1280          87.00       370.10
   62.88        2953.50           1283          87.00       370.10
   62.90        2953.75           1287          78.00       330.87
   62.93        2954.00           1290          83.00       352.66
   62.96        2954.25           1293          95.00       404.97
   62.99        2954.50           1297          79.00       335.23
   63.01        2954.75           1300          93.00       396.26
   63.04        2955.00           1303          99.00       422.41
   63.07        2955.25           1307          88.00       374.46
   63.10        2955.50           1310          95.00       404.97
   63.13        2955.75           1313          84.00       357.02
   63.15        2956.00           1317          96.00       409.33
   63.18        2956.25           1320          98.00       418.05
   63.21        2956.50           1323         107.00       457.29
   63.24        2956.75           1326         104.00       444.21
   63.26        2957.00           1330         106.00       452.93
   63.29        2957.25           1333         110.00       470.36
   63.32        2957.50           1336         116.00       496.52
   63.35        2957.75           1340         133.00       570.63
   63.38        2958.00           1343         127.00       544.47
   63.40        2958.25           1346         122.00       522.67
   63.43        2958.50           1350         131.00       561.91
   63.46        2958.75           1353         148.00       636.02
   63.49        2959.00           1356         149.00       640.38
   63.51        2959.25           1360         163.00       701.41
   63.54        2959.50           1363         238.00      1028.36
   63.57        2959.75           1366         354.00      1534.06
   63.60        2960.00           1370         515.00      2235.96
   63.63        2960.25           1373         722.00      3138.44
   63.65        2960.50           1376         884.00      3844.76
   63.68        2960.75           1380        1039.00      4520.58
   63.71        2961.00           1383        1271.00      5532.18
   63.74        2961.25           1386        1528.00      6652.85
   63.77        2961.50           1390        3607.00     15720.90
   63.80        2961.75           1393        7455.00     32516.15
   63.82        2962.00           1396       12469.00     54422.64
   63.85        2962.25           1399       18441.00     80547.33
   63.88        2962.50           1403       26247.00    114748.60
   63.91        2962.75           1406       32000.00    139993.80
   63.93        2963.00           1409       38534.00    168706.60
   63.96        2963.25           1413       46613.00    204268.10
   63.99        2963.50           1416       51833.00    227280.30
   64.02        2963.75           1419       57637.00    252899.40
   64.05        2964.00           1423       65344.00    286971.50
   64.07        2964.25           1426       70677.00    310583.80
   64.10        2964.50           1429       76981.00    338532.90
   64.13        2964.75           1433       84377.00    371375.50
   64.16        2965.00           1436       90024.00    396489.60
   64.19        2965.25           1439       95294.00    419956.80
   64.21        2965.50           1443      102438.00    451814.90
   64.24        2965.75           1446      107647.00    475077.60
   64.27        2966.00           1449      112952.00    498798.00
   64.30        2966.25           1453      121223.00    535839.30
   64.33        2966.50           1456      126034.00    557418.30
   64.35        2966.75           1459      128023.00    566346.80
   64.38        2967.00           1463      129153.00    571421.20
   64.41        2967.25           1466      129142.00    571371.80
   64.44        2967.50           1469      128849.00    570055.90
   64.47        2967.75           1473      127058.00    562014.50
   64.50        2968.00           1476      124001.00    548296.60
   64.52        2968.25           1479      119461.00    527942.30
   64.55        2968.50           1483      112001.00    494543.60
   64.58        2968.75           1486      105661.00    466205.00
   64.61        2969.00           1489       99578.00    439054.60
   64.64        2969.25           1493       91579.00    403411.00
   64.66        2969.50           1496       84642.00    372553.40
   64.69        2969.75           1499       78534.00    345424.50
   64.72        2970.00           1502       71651.00    314899.50
   64.75        2970.25           1506       63745.00    279897.40
   64.77        2970.50           1509       58425.00    256380.30
   64.80        2970.75           1512       52103.00    228471.30
   64.83        2971.00           1516       44249.00    193855.60
   64.86        2971.25           1519       37941.00    166098.90
   64.89        2971.50           1522       32271.00    141183.80
   64.92        2971.75           1526       23725.00    103692.00
   64.94        2972.00           1529       17102.00     74686.74
   64.97        2972.25           1532       11796.00     51480.81
   65.00        2972.50           1536        5998.00     26155.10
   65.03        2972.75           1539        2920.00     12723.91
   65.06        2973.00           1542        1744.00      7594.79
   65.08        2973.25           1546        1318.00      5737.12
   65.11        2973.50           1549        1029.00      4476.98
   65.14        2973.75           1552         886.00      3853.48
   65.17        2974.00           1556         718.00      3121.00
   65.19        2974.25           1559         501.00      2174.93
   65.22        2974.50           1562         369.00      1599.46
   65.25        2974.75           1566         240.00      1037.08
   65.28        2975.00           1569         171.00       736.28
   65.30        2975.25           1572         142.00       609.86
   65.33        2975.50           1576         148.00       636.02
   65.36        2975.75           1579         142.00       609.86
   65.39        2976.00           1582         131.00       561.91
   65.42        2976.25           1586         115.00       492.16
   65.44        2976.50           1589         114.00       487.80
   65.47        2976.75           1592         126.00       540.11
   65.50        2977.00           1596         107.00       457.29
   65.53        2977.25           1599         104.00       444.21
   65.55        2977.50           1602         104.00       444.21
   65.58        2977.75           1606         104.00       444.21
   65.61        2978.00           1609         101.00       431.13
   65.64        2978.25           1612          93.00       396.26
   65.67        2978.50           1616          95.00       404.97
   65.69        2978.75           1619          93.00       396.26
   65.72        2979.00           1622          92.00       391.90
   65.75        2979.25           1626          88.00       374.46
   65.78        2979.50           1629          90.00       383.18
   65.81        2979.75           1632          83.00       352.66
   65.83        2980.00           1636          81.00       343.94
   65.86        2980.25           1639          90.00       383.18
   65.89        2980.50           1642          78.00       330.87
   65.92        2980.75           1646          81.00       343.94
   65.94        2981.00           1649          85.00       361.38
   65.97        2981.25           1652          80.00       339.58
   66.00        2981.50           1656          79.00       335.23
   66.03        2981.75           1659          76.00       322.15
   66.06        2982.00           1662          86.00       365.74
   66.08        2982.25           1666          82.00       348.30
   66.11        2982.50           1669          82.00       348.30
   66.14        2982.75           1672          84.00       357.02
   66.17        2983.00           1676          85.00       361.38
   66.19        2983.25           1679          68.00       287.27
   66.22        2983.50           1682          77.00       326.51
   66.25        2983.75           1686          80.00       339.58
   66.28        2984.00           1689          74.00       313.43
HS scan finished at 01:06:27
end
