************************************************************
  HS Scan of (1) Internal mercury lamp
************************************************************
Integration time is 0.2294 seconds per sample
dh140417Madrid 40.45 3.17 2.804185pr940
************************************************************
Dead Time -------------------------  2.6E-08 
Number of Cycles Used -------------  4 
Starting Wavelength (Angstroms) ---  2950 
Final Wavelength (Angstoms) -------  2984 
Wavelength Increment (Angstroms) --  .25 
Filter Wheel #1 Position ---------- (1) Ground quartz diffuser (ND=2.32)
Filter Wheel #2 Position ---------- (1) Neutral Density 0.494



************************************************************
HS scan start time = 01:00:23
Dark Count =  2 


Time (GMT)  Wavelength (Ang)  Step Number  Raw Counts  Counts/Second

   60.74        2950.00           1237          87.00       370.54
   60.81        2950.25           1240          77.00       326.94
   60.83        2950.50           1244          80.00       340.02
   60.86        2950.75           1247          83.00       353.10
   60.89        2951.00           1250          77.00       326.94
   60.92        2951.25           1254          80.00       340.02
   60.95        2951.50           1257          82.00       348.74
   60.97        2951.75           1260          82.00       348.74
   61.00        2952.00           1264          80.00       340.02
   61.03        2952.25           1267          80.00       340.02
   61.06        2952.50           1270          86.00       366.18
   61.08        2952.75           1273          86.00       366.18
   61.11        2953.00           1277          76.00       322.58
   61.14        2953.25           1280          74.00       313.86
   61.17        2953.50           1283          92.00       392.33
   61.20        2953.75           1287          83.00       353.10
   61.22        2954.00           1290          92.00       392.33
   61.25        2954.25           1293          78.00       331.30
   61.28        2954.50           1297          84.00       357.46
   61.31        2954.75           1300          76.00       322.58
   61.34        2955.00           1303          84.00       357.46
   61.36        2955.25           1307          92.00       392.33
   61.39        2955.50           1310         100.00       427.21
   61.42        2955.75           1313          86.00       366.18
   61.45        2956.00           1317          93.00       396.69
   61.48        2956.25           1320          99.00       422.85
   61.50        2956.50           1323         109.00       466.44
   61.53        2956.75           1326         110.00       470.80
   61.56        2957.00           1330         113.00       483.88
   61.59        2957.25           1333         117.00       501.31
   61.62        2957.50           1336         108.00       462.08
   61.64        2957.75           1340         117.00       501.31
   61.67        2958.00           1343         139.00       597.22
   61.70        2958.25           1346         132.00       566.70
   61.75        2958.50           1350         133.00       571.06
   61.78        2958.75           1353         143.00       614.66
   61.81        2959.00           1356         147.00       632.09
   61.85        2959.25           1360         187.00       806.47
   61.89        2959.50           1363         292.00      1264.21
   61.92        2959.75           1366         437.00      1896.34
   61.95        2960.00           1370         550.00      2388.99
   61.98        2960.25           1373         761.00      3308.92
   62.01        2960.50           1376         987.00      4294.29
   62.04        2960.75           1380        1164.00      5066.06
   62.06        2961.00           1383        1397.00      6082.04
   62.09        2961.25           1386        2031.00      8846.85
   62.12        2961.50           1390        5112.00     22288.42
   62.16        2961.75           1393        9648.00     42094.87
   62.18        2962.00           1396       14837.00     64777.71
   62.21        2962.25           1399       19982.00     87294.68
   62.24        2962.50           1403       26984.00    117981.20
   62.27        2962.75           1406       32685.00    143002.40
   62.30        2963.00           1409       39248.00    171847.20
   62.32        2963.25           1413       48342.00    211887.70
   62.35        2963.50           1416       54397.00    238594.10
   62.38        2963.75           1419       60477.00    265448.30
   62.41        2964.00           1423       68248.00    299826.10
   62.44        2964.25           1426       73776.00    324318.70
   62.47        2964.50           1429       79534.00    349863.90
   62.49        2964.75           1433       86076.00    378928.50
   62.52        2965.00           1436       91708.00    403985.70
   62.55        2965.25           1439       97661.00    430506.80
   62.58        2965.50           1443      105154.00    463941.10
   62.61        2965.75           1446      110526.00    487947.30
   62.63        2966.00           1449      116765.00    515865.90
   62.66        2966.25           1453      125333.00    554273.00
   62.69        2966.50           1456      129027.00    570855.70
   62.72        2966.75           1459      130696.00    578352.80
   62.75        2967.00           1463      131032.00    579862.30
   62.78        2967.25           1466      131397.00    581502.50
   62.80        2967.50           1469      130813.00    578878.40
   62.83        2967.75           1473      128510.00    568534.00
   62.86        2968.00           1476      124594.00    550957.40
   62.89        2968.25           1479      119420.00    527759.10
   62.92        2968.50           1483      110934.00    489771.80
   62.95        2968.75           1486      104576.00    461359.90
   62.97        2969.00           1489       98048.00    432232.20
   63.00        2969.25           1493       90885.00    400322.10
   63.03        2969.50           1496       85160.00    374856.30
   63.06        2969.75           1499       79961.00    351759.60
   63.09        2970.00           1502       73713.00    324039.50
   63.11        2970.25           1506       64893.00    284976.40
   63.14        2970.50           1509       58691.00    257555.90
   63.17        2970.75           1512       51929.00    227704.20
   63.20        2971.00           1516       43135.00    188951.30
   63.23        2971.25           1519       37555.00    164402.20
   63.25        2971.50           1522       32115.00    140499.20
   63.28        2971.75           1526       23429.00    102395.20
   63.31        2972.00           1529       17932.00     78319.75
   63.34        2972.25           1532       13009.00     56783.87
   63.37        2972.50           1536        5781.00     25208.32
   63.39        2972.75           1539        2709.00     11803.97
   63.42        2973.00           1542        1589.00      6919.29
   63.45        2973.25           1546        1230.00      5353.84
   63.48        2973.50           1549         995.00      4329.17
   63.51        2973.75           1552         794.00      3452.79
   63.53        2974.00           1556         641.00      2785.73
   63.57        2974.25           1559         442.00      1918.14
   63.60        2974.50           1562         303.00      1312.16
   63.63        2974.75           1566         213.00       919.81
   63.65        2975.00           1569         167.00       719.28
   63.68        2975.25           1572         147.00       632.09
   63.71        2975.50           1576         140.00       601.58
   63.74        2975.75           1579         136.00       584.14
   63.77        2976.00           1582         116.00       496.96
   63.79        2976.25           1586         120.00       514.39
   63.83        2976.50           1589         116.00       496.96
   63.87        2976.75           1592         126.00       540.55
   63.89        2977.00           1596         115.00       492.60
   63.92        2977.25           1599         104.00       444.64
   63.95        2977.50           1602         116.00       496.96
   63.98        2977.75           1606          98.00       418.49
   64.01        2978.00           1609          97.00       414.13
   64.03        2978.25           1612          95.00       405.41
   64.06        2978.50           1616          88.00       374.89
   64.09        2978.75           1619          95.00       405.41
   64.12        2979.00           1622          86.00       366.18
   64.15        2979.25           1626          78.00       331.30
   64.17        2979.50           1629          87.00       370.54
   64.20        2979.75           1632          93.00       396.69
   64.23        2980.00           1636          91.00       387.97
   64.26        2980.25           1639          85.00       361.82
   64.29        2980.50           1642          82.00       348.74
   64.31        2980.75           1646          84.00       357.46
   64.34        2981.00           1649          78.00       331.30
   64.37        2981.25           1652          85.00       361.82
   64.40        2981.50           1656          85.00       361.82
   64.43        2981.75           1659          86.00       366.18
   64.45        2982.00           1662          83.00       353.10
   64.48        2982.25           1666          89.00       379.25
   64.51        2982.50           1669          74.00       313.86
   64.54        2982.75           1672          79.00       335.66
   64.56        2983.00           1676          69.00       292.07
   64.59        2983.25           1679          75.00       318.22
   64.62        2983.50           1682          71.00       300.79
   64.65        2983.75           1686          84.00       357.46
   64.68        2984.00           1689          65.00       274.63
HS scan finished at 01:04:51
end
