************************************************************
  HS Scan of (1) Internal mercury lamp
************************************************************
Integration time is 0.2294 seconds per sample
dh280417Madrid 40.45 3.17 2.750537pr940
************************************************************
Dead Time -------------------------  2.6E-08 
Number of Cycles Used -------------  4 
Starting Wavelength (Angstroms) ---  2950 
Final Wavelength (Angstoms) -------  2984 
Wavelength Increment (Angstroms) --  .25 
Filter Wheel #1 Position ---------- (1) Ground quartz diffuser (ND=2.32)
Filter Wheel #2 Position ---------- (1) Neutral Density 0.494



************************************************************
HS scan start time = 00:57:31
Dark Count =  2.1 


Time (GMT)  Wavelength (Ang)  Step Number  Raw Counts  Counts/Second

   57.87        2950.00           1237          82.00       348.30
   57.93        2950.25           1240          88.00       374.46
   57.96        2950.50           1244          78.00       330.87
   57.99        2950.75           1247          84.00       357.02
   58.02        2951.00           1250          85.00       361.38
   58.05        2951.25           1254          87.00       370.10
   58.07        2951.50           1257          87.00       370.10
   58.10        2951.75           1260          82.00       348.30
   58.13        2952.00           1264          78.00       330.87
   58.16        2952.25           1267          91.00       387.54
   58.19        2952.50           1270          88.00       374.46
   58.21        2952.75           1273          81.00       343.94
   58.24        2953.00           1277          89.00       378.82
   58.27        2953.25           1280          82.00       348.30
   58.30        2953.50           1283          89.00       378.82
   58.33        2953.75           1287          87.00       370.10
   58.36        2954.00           1290          89.00       378.82
   58.38        2954.25           1293          87.00       370.10
   58.41        2954.50           1297          85.00       361.38
   58.44        2954.75           1300          88.00       374.46
   58.47        2955.00           1303          86.00       365.74
   58.49        2955.25           1307          89.00       378.82
   58.52        2955.50           1310          87.00       370.10
   58.55        2955.75           1313          91.00       387.54
   58.58        2956.00           1317          95.00       404.97
   58.61        2956.25           1320          99.00       422.41
   58.63        2956.50           1323          98.00       418.05
   58.66        2956.75           1326         106.00       452.93
   58.69        2957.00           1330          94.00       400.61
   58.72        2957.25           1333         101.00       431.13
   58.75        2957.50           1336         112.00       479.08
   58.77        2957.75           1340         118.00       505.24
   58.80        2958.00           1343         127.00       544.47
   58.83        2958.25           1346         127.00       544.47
   58.86        2958.50           1350         130.00       557.55
   58.89        2958.75           1353         148.00       636.02
   58.91        2959.00           1356         153.00       657.81
   58.94        2959.25           1360         178.00       766.80
   58.97        2959.50           1363         239.00      1032.72
   59.00        2959.75           1366         347.00      1503.55
   59.03        2960.00           1370         508.00      2205.44
   59.05        2960.25           1373         733.00      3186.40
   59.08        2960.50           1376         904.00      3931.96
   59.11        2960.75           1380        1065.00      4633.95
   59.14        2961.00           1383        1296.00      5641.19
   59.17        2961.25           1386        1480.00      6443.54
   59.20        2961.50           1390        2273.00      9901.85
   59.22        2961.75           1393        4763.00     20764.91
   59.25        2962.00           1396        9328.00     40696.49
   59.28        2962.25           1399       14738.00     64344.26
   59.31        2962.50           1403       22812.00     99690.94
   59.34        2962.75           1406       29374.00    128466.30
   59.36        2963.00           1409       35601.00    155812.60
   59.39        2963.25           1413       44420.00    194608.60
   59.42        2963.50           1416       50206.00    220104.70
   59.45        2963.75           1419       56057.00    245921.80
   59.48        2964.00           1423       64227.00    282029.60
   59.50        2964.25           1426       70740.00    310862.90
   59.53        2964.50           1429       76799.00    337725.50
   59.56        2964.75           1433       84132.00    370286.70
   59.59        2965.00           1436       90184.00    397201.60
   59.62        2965.25           1439       95875.00    422545.70
   59.64        2965.50           1443      103533.00    456702.70
   59.67        2965.75           1446      109378.00    482814.20
   59.70        2966.00           1449      115483.00    510125.30
   59.73        2966.25           1453      122637.00    542179.10
   59.76        2966.50           1456      127703.00    564910.10
   59.79        2966.75           1459      130497.00    577458.30
   59.81        2967.00           1463      131926.00    583879.30
   59.84        2967.25           1466      131598.00    582405.30
   59.87        2967.50           1469      132255.00    585357.90
   59.90        2967.75           1473      130578.00    577822.20
   59.93        2968.00           1476      128212.00    567195.40
   59.96        2968.25           1479      123885.00    547776.30
   59.98        2968.50           1483      116227.00    513456.40
   60.01        2968.75           1486      110593.00    488246.50
   60.04        2969.00           1489      104701.00    461917.60
   60.07        2969.25           1493       97060.00    427827.20
   60.10        2969.50           1496       91452.00    402845.60
   60.12        2969.75           1499       84789.00    373206.70
   60.15        2970.00           1502       78219.00    344026.50
   60.18        2970.25           1506       69929.00    307270.20
   60.21        2970.50           1509       63887.00    280525.50
   60.24        2970.75           1512       57039.00    250258.20
   60.26        2971.00           1516       48868.00    214205.80
   60.29        2971.25           1519       42821.00    187568.60
   60.32        2971.50           1522       36146.00    158207.90
   60.35        2971.75           1526       28383.00    124117.90
   60.38        2972.00           1529       22518.00     98402.69
   60.41        2972.25           1532       16698.00     72918.85
   60.43        2972.50           1536        8694.00     37927.10
   60.46        2972.75           1539        4151.00     18094.39
   60.49        2973.00           1542        2008.00      8746.10
   60.52        2973.25           1546        1353.00      5889.74
   60.55        2973.50           1549        1102.00      4795.28
   60.57        2973.75           1552         878.00      3818.60
   60.60        2974.00           1556         737.00      3203.84
   60.63        2974.25           1559         511.00      2218.52
   60.66        2974.50           1562         387.00      1677.93
   60.69        2974.75           1566         268.00      1159.15
   60.71        2975.00           1569         183.00       788.60
   60.74        2975.25           1572         173.00       745.00
   60.77        2975.50           1576         140.00       601.14
   60.80        2975.75           1579         139.00       596.78
   60.83        2976.00           1582         137.00       588.06
   60.85        2976.25           1586         114.00       487.80
   60.88        2976.50           1589         122.00       522.67
   60.91        2976.75           1592         120.00       513.96
   60.94        2977.00           1596         119.00       509.60
   60.97        2977.25           1599         118.00       505.24
   60.99        2977.50           1602         113.00       483.44
   61.02        2977.75           1606         104.00       444.21
   61.05        2978.00           1609         106.00       452.93
   61.08        2978.25           1612          94.00       400.61
   61.11        2978.50           1616          99.00       422.41
   61.13        2978.75           1619          88.00       374.46
   61.16        2979.00           1622          98.00       418.05
   61.19        2979.25           1626          87.00       370.10
   61.22        2979.50           1629          98.00       418.05
   61.25        2979.75           1632          91.00       387.54
   61.27        2980.00           1636          94.00       400.61
   61.30        2980.25           1639          96.00       409.33
   61.33        2980.50           1642          82.00       348.30
   61.36        2980.75           1646          90.00       383.18
   61.39        2981.00           1649          88.00       374.46
   61.41        2981.25           1652          82.00       348.30
   61.44        2981.50           1656          86.00       365.74
   61.47        2981.75           1659          85.00       361.38
   61.50        2982.00           1662          84.00       357.02
   61.52        2982.25           1666          82.00       348.30
   61.55        2982.50           1669          72.00       304.71
   61.58        2982.75           1672          78.00       330.87
   61.61        2983.00           1676          86.00       365.74
   61.64        2983.25           1679          78.00       330.87
   61.66        2983.50           1682          77.00       326.51
   61.69        2983.75           1686          78.00       330.87
   61.72        2984.00           1689          76.00       322.15
HS scan finished at 01:01:54
end
