************************************************************
  HS Scan of (1) Internal mercury lamp
************************************************************
Integration time is 0.2294 seconds per sample
dh050517Madrid 40.45 3.17 2.911481pr940
************************************************************
Dead Time -------------------------  2.6E-08 
Number of Cycles Used -------------  4 
Starting Wavelength (Angstroms) ---  2950 
Final Wavelength (Angstoms) -------  2984 
Wavelength Increment (Angstroms) --  .25 
Filter Wheel #1 Position ---------- (1) Ground quartz diffuser (ND=2.32)
Filter Wheel #2 Position ---------- (1) Neutral Density 0.494



************************************************************
HS scan start time = 00:56:56
Dark Count =  2.5 


Time (GMT)  Wavelength (Ang)  Step Number  Raw Counts  Counts/Second

   57.30        2950.00           1237          76.00       320.40
   57.36        2950.25           1240          83.00       350.92
   57.39        2950.50           1244          66.00       276.81
   57.42        2950.75           1247          77.00       324.76
   57.45        2951.00           1250          81.00       342.20
   57.48        2951.25           1254          75.00       316.04
   57.50        2951.50           1257          79.00       333.48
   57.53        2951.75           1260          75.00       316.04
   57.56        2952.00           1264          77.00       324.76
   57.59        2952.25           1267          73.00       307.33
   57.62        2952.50           1270          69.00       289.89
   57.64        2952.75           1273          79.00       333.48
   57.67        2953.00           1277          90.00       381.43
   57.70        2953.25           1280          86.00       364.00
   57.73        2953.50           1283          78.00       329.12
   57.76        2953.75           1287          83.00       350.92
   57.78        2954.00           1290          85.00       359.64
   57.81        2954.25           1293          86.00       364.00
   57.84        2954.50           1297          85.00       359.64
   57.87        2954.75           1300          85.00       359.64
   57.90        2955.00           1303          93.00       394.51
   57.92        2955.25           1307          87.00       368.36
   57.95        2955.50           1310          92.00       390.15
   57.98        2955.75           1313          97.00       411.95
   58.01        2956.00           1317          94.00       398.87
   58.04        2956.25           1320          92.00       390.15
   58.06        2956.50           1323          97.00       411.95
   58.09        2956.75           1326          99.00       420.67
   58.12        2957.00           1330         100.00       425.03
   58.15        2957.25           1333         114.00       486.06
   58.18        2957.50           1336         104.00       442.46
   58.20        2957.75           1340         121.00       516.57
   58.23        2958.00           1343         127.00       542.73
   58.26        2958.25           1346         143.00       612.48
   58.29        2958.50           1350         132.00       564.52
   58.32        2958.75           1353         134.00       573.24
   58.34        2959.00           1356         141.00       603.76
   58.37        2959.25           1360         152.00       651.71
   58.40        2959.50           1363         225.00       969.95
   58.43        2959.75           1366         336.00      1453.85
   58.46        2960.00           1370         480.00      2081.63
   58.48        2960.25           1373         678.00      2944.86
   58.51        2960.50           1376         859.00      3734.02
   58.54        2960.75           1380        1059.00      4606.04
   58.57        2961.00           1383        1350.00      5874.92
   58.60        2961.25           1386        1564.00      6808.09
   58.62        2961.50           1390        3164.00     13786.55
   58.65        2961.75           1393        6003.00     26175.18
   58.68        2962.00           1396       10378.00     45282.14
   58.71        2962.25           1399       16552.00     72278.25
   58.74        2962.50           1403       25156.00    109963.00
   58.77        2962.75           1406       31028.00    135724.40
   58.79        2963.00           1409       37685.00    164971.60
   58.82        2963.25           1413       46648.00    204420.60
   58.85        2963.50           1416       53020.00    232515.20
   58.88        2963.75           1419       59179.00    259709.90
   58.91        2964.00           1423       66582.00    292448.50
   58.93        2964.25           1426       72619.00    319187.60
   58.96        2964.50           1429       78544.00    345467.10
   58.99        2964.75           1433       86307.00    379953.40
   59.02        2965.00           1436       91705.00    403970.10
   59.05        2965.25           1439       98232.00    433050.40
   59.07        2965.50           1443      105926.00    467386.90
   59.10        2965.75           1446      111768.00    493499.60
   59.13        2966.00           1449      117473.00    519034.50
   59.16        2966.25           1453      124626.00    551098.60
   59.19        2966.50           1456      129168.00    571486.80
   59.21        2966.75           1459      132085.00    584592.00
   59.24        2967.00           1463      133214.00    589666.70
   59.27        2967.25           1466      133163.00    589437.50
   59.30        2967.50           1469      132961.00    588529.50
   59.33        2967.75           1473      131009.00    579756.80
   59.35        2968.00           1476      127439.00    563723.10
   59.38        2968.25           1479      123299.00    545146.10
   59.41        2968.50           1483      116590.00    515080.10
   59.44        2968.75           1486      110296.00    486916.70
   59.47        2969.00           1489      103787.00    457834.80
   59.49        2969.25           1493       95841.00    422392.40
   59.52        2969.50           1496       90344.00    397912.00
   59.55        2969.75           1499       85049.00    374360.60
   59.58        2970.00           1502       78913.00    347105.00
   59.61        2970.25           1506       70742.00    310870.00
   59.63        2970.50           1509       65504.00    287677.70
   59.66        2970.75           1512       59808.00    262489.40
   59.69        2971.00           1516       51838.00    227300.60
   59.72        2971.25           1519       45127.00    197720.50
   59.75        2971.50           1522       38577.00    168893.90
   59.77        2971.75           1526       30290.00    132484.80
   59.80        2972.00           1529       24143.00    105522.30
   59.83        2972.25           1532       18136.00     79210.48
   59.86        2972.50           1536       10357.00     45190.39
   59.89        2972.75           1539        5772.00     25166.86
   59.92        2973.00           1542        2796.00     12181.28
   59.94        2973.25           1546        1429.00      6219.40
   59.97        2973.50           1549        1119.00      4867.66
   60.00        2973.75           1552         926.00      4026.14
   60.03        2974.00           1556         748.00      3250.06
   60.07        2974.25           1559         542.00      2351.93
   60.10        2974.50           1562         402.00      1741.58
   60.13        2974.75           1566         277.00      1196.64
   60.15        2975.00           1569         172.00       738.90
   60.18        2975.25           1572         145.00       621.20
   60.21        2975.50           1576         142.00       608.12
   60.24        2975.75           1579         152.00       651.71
   60.27        2976.00           1582         128.00       547.09
   60.29        2976.25           1586         124.00       529.65
   60.32        2976.50           1589         115.00       490.42
   60.35        2976.75           1592         117.00       499.13
   60.38        2977.00           1596         115.00       490.42
   60.41        2977.25           1599         111.00       472.98
   60.43        2977.50           1602         114.00       486.06
   60.46        2977.75           1606         100.00       425.03
   60.49        2978.00           1609         104.00       442.46
   60.52        2978.25           1612          94.00       398.87
   60.55        2978.50           1616          98.00       416.31
   60.57        2978.75           1619          93.00       394.51
   60.60        2979.00           1622          90.00       381.43
   60.63        2979.25           1626          88.00       372.72
   60.66        2979.50           1629          80.00       337.84
   60.69        2979.75           1632          87.00       368.36
   60.71        2980.00           1636          95.00       403.23
   60.74        2980.25           1639          89.00       377.07
   60.77        2980.50           1642          84.00       355.28
   60.80        2980.75           1646          80.00       337.84
   60.83        2981.00           1649          87.00       368.36
   60.86        2981.25           1652          83.00       350.92
   60.89        2981.50           1656          76.00       320.40
   60.92        2981.75           1659          74.00       311.69
   60.95        2982.00           1662          78.00       329.12
   60.97        2982.25           1666          83.00       350.92
   61.00        2982.50           1669          82.00       346.56
   61.03        2982.75           1672          80.00       337.84
   61.06        2983.00           1676          83.00       350.92
   61.08        2983.25           1679          77.00       324.76
   61.11        2983.50           1682          81.00       342.20
   61.14        2983.75           1686          78.00       329.12
   61.17        2984.00           1689          81.00       342.20
HS scan finished at 01:01:21
end
