************************************************************
  HS Scan of (1) Internal mercury lamp
************************************************************
Integration time is 0.2294 seconds per sample
dh190517Madrid 40.45 3.17 2.750537pr940
************************************************************
Dead Time -------------------------  2.6E-08 
Number of Cycles Used -------------  4 
Starting Wavelength (Angstroms) ---  2950 
Final Wavelength (Angstoms) -------  2984 
Wavelength Increment (Angstroms) --  .25 
Filter Wheel #1 Position ---------- (1) Ground quartz diffuser (ND=2.32)
Filter Wheel #2 Position ---------- (1) Neutral Density 0.494



************************************************************
HS scan start time = 00:56:32
Dark Count =  2.4 


Time (GMT)  Wavelength (Ang)  Step Number  Raw Counts  Counts/Second

   56.89        2950.00           1237          88.00       373.15
   56.96        2950.25           1240          79.00       333.92
   56.99        2950.50           1244          89.00       377.51
   57.01        2950.75           1247          90.00       381.87
   57.04        2951.00           1250          86.00       364.43
   57.07        2951.25           1254          90.00       381.87
   57.10        2951.50           1257          88.00       373.15
   57.13        2951.75           1260          81.00       342.64
   57.15        2952.00           1264          86.00       364.43
   57.18        2952.25           1267          87.00       368.79
   57.21        2952.50           1270          77.00       325.20
   57.24        2952.75           1273          80.00       338.28
   57.26        2953.00           1277          88.00       373.15
   57.29        2953.25           1280          78.00       329.56
   57.32        2953.50           1283          85.00       360.07
   57.35        2953.75           1287          85.00       360.07
   57.38        2954.00           1290          78.00       329.56
   57.41        2954.25           1293          86.00       364.43
   57.43        2954.50           1297          79.00       333.92
   57.46        2954.75           1300          90.00       381.87
   57.49        2955.00           1303          97.00       412.38
   57.52        2955.25           1307          95.00       403.67
   57.54        2955.50           1310          94.00       399.31
   57.57        2955.75           1313          93.00       394.95
   57.60        2956.00           1317          98.00       416.74
   57.63        2956.25           1320         100.00       425.46
   57.66        2956.50           1323          92.00       390.59
   57.68        2956.75           1326         109.00       464.70
   57.71        2957.00           1330         107.00       455.98
   57.74        2957.25           1333         108.00       460.34
   57.77        2957.50           1336         122.00       521.37
   57.80        2957.75           1340         111.00       473.41
   57.82        2958.00           1343         140.00       599.84
   57.85        2958.25           1346         128.00       547.52
   57.88        2958.50           1350         123.00       525.73
   57.91        2958.75           1353         143.00       612.91
   57.94        2959.00           1356         149.00       639.07
   57.96        2959.25           1360         186.00       800.37
   58.00        2959.50           1363         310.00      1340.94
   58.03        2959.75           1366         435.00      1885.88
   58.06        2960.00           1370         564.00      2448.28
   58.09        2960.25           1373         756.00      3285.37
   58.11        2960.50           1376         947.00      4118.14
   58.14        2960.75           1380        1124.00      4889.90
   58.17        2961.00           1383        1340.00      5831.75
   58.20        2961.25           1386        1594.00      6939.35
   58.22        2961.50           1390        3120.00     13595.04
   58.25        2961.75           1393        6299.00     27467.74
   58.28        2962.00           1396       11211.00     48922.70
   58.31        2962.25           1399       16980.00     74151.54
   58.34        2962.50           1403       24761.00    108231.80
   58.37        2962.75           1406       31453.00    137590.70
   58.39        2963.00           1409       37767.00    165332.60
   58.42        2963.25           1413       45984.00    201495.80
   58.45        2963.50           1416       51389.00    225320.50
   58.48        2963.75           1419       57685.00    253110.10
   58.51        2964.00           1423       64590.00    283634.10
   58.53        2964.25           1426       69971.00    307455.00
   58.56        2964.50           1429       75214.00    330693.40
   58.59        2964.75           1433       82421.00    362683.00
   58.62        2965.00           1436       88070.00    387794.50
   58.65        2965.25           1439       93879.00    413651.70
   58.68        2965.50           1443      101494.00    447600.80
   58.70        2965.75           1446      106846.00    471497.20
   58.73        2966.00           1449      112370.00    496193.00
   58.76        2966.25           1453      119076.00    526215.80
   58.79        2966.50           1456      123495.00    546025.70
   58.82        2966.75           1459      127124.00    562309.50
   58.84        2967.00           1463      127814.00    565407.10
   58.87        2967.25           1466      127929.00    565923.50
   58.90        2967.50           1469      128056.00    566493.60
   58.93        2967.75           1473      127184.00    562578.80
   58.96        2968.00           1476      124892.00    552292.50
   58.98        2968.25           1479      121507.00    537111.20
   59.01        2968.50           1483      115169.00    508718.40
   59.04        2968.75           1486      109485.00    483291.20
   59.06        2969.00           1489      103918.00    458420.10
   59.09        2969.25           1493       96793.00    426635.70
   59.13        2969.50           1496       90701.00    399501.30
   59.15        2969.75           1499       84645.00    372565.40
   59.18        2970.00           1502       78701.00    346164.40
   59.21        2970.25           1506       70657.00    310493.90
   59.24        2970.50           1509       64203.00    281922.00
   59.27        2970.75           1512       57994.00    254475.00
   59.29        2971.00           1516       49370.00    216417.50
   59.32        2971.25           1519       42954.00    188152.70
   59.35        2971.50           1522       36848.00    161292.20
   59.38        2971.75           1526       29306.00    128166.60
   59.41        2972.00           1529       23853.00    104251.70
   59.43        2972.25           1532       18299.00     79924.41
   59.46        2972.50           1536       11129.00     48564.34
   59.49        2972.75           1539        5859.00     25547.04
   59.52        2973.00           1542        2685.00     11697.54
   59.55        2973.25           1546        1294.00      5631.16
   59.57        2973.50           1549         987.00      4292.55
   59.60        2973.75           1552         809.00      3516.45
   59.63        2974.00           1556         647.00      2810.14
   59.66        2974.25           1559         419.00      1816.13
   59.69        2974.50           1562         298.00      1288.62
   59.71        2974.75           1566         213.00       918.07
   59.74        2975.00           1569         167.00       717.54
   59.77        2975.25           1572         160.00       687.02
   59.80        2975.50           1576         142.00       608.55
   59.83        2975.75           1579         136.00       582.40
   59.85        2976.00           1582         136.00       582.40
   59.88        2976.25           1586         136.00       582.40
   59.91        2976.50           1589         116.00       495.21
   59.94        2976.75           1592         124.00       530.09
   59.96        2977.00           1596         113.00       482.13
   59.99        2977.25           1599         116.00       495.21
   60.02        2977.50           1602         104.00       442.90
   60.05        2977.75           1606          91.00       386.23
   60.08        2978.00           1609         105.00       447.26
   60.10        2978.25           1612         100.00       425.46
   60.13        2978.50           1616          94.00       399.31
   60.16        2978.75           1619          96.00       408.03
   60.19        2979.00           1622         105.00       447.26
   60.22        2979.25           1626          90.00       381.87
   60.24        2979.50           1629          90.00       381.87
   60.27        2979.75           1632          87.00       368.79
   60.30        2980.00           1636          83.00       351.35
   60.33        2980.25           1639         100.00       425.46
   60.36        2980.50           1642          87.00       368.79
   60.38        2980.75           1646          78.00       329.56
   60.41        2981.00           1649          79.00       333.92
   60.44        2981.25           1652          80.00       338.28
   60.47        2981.50           1656          88.00       373.15
   60.49        2981.75           1659          79.00       333.92
   60.52        2982.00           1662          80.00       338.28
   60.55        2982.25           1666          77.00       325.20
   60.58        2982.50           1669          81.00       342.64
   60.61        2982.75           1672          79.00       333.92
   60.64        2983.00           1676          81.00       342.64
   60.66        2983.25           1679          85.00       360.07
   60.69        2983.50           1682          75.00       316.48
   60.72        2983.75           1686          91.00       386.23
   60.75        2984.00           1689          80.00       338.28
HS scan finished at 01:00:55
end
