************************************************************
  HS Scan of (1) Internal mercury lamp
************************************************************
Integration time is 0.2294 seconds per sample
dh120517Madrid 40.45 3.17 2.750537pr940
************************************************************
Dead Time -------------------------  2.6E-08 
Number of Cycles Used -------------  4 
Starting Wavelength (Angstroms) ---  2950 
Final Wavelength (Angstoms) -------  2984 
Wavelength Increment (Angstroms) --  .25 
Filter Wheel #1 Position ---------- (1) Ground quartz diffuser (ND=2.32)
Filter Wheel #2 Position ---------- (1) Neutral Density 0.494



************************************************************
HS scan start time = 00:56:20
Dark Count =  1.6 


Time (GMT)  Wavelength (Ang)  Step Number  Raw Counts  Counts/Second

   56.69        2950.00           1237          79.00       337.40
   56.76        2950.25           1240          83.00       354.84
   56.79        2950.50           1244          86.00       367.92
   56.81        2950.75           1247          82.00       350.48
   56.84        2951.00           1250          93.00       398.43
   56.87        2951.25           1254          82.00       350.48
   56.90        2951.50           1257          82.00       350.48
   56.93        2951.75           1260          76.00       324.33
   56.95        2952.00           1264          87.00       372.28
   56.98        2952.25           1267          83.00       354.84
   57.01        2952.50           1270          93.00       398.43
   57.04        2952.75           1273          82.00       350.48
   57.07        2953.00           1277          88.00       376.64
   57.09        2953.25           1280          84.00       359.20
   57.12        2953.50           1283          90.00       385.36
   57.15        2953.75           1287          91.00       389.72
   57.18        2954.00           1290          92.00       394.08
   57.21        2954.25           1293          85.00       363.56
   57.23        2954.50           1297         102.00       437.67
   57.26        2954.75           1300          85.00       363.56
   57.29        2955.00           1303          90.00       385.36
   57.32        2955.25           1307          90.00       385.36
   57.34        2955.50           1310          92.00       394.08
   57.37        2955.75           1313          91.00       389.72
   57.40        2956.00           1317          97.00       415.87
   57.43        2956.25           1320          94.00       402.79
   57.46        2956.50           1323         100.00       428.95
   57.48        2956.75           1326         105.00       450.75
   57.51        2957.00           1330         111.00       476.90
   57.54        2957.25           1333         118.00       507.42
   57.57        2957.50           1336         118.00       507.42
   57.60        2957.75           1340         119.00       511.78
   57.62        2958.00           1343         137.00       590.24
   57.65        2958.25           1346         133.00       572.81
   57.68        2958.50           1350         131.00       564.09
   57.71        2958.75           1353         140.00       603.32
   57.74        2959.00           1356         153.00       659.99
   57.76        2959.25           1360         165.00       712.31
   57.79        2959.50           1363         240.00      1039.26
   57.82        2959.75           1366         359.00      1558.04
   57.85        2960.00           1370         524.00      2277.38
   57.88        2960.25           1373         692.00      3009.83
   57.90        2960.50           1376         886.00      3855.66
   57.93        2960.75           1380        1043.00      4540.20
   57.96        2961.00           1383        1280.00      5573.61
   57.99        2961.25           1386        1473.00      6415.19
   58.02        2961.50           1390        2615.00     11395.70
   58.05        2961.75           1393        5445.00     23743.51
   58.07        2962.00           1396        9860.00     43022.82
   58.10        2962.25           1399       15698.00     68545.77
   58.13        2962.50           1403       23778.00    103926.50
   58.16        2962.75           1406       30158.00    131909.40
   58.19        2963.00           1409       36655.00    160447.40
   58.21        2963.25           1413       44493.00    194932.30
   58.24        2963.50           1416       50700.00    222285.40
   58.27        2963.75           1419       56513.00    247937.50
   58.30        2964.00           1423       63821.00    280235.80
   58.33        2964.25           1426       68632.00    301528.20
   58.36        2964.50           1429       74179.00    326107.30
   58.38        2964.75           1433       81832.00    360070.10
   58.41        2965.00           1436       87114.00    383546.00
   58.44        2965.25           1439       92703.00    408417.70
   58.47        2965.50           1443      100512.00    443223.10
   58.50        2965.75           1446      105745.00    466582.40
   58.52        2966.00           1449      112112.00    495042.30
   58.55        2966.25           1453      118805.00    525005.30
   58.58        2966.50           1456      123556.00    546302.80
   58.61        2966.75           1459      126970.00    561621.70
   58.64        2967.00           1463      129063.00    571019.30
   58.67        2967.25           1466      128818.00    569919.00
   58.69        2967.50           1469      128934.00    570439.90
   58.72        2967.75           1473      128289.00    567543.50
   58.75        2968.00           1476      126796.00    560840.60
   58.78        2968.25           1479      123256.00    544957.30
   58.81        2968.50           1483      116790.00    515979.70
   58.84        2968.75           1486      111734.00    493351.60
   58.86        2969.00           1489      106159.00    468431.70
   58.89        2969.25           1493       98374.00    433687.50
   58.92        2969.50           1496       92471.00    407384.60
   58.95        2969.75           1499       86852.00    382380.90
   58.98        2970.00           1502       80598.00    354589.70
   59.00        2970.25           1506       72136.00    317051.00
   59.03        2970.50           1509       66066.00    290168.70
   59.06        2970.75           1512       59296.00    260230.80
   59.09        2971.00           1516       50522.00    221500.40
   59.12        2971.25           1519       44052.00    192990.40
   59.15        2971.50           1522       38162.00    167072.90
   59.17        2971.75           1526       30263.00    132370.20
   59.20        2972.00           1529       24361.00    106481.90
   59.23        2972.25           1532       18947.00     82764.66
   59.26        2972.50           1536       11420.00     49839.61
   59.29        2972.75           1539        6140.00     26777.14
   59.31        2973.00           1542        2913.00     12695.56
   59.34        2973.25           1546        1459.00      6354.15
   59.37        2973.50           1549        1111.00      4836.70
   59.40        2973.75           1552         899.00      3912.34
   59.43        2974.00           1556         732.00      3184.22
   59.45        2974.25           1559         491.00      2133.51
   59.48        2974.50           1562         376.00      1632.15
   59.51        2974.75           1566         268.00      1161.33
   59.54        2975.00           1569         180.00       777.70
   59.57        2975.25           1572         157.00       677.43
   59.59        2975.50           1576         149.00       642.56
   59.62        2975.75           1579         129.00       555.37
   59.65        2976.00           1582         139.00       598.96
   59.68        2976.25           1586         123.00       529.21
   59.71        2976.50           1589         121.00       520.50
   59.73        2976.75           1592         111.00       476.90
   59.76        2977.00           1596         118.00       507.42
   59.79        2977.25           1599         119.00       511.78
   59.82        2977.50           1602         112.00       481.26
   59.85        2977.75           1606          96.00       411.51
   59.87        2978.00           1609          95.00       407.15
   59.90        2978.25           1612         106.00       455.11
   59.93        2978.50           1616          88.00       376.64
   59.96        2978.75           1619          86.00       367.92
   59.99        2979.00           1622          95.00       407.15
   60.01        2979.25           1626          85.00       363.56
   60.04        2979.50           1629          89.00       381.00
   60.07        2979.75           1632          88.00       376.64
   60.10        2980.00           1636          82.00       350.48
   60.13        2980.25           1639          86.00       367.92
   60.15        2980.50           1642          87.00       372.28
   60.18        2980.75           1646          94.00       402.79
   60.21        2981.00           1649          81.00       346.12
   60.24        2981.25           1652          76.00       324.33
   60.27        2981.50           1656          77.00       328.69
   60.29        2981.75           1659          74.00       315.61
   60.32        2982.00           1662          78.00       333.05
   60.35        2982.25           1666          81.00       346.12
   60.38        2982.50           1669          80.00       341.76
   60.40        2982.75           1672          80.00       341.76
   60.43        2983.00           1676          78.00       333.05
   60.46        2983.25           1679          82.00       350.48
   60.49        2983.50           1682          83.00       354.84
   60.52        2983.75           1686          74.00       315.61
   60.54        2984.00           1689          78.00       333.05
HS scan finished at 01:00:43
end
