************************************************************
  HS Scan of (1) Internal mercury lamp
************************************************************
Integration time is 0.2294 seconds per sample
dh260517Madrid 40.45 3.17 3.072425pr940
************************************************************
Dead Time -------------------------  2.6E-08 
Number of Cycles Used -------------  4 
Starting Wavelength (Angstroms) ---  2950 
Final Wavelength (Angstoms) -------  2984 
Wavelength Increment (Angstroms) --  .25 
Filter Wheel #1 Position ---------- (1) Ground quartz diffuser (ND=2.32)
Filter Wheel #2 Position ---------- (1) Neutral Density 0.494



************************************************************
HS scan start time = 00:57:02
Dark Count =  1.8 


Time (GMT)  Wavelength (Ang)  Step Number  Raw Counts  Counts/Second

   57.39        2950.00           1237          71.00       301.66
   57.45        2950.25           1240          78.00       332.17
   57.48        2950.50           1244          68.00       288.58
   57.51        2950.75           1247          70.00       297.30
   57.54        2951.00           1250          74.00       314.74
   57.56        2951.25           1254          79.00       336.53
   57.59        2951.50           1257          72.00       306.02
   57.62        2951.75           1260          79.00       336.53
   57.65        2952.00           1264          81.00       345.25
   57.68        2952.25           1267          75.00       319.10
   57.70        2952.50           1270          79.00       336.53
   57.73        2952.75           1273          73.00       310.38
   57.76        2953.00           1277          77.00       327.81
   57.79        2953.25           1280          74.00       314.74
   57.82        2953.50           1283          73.00       310.38
   57.84        2953.75           1287          80.00       340.89
   57.87        2954.00           1290          79.00       336.53
   57.90        2954.25           1293          78.00       332.17
   57.93        2954.50           1297          84.00       358.33
   57.95        2954.75           1300          79.00       336.53
   57.98        2955.00           1303          70.00       297.30
   58.01        2955.25           1307          89.00       380.13
   58.04        2955.50           1310          77.00       327.81
   58.06        2955.75           1313          88.00       375.77
   58.09        2956.00           1317          92.00       393.20
   58.12        2956.25           1320          87.00       371.41
   58.15        2956.50           1323          97.00       415.00
   58.18        2956.75           1326         106.00       454.23
   58.20        2957.00           1330         103.00       441.16
   58.23        2957.25           1333         105.00       449.87
   58.26        2957.50           1336         101.00       432.44
   58.29        2957.75           1340         112.00       480.39
   58.32        2958.00           1343         123.00       528.34
   58.34        2958.25           1346         124.00       532.70
   58.38        2958.50           1350         121.00       519.62
   58.41        2958.75           1353         138.00       593.73
   58.43        2959.00           1356         156.00       672.20
   58.46        2959.25           1360         200.00       864.01
   58.49        2959.50           1363         330.00      1430.74
   58.52        2959.75           1366         462.00      2006.21
   58.55        2960.00           1370         641.00      2786.60
   58.57        2960.25           1373         886.00      3854.79
   58.60        2960.50           1376        1055.00      4591.66
   58.63        2960.75           1380        1215.00      5289.31
   58.66        2961.00           1383        1484.00      6462.29
   58.69        2961.25           1386        1885.00      8210.99
   58.71        2961.50           1390        4466.00     19470.19
   58.74        2961.75           1393        8698.00     37945.88
   58.77        2962.00           1396       13628.00     59491.25
   58.80        2962.25           1399       18999.00     82991.44
   58.83        2962.50           1403       26652.00    116526.00
   58.85        2962.75           1406       32830.00    143640.10
   58.88        2963.00           1409       39324.00    172182.40
   58.91        2963.25           1413       48375.00    212034.10
   58.94        2963.50           1416       54692.00    239897.10
   58.97        2963.75           1419       61797.00    271284.20
   58.99        2964.00           1423       70250.00    308693.50
   59.02        2964.25           1426       76133.00    334772.30
   59.05        2964.50           1429       82070.00    361126.40
   59.08        2964.75           1433       89418.00    393794.30
   59.11        2965.00           1436       95631.00    421459.70
   59.13        2965.25           1439      101173.00    446171.20
   59.16        2965.50           1443      109028.00    481251.00
   59.19        2965.75           1446      114825.00    507181.30
   59.22        2966.00           1449      120871.00    534262.90
   59.25        2966.25           1453      129244.00    571831.30
   59.27        2966.50           1456      133543.00    591149.00
   59.30        2966.75           1459      136269.00    603408.50
   59.33        2967.00           1463      136419.00    604083.30
   59.36        2967.25           1466      136763.00    605631.00
   59.39        2967.50           1469      136587.00    604839.10
   59.41        2967.75           1473      135007.00    597732.00
   59.44        2968.00           1476      131169.00    580478.90
   59.47        2968.25           1479      126674.00    560292.10
   59.50        2968.50           1483      118591.00    524045.70
   59.53        2968.75           1486      112352.00    496115.10
   59.55        2969.00           1489      106924.00    471848.40
   59.58        2969.25           1493       99148.00    437138.20
   59.61        2969.50           1496       92886.00    409231.80
   59.64        2969.75           1499       87105.00    383505.10
   59.67        2970.00           1502       80451.00    353936.10
   59.69        2970.25           1506       72125.00    317001.30
   59.73        2970.50           1509       66357.00    291455.70
   59.76        2970.75           1512       59758.00    262271.50
   59.79        2971.00           1516       51806.00    227162.50
   59.81        2971.25           1519       45802.00    200696.70
   59.84        2971.50           1522       40115.00    175661.80
   59.87        2971.75           1526       31249.00    136697.70
   59.90        2972.00           1529       25099.00    109716.20
   59.93        2972.25           1532       18830.00     82251.56
   59.95        2972.50           1536       10848.00     47338.96
   59.98        2972.75           1539        5426.00     23659.71
   60.01        2973.00           1542        2363.00     10295.69
   60.04        2973.25           1546        1315.00      5725.35
   60.06        2973.50           1549        1045.00      4548.05
   60.09        2973.75           1552         836.00      3636.79
   60.12        2974.00           1556         668.00      2904.32
   60.15        2974.25           1559         424.00      1840.54
   60.18        2974.50           1562         280.00      1212.77
   60.20        2974.75           1566         206.00       890.17
   60.23        2975.00           1569         154.00       663.48
   60.26        2975.25           1572         149.00       641.68
   60.29        2975.50           1576         138.00       593.73
   60.32        2975.75           1579         133.00       571.94
   60.34        2976.00           1582         141.00       606.81
   60.37        2976.25           1586         119.00       510.90
   60.40        2976.50           1589         118.00       506.55
   60.43        2976.75           1592         109.00       467.31
   60.46        2977.00           1596         108.00       462.95
   60.48        2977.25           1599         109.00       467.31
   60.51        2977.50           1602         109.00       467.31
   60.54        2977.75           1606          97.00       415.00
   60.57        2978.00           1609         100.00       428.08
   60.60        2978.25           1612          89.00       380.13
   60.62        2978.50           1616          88.00       375.77
   60.65        2978.75           1619          81.00       345.25
   60.68        2979.00           1622          86.00       367.05
   60.71        2979.25           1626          79.00       336.53
   60.73        2979.50           1629          82.00       349.61
   60.76        2979.75           1632          84.00       358.33
   60.79        2980.00           1636          76.00       323.46
   60.82        2980.25           1639          78.00       332.17
   60.85        2980.50           1642          72.00       306.02
   60.87        2980.75           1646          79.00       336.53
   60.90        2981.00           1649          82.00       349.61
   60.93        2981.25           1652          87.00       371.41
   60.96        2981.50           1656          88.00       375.77
   60.99        2981.75           1659          75.00       319.10
   61.01        2982.00           1662          78.00       332.17
   61.04        2982.25           1666          69.00       292.94
   61.07        2982.50           1669          91.00       388.84
   61.10        2982.75           1672          69.00       292.94
   61.13        2983.00           1676          77.00       327.81
   61.15        2983.25           1679          72.00       306.02
   61.18        2983.50           1682          82.00       349.61
   61.21        2983.75           1686          78.00       332.17
   61.24        2984.00           1689          79.00       336.53
HS scan finished at 01:01:25
end
