************************************************************
  HS Scan of (1) Internal mercury lamp
************************************************************
Integration time is 0.2294 seconds per sample
dh030617El Arenosillo 37.1 6.73 3.018777pr1000
************************************************************
Dead Time -------------------------  2.6E-08 
Number of Cycles Used -------------  4 
Starting Wavelength (Angstroms) ---  2950 
Final Wavelength (Angstoms) -------  2984 
Wavelength Increment (Angstroms) --  .25 
Filter Wheel #1 Position ---------- (1) Ground quartz diffuser (ND=2.32)
Filter Wheel #2 Position ---------- (1) Neutral Density 0.494



************************************************************
HS scan start time = 01:49:32
Dark Count =  14 


Time (GMT)  Wavelength (Ang)  Step Number  Raw Counts  Counts/Second

  109.90        2950.00           1237         187.00       754.16
  109.96        2950.25           1240         175.00       701.84
  109.99        2950.50           1244         172.00       688.77
  110.02        2950.75           1247         179.00       719.28
  110.05        2951.00           1250         170.00       680.05
  110.08        2951.25           1254         180.00       723.64
  110.10        2951.50           1257         170.00       680.05
  110.13        2951.75           1260         169.00       675.69
  110.16        2952.00           1264         178.00       714.92
  110.19        2952.25           1267         175.00       701.84
  110.21        2952.50           1270         166.00       662.61
  110.24        2952.75           1273         178.00       714.92
  110.27        2953.00           1277         192.00       775.95
  110.30        2953.25           1280         169.00       675.69
  110.33        2953.50           1283         191.00       771.59
  110.35        2953.75           1287         172.00       688.77
  110.38        2954.00           1290         179.00       719.28
  110.41        2954.25           1293         180.00       723.64
  110.44        2954.50           1297         176.00       706.20
  110.47        2954.75           1300         194.00       784.67
  110.49        2955.00           1303         183.00       736.72
  110.52        2955.25           1307         196.00       793.39
  110.55        2955.50           1310         180.00       723.64
  110.58        2955.75           1313         193.00       780.31
  110.61        2956.00           1317         194.00       784.67
  110.63        2956.25           1320         211.00       858.78
  110.66        2956.50           1323         205.00       832.62
  110.69        2956.75           1326         199.00       806.47
  110.72        2957.00           1330         218.00       889.30
  110.74        2957.25           1333         214.00       871.86
  110.77        2957.50           1336         220.00       898.02
  110.80        2957.75           1340         224.00       915.45
  110.83        2958.00           1343         230.00       941.61
  110.86        2958.25           1346         230.00       941.61
  110.88        2958.50           1350         240.00       985.20
  110.91        2958.75           1353         267.00      1102.91
  110.94        2959.00           1356         269.00      1111.63
  110.97        2959.25           1360         312.00      1299.08
  110.99        2959.50           1363         458.00      1935.58
  111.02        2959.75           1366         606.00      2580.82
  111.05        2960.00           1370         846.00      3627.19
  111.08        2960.25           1373        1064.00      4577.70
  111.11        2960.50           1376        1307.00      5637.27
  111.13        2960.75           1380        1531.00      6614.04
  111.16        2961.00           1383        1790.00      7743.49
  111.19        2961.25           1386        2036.00      8816.32
  111.22        2961.50           1390        4364.00     18971.87
  111.25        2961.75           1393        9177.00     39984.88
  111.27        2962.00           1396       15541.00     67804.70
  111.30        2962.25           1399       22941.00    100204.10
  111.33        2962.50           1403       33617.00    147043.20
  111.36        2962.75           1406       41659.00    182401.80
  111.39        2963.00           1409       49361.00    216326.70
  111.41        2963.25           1413       58591.00    257061.10
  111.44        2963.50           1416       64715.00    284135.80
  111.47        2963.75           1419       71961.00    316220.50
  111.50        2964.00           1423       82263.00    361929.50
  111.53        2964.25           1426       89380.00    393570.90
  111.55        2964.50           1429       97145.00    428153.00
  111.58        2964.75           1433      106772.00    471114.80
  111.61        2965.00           1436      114122.00    503980.20
  111.64        2965.25           1439      119730.00    529094.40
  111.67        2965.50           1443      128033.00    566338.30
  111.69        2965.75           1446      134287.00    594439.30
  111.72        2966.00           1449      140358.00    621757.70
  111.75        2966.25           1453      150469.00    667342.30
  111.78        2966.50           1456      153727.00    682053.90
  111.81        2966.75           1459      155119.00    688343.10
  111.83        2967.00           1463      155128.00    688383.70
  111.86        2967.25           1466      154841.00    687086.90
  111.89        2967.50           1469      154451.00    685324.80
  111.92        2967.75           1473      150371.00    666900.00
  111.94        2968.00           1476      144290.00    639471.80
  111.97        2968.25           1479      138317.00    612569.10
  112.00        2968.50           1483      127657.00    564650.10
  112.03        2968.75           1486      120872.00    534212.60
  112.06        2969.00           1489      114764.00    506853.60
  112.09        2969.25           1493      105781.00    466687.80
  112.11        2969.50           1496       99431.00    438345.90
  112.14        2969.75           1499       92571.00    407774.70
  112.17        2970.00           1502       86505.00    380782.70
  112.20        2970.25           1506       77727.00    341790.20
  112.23        2970.50           1509       70613.00    310247.60
  112.25        2970.75           1512       63514.00    278823.00
  112.28        2971.00           1516       54162.00    237504.00
  112.31        2971.25           1519       46040.00    201691.40
  112.34        2971.50           1522       38732.00    169525.00
  112.37        2971.75           1526       28762.00    125728.60
  112.39        2972.00           1529       20766.00     90675.60
  112.42        2972.25           1532       13306.00     58029.95
  112.45        2972.50           1536        5894.00     25649.18
  112.48        2972.75           1539        2900.00     12584.76
  112.50        2973.00           1542        1611.00      6962.90
  112.53        2973.25           1546        1205.00      5192.51
  112.56        2973.50           1549         913.00      3919.32
  112.59        2973.75           1552         743.00      3178.12
  112.62        2974.00           1556         537.00      2280.00
  112.64        2974.25           1559         375.00      1573.73
  112.67        2974.50           1562         318.00      1325.24
  112.70        2974.75           1566         278.00      1150.86
  112.73        2975.00           1569         263.00      1085.47
  112.76        2975.25           1572         258.00      1063.67
  112.78        2975.50           1576         243.00       998.28
  112.81        2975.75           1579         228.00       932.89
  112.84        2976.00           1582         223.00       911.09
  112.87        2976.25           1586         203.00       823.91
  112.90        2976.50           1589         217.00       884.94
  112.92        2976.75           1592         225.00       919.81
  112.95        2977.00           1596         207.00       841.34
  112.98        2977.25           1599         208.00       845.70
  113.01        2977.50           1602         206.00       836.98
  113.03        2977.75           1606         201.00       815.19
  113.06        2978.00           1609         203.00       823.91
  113.09        2978.25           1612         190.00       767.23
  113.12        2978.50           1616         191.00       771.59
  113.15        2978.75           1619         183.00       736.72
  113.17        2979.00           1622         191.00       771.59
  113.20        2979.25           1626         183.00       736.72
  113.23        2979.50           1629         198.00       802.11
  113.26        2979.75           1632         173.00       693.12
  113.29        2980.00           1636         192.00       775.95
  113.31        2980.25           1639         184.00       741.08
  113.34        2980.50           1642         180.00       723.64
  113.37        2980.75           1646         177.00       710.56
  113.40        2981.00           1649         178.00       714.92
  113.42        2981.25           1652         174.00       697.48
  113.45        2981.50           1656         165.00       658.25
  113.48        2981.75           1659         165.00       658.25
  113.51        2982.00           1662         182.00       732.36
  113.54        2982.25           1666         165.00       658.25
  113.56        2982.50           1669         172.00       688.77
  113.59        2982.75           1672         175.00       701.84
  113.62        2983.00           1676         169.00       675.69
  113.65        2983.25           1679         167.00       666.97
  113.68        2983.50           1682         158.00       627.73
  113.70        2983.75           1686         154.00       610.30
  113.73        2984.00           1689         170.00       680.05
HS scan finished at 01:53:54
end
************************************************************
  HS Scan of (1) Internal mercury lamp
************************************************************
Integration time is 0.2294 seconds per sample
dh030617El Arenosillo 37.1 6.73 3.179721pr1000
************************************************************
Dead Time -------------------------  2.6E-08 
Number of Cycles Used -------------  4 
Starting Wavelength (Angstroms) ---  2950 
Final Wavelength (Angstoms) -------  2984 
Wavelength Increment (Angstroms) --  .25 
Filter Wheel #1 Position ---------- (1) Ground quartz diffuser (ND=2.32)
Filter Wheel #2 Position ---------- (1) Neutral Density 0.494



************************************************************
HS scan start time = 20:39:44
Dark Count =  11.9 


Time (GMT)  Wavelength (Ang)  Step Number  Raw Counts  Counts/Second

 1240.10        2950.00           1237         175.00       711.00
 1240.17        2950.25           1240         183.00       745.87
 1240.19        2950.50           1244         161.00       649.97
 1240.22        2950.75           1247         186.00       758.95
 1240.25        2951.00           1250         174.00       706.64
 1240.28        2951.25           1254         173.00       702.28
 1240.31        2951.50           1257         170.00       689.20
 1240.33        2951.75           1260         166.00       671.76
 1240.36        2952.00           1264         176.00       715.36
 1240.39        2952.25           1267         171.00       693.56
 1240.42        2952.50           1270         165.00       667.40
 1240.45        2952.75           1273         177.00       719.72
 1240.47        2953.00           1277         170.00       689.20
 1240.50        2953.25           1280         176.00       715.36
 1240.53        2953.50           1283         166.00       671.76
 1240.56        2953.75           1287         177.00       719.72
 1240.58        2954.00           1290         170.00       689.20
 1240.61        2954.25           1293         172.00       697.92
 1240.64        2954.50           1297         180.00       732.80
 1240.67        2954.75           1300         167.00       676.12
 1240.70        2955.00           1303         179.00       728.44
 1240.72        2955.25           1307         185.00       754.59
 1240.75        2955.50           1310         176.00       715.36
 1240.78        2955.75           1313         181.00       737.15
 1240.81        2956.00           1317         186.00       758.95
 1240.83        2956.25           1320         196.00       802.55
 1240.86        2956.50           1323         186.00       758.95
 1240.89        2956.75           1326         196.00       802.55
 1240.92        2957.00           1330         201.00       824.34
 1240.95        2957.25           1333         204.00       837.42
 1240.97        2957.50           1336         219.00       902.81
 1241.00        2957.75           1340         213.00       876.65
 1241.03        2958.00           1343         226.00       933.33
 1241.06        2958.25           1346         231.00       955.12
 1241.08        2958.50           1350         242.00      1003.08
 1241.11        2958.75           1353         252.00      1046.67
 1241.14        2959.00           1356         275.00      1146.94
 1241.17        2959.25           1360         327.00      1373.63
 1241.20        2959.50           1363         517.00      2201.96
 1241.22        2959.75           1366         672.00      2877.72
 1241.25        2960.00           1370         927.00      3989.52
 1241.28        2960.25           1373        1170.00      5049.05
 1241.31        2960.50           1376        1347.00      5820.85
 1241.34        2960.75           1380        1598.00      6915.37
 1241.36        2961.00           1383        1879.00      8140.78
 1241.39        2961.25           1386        2341.00     10155.69
 1241.42        2961.50           1390        5640.00     24549.67
 1241.45        2961.75           1393       10698.00     46639.35
 1241.48        2962.00           1396       17522.00     76481.93
 1241.50        2962.25           1399       24582.00    107405.40
 1241.53        2962.50           1403       35548.00    155536.60
 1241.56        2962.75           1406       43686.00    191333.50
 1241.59        2963.00           1409       51053.00    223796.70
 1241.62        2963.25           1413       59190.00    259717.00
 1241.64        2963.50           1416       66239.00    290888.80
 1241.67        2963.75           1419       73981.00    325183.70
 1241.70        2964.00           1423       84568.00    372180.90
 1241.73        2964.25           1426       91959.00    405059.20
 1241.75        2964.50           1429      100038.00    441062.70
 1241.78        2964.75           1433      109301.00    482426.20
 1241.81        2965.00           1436      115120.00    508456.60
 1241.84        2965.25           1439      120759.00    533715.50
 1241.87        2965.50           1443      130790.00    578730.60
 1241.90        2965.75           1446      137001.00    606656.30
 1241.92        2966.00           1449      143874.00    637606.30
 1241.95        2966.25           1453      151881.00    673726.30
 1241.98        2966.50           1456      154776.00    686802.60
 1242.01        2966.75           1459      155428.00    689748.90
 1242.04        2967.00           1463      156088.00    692731.80
 1242.06        2967.25           1466      155706.00    691005.30
 1242.09        2967.50           1469      154844.00    687109.90
 1242.12        2967.75           1473      150354.00    666832.60
 1242.15        2968.00           1476      144137.00    638791.60
 1242.18        2968.25           1479      137363.00    608285.30
 1242.20        2968.50           1483      128489.00    568395.30
 1242.23        2968.75           1486      122125.00    539839.30
 1242.26        2969.00           1489      114930.00    507606.10
 1242.29        2969.25           1493      106083.00    468046.20
 1242.32        2969.50           1496      100264.00    442070.80
 1242.34        2969.75           1499       94215.00    415106.00
 1242.37        2970.00           1502       88236.00    388490.70
 1242.40        2970.25           1506       79080.00    347804.50
 1242.43        2970.50           1509       71643.00    314820.50
 1242.46        2970.75           1512       64137.00    281588.10
 1242.48        2971.00           1516       53247.00    233475.40
 1242.51        2971.25           1519       45182.00    197921.30
 1242.54        2971.50           1522       36964.00    161760.40
 1242.57        2971.75           1526       26688.00    116639.60
 1242.60        2972.00           1529       20684.00     90325.66
 1242.62        2972.25           1532       14605.00     63719.69
 1242.65        2972.50           1536        6793.00     29582.91
 1242.68        2972.75           1539        2968.00     12890.55
 1242.71        2973.00           1542        1520.00      6575.23
 1242.74        2973.25           1546        1113.00      4800.51
 1242.76        2973.50           1549         829.00      3562.23
 1242.79        2973.75           1552         623.00      2664.09
 1242.82        2974.00           1556         465.00      1975.25
 1242.85        2974.25           1559         366.00      1543.65
 1242.87        2974.50           1562         288.00      1203.61
 1242.90        2974.75           1566         269.00      1120.78
 1242.93        2975.00           1569         259.00      1077.19
 1242.96        2975.25           1572         228.00       942.05
 1242.99        2975.50           1576         229.00       946.41
 1243.01        2975.75           1579         242.00      1003.08
 1243.04        2976.00           1582         219.00       902.81
 1243.07        2976.25           1586         212.00       872.30
 1243.10        2976.50           1589         214.00       881.01
 1243.13        2976.75           1592         207.00       850.50
 1243.15        2977.00           1596         212.00       872.30
 1243.18        2977.25           1599         202.00       828.70
 1243.21        2977.50           1602         202.00       828.70
 1243.24        2977.75           1606         193.00       789.47
 1243.26        2978.00           1609         185.00       754.59
 1243.29        2978.25           1612         179.00       728.44
 1243.32        2978.50           1616         171.00       693.56
 1243.35        2978.75           1619         174.00       706.64
 1243.38        2979.00           1622         164.00       663.05
 1243.40        2979.25           1626         168.00       680.48
 1243.43        2979.50           1629         165.00       667.40
 1243.46        2979.75           1632         167.00       676.12
 1243.49        2980.00           1636         171.00       693.56
 1243.52        2980.25           1639         160.00       645.61
 1243.54        2980.50           1642         164.00       663.05
 1243.57        2980.75           1646         158.00       636.89
 1243.60        2981.00           1649         157.00       632.53
 1243.63        2981.25           1652         166.00       671.76
 1243.65        2981.50           1656         163.00       658.69
 1243.68        2981.75           1659         167.00       676.12
 1243.71        2982.00           1662         164.00       663.05
 1243.74        2982.25           1666         173.00       702.28
 1243.77        2982.50           1669         165.00       667.40
 1243.79        2982.75           1672         169.00       684.84
 1243.82        2983.00           1676         170.00       689.20
 1243.85        2983.25           1679         160.00       645.61
 1243.88        2983.50           1682         165.00       667.40
 1243.91        2983.75           1686         168.00       680.48
 1243.93        2984.00           1689         153.00       615.09
HS scan finished at 20:44:06
end
