************************************************************
  HS Scan of (1) Internal mercury lamp
************************************************************
Integration time is 0.2294 seconds per sample
dh040617El Arenosillo 37.1 6.73 2.911481pr1000
************************************************************
Dead Time -------------------------  2.6E-08 
Number of Cycles Used -------------  4 
Starting Wavelength (Angstroms) ---  2950 
Final Wavelength (Angstoms) -------  2984 
Wavelength Increment (Angstroms) --  .25 
Filter Wheel #1 Position ---------- (1) Ground quartz diffuser (ND=2.32)
Filter Wheel #2 Position ---------- (1) Neutral Density 0.494



************************************************************
HS scan start time = 01:58:30
Dark Count =  6.7 


Time (GMT)  Wavelength (Ang)  Step Number  Raw Counts  Counts/Second

  118.86        2950.00           1237         180.00       755.46
  118.92        2950.25           1240         180.00       755.46
  118.95        2950.50           1244         169.00       707.51
  118.98        2950.75           1247         181.00       759.82
  119.00        2951.00           1250         179.00       751.10
  119.03        2951.25           1254         172.00       720.59
  119.06        2951.50           1257         190.00       799.06
  119.09        2951.75           1260         180.00       755.46
  119.12        2952.00           1264         186.00       781.62
  119.14        2952.25           1267         166.00       694.43
  119.17        2952.50           1270         178.00       746.75
  119.20        2952.75           1273         190.00       799.06
  119.23        2953.00           1277         197.00       829.57
  119.26        2953.25           1280         180.00       755.46
  119.28        2953.50           1283         190.00       799.06
  119.31        2953.75           1287         182.00       764.18
  119.34        2954.00           1290         179.00       751.10
  119.37        2954.25           1293         186.00       781.62
  119.40        2954.50           1297         188.00       790.34
  119.42        2954.75           1300         179.00       751.10
  119.45        2955.00           1303         191.00       803.42
  119.48        2955.25           1307         201.00       847.01
  119.51        2955.50           1310         191.00       803.42
  119.53        2955.75           1313         187.00       785.98
  119.56        2956.00           1317         199.00       838.29
  119.59        2956.25           1320         212.00       894.96
  119.62        2956.50           1323         200.00       842.65
  119.65        2956.75           1326         210.00       886.25
  119.67        2957.00           1330         212.00       894.96
  119.70        2957.25           1333         210.00       886.25
  119.73        2957.50           1336         227.00       960.36
  119.76        2957.75           1340         238.00      1008.31
  119.79        2958.00           1343         238.00      1008.31
  119.81        2958.25           1346         244.00      1034.47
  119.84        2958.50           1350         262.00      1112.94
  119.87        2958.75           1353         365.00      1561.96
  119.90        2959.00           1356         494.00      2124.35
  119.93        2959.25           1360         651.00      2808.84
  119.95        2959.50           1363         908.00      3929.35
  119.98        2959.75           1366        1079.00      4674.94
  120.01        2960.00           1370        1293.00      5608.05
  120.04        2960.25           1373        1584.00      6876.99
  120.06        2960.50           1376        1729.00      7509.31
  120.09        2960.75           1380        1989.00      8643.18
  120.12        2961.00           1383        2222.00      9659.36
  120.15        2961.25           1386        2669.00     11609.00
  120.18        2961.50           1390        5926.00     25820.73
  120.20        2961.75           1393       10624.00     46338.71
  120.23        2962.00           1396       16824.00     73450.08
  120.26        2962.25           1399       24054.00    105113.80
  120.29        2962.50           1403       33633.00    147145.60
  120.32        2962.75           1406       41230.00    180546.10
  120.34        2963.00           1409       48211.00    211289.70
  120.37        2963.25           1413       57271.00    251262.50
  120.40        2963.50           1416       65112.00    285924.60
  120.43        2963.75           1419       73666.00    323810.20
  120.46        2964.00           1423       84330.00    371146.20
  120.48        2964.25           1426       91148.00    401471.90
  120.51        2964.50           1429       96397.00    424851.60
  120.54        2964.75           1433      104363.00    460387.80
  120.57        2965.00           1436      111166.00    490788.30
  120.60        2965.25           1439      117599.00    519580.00
  120.62        2965.50           1443      126097.00    557680.40
  120.65        2965.75           1446      132603.00    586901.30
  120.68        2966.00           1449      139038.00    615847.40
  120.71        2966.25           1453      146575.00    649806.50
  120.74        2966.50           1456      150260.00    666431.80
  120.76        2966.75           1459      151599.00    672476.50
  120.79        2967.00           1463      152531.00    676685.00
  120.82        2967.25           1466      152471.00    676414.00
  120.85        2967.50           1469      151310.00    671171.80
  120.88        2967.75           1473      148532.00    658634.00
  120.90        2968.00           1476      142844.00    632988.30
  120.93        2968.25           1479      137106.00    607152.30
  120.96        2968.50           1483      129141.00    571346.60
  120.99        2968.75           1486      122336.00    540808.80
  121.02        2969.00           1489      115420.00    509822.70
  121.04        2969.25           1493      106218.00    468672.50
  121.07        2969.50           1496       99517.00    438762.00
  121.10        2969.75           1499       92332.00    406743.00
  121.13        2970.00           1502       85566.00    376640.20
  121.16        2970.25           1506       76640.00    336999.60
  121.18        2970.50           1509       69014.00    303197.20
  121.21        2970.75           1512       61697.00    270820.50
  121.24        2971.00           1516       53559.00    234875.00
  121.27        2971.25           1519       46572.00    204067.20
  121.30        2971.50           1522       39487.00    172877.80
  121.32        2971.75           1526       30988.00    135530.40
  121.35        2972.00           1529       23301.00    101813.60
  121.38        2972.25           1532       15388.00     67167.33
  121.41        2972.50           1536        6688.00     29147.19
  121.44        2972.75           1539        2476.00     10767.18
  121.46        2973.00           1542        1062.00      4600.81
  121.49        2973.25           1546         670.00      2891.67
  121.52        2973.50           1549         447.00      1919.45
  121.55        2973.75           1552         364.00      1557.60
  121.57        2974.00           1556         312.00      1330.91
  121.60        2974.25           1559         273.00      1160.89
  121.63        2974.50           1562         271.00      1152.17
  121.66        2974.75           1566         256.00      1086.78
  121.69        2975.00           1569         239.00      1012.67
  121.71        2975.25           1572         265.00      1126.01
  121.74        2975.50           1576         250.00      1060.62
  121.77        2975.75           1579         235.00       995.23
  121.80        2976.00           1582         224.00       947.28
  121.82        2976.25           1586         219.00       925.48
  121.85        2976.50           1589         224.00       947.28
  121.88        2976.75           1592         218.00       921.12
  121.91        2977.00           1596         227.00       960.36
  121.94        2977.25           1599         194.00       816.50
  121.96        2977.50           1602         192.00       807.78
  121.99        2977.75           1606         191.00       803.42
  122.02        2978.00           1609         190.00       799.06
  122.05        2978.25           1612         195.00       820.85
  122.08        2978.50           1616         179.00       751.10
  122.10        2978.75           1619         188.00       790.34
  122.13        2979.00           1622         188.00       790.34
  122.16        2979.25           1626         183.00       768.54
  122.19        2979.50           1629         185.00       777.26
  122.21        2979.75           1632         189.00       794.70
  122.24        2980.00           1636         174.00       729.31
  122.27        2980.25           1639         173.00       724.95
  122.30        2980.50           1642         169.00       707.51
  122.33        2980.75           1646         174.00       729.31
  122.35        2981.00           1649         160.00       668.28
  122.38        2981.25           1652         180.00       755.46
  122.41        2981.50           1656         170.00       711.87
  122.44        2981.75           1659         167.00       698.79
  122.47        2982.00           1662         168.00       703.15
  122.49        2982.25           1666         168.00       703.15
  122.52        2982.50           1669         170.00       711.87
  122.55        2982.75           1672         175.00       733.67
  122.58        2983.00           1676         172.00       720.59
  122.60        2983.25           1679         166.00       694.43
  122.63        2983.50           1682         172.00       720.59
  122.66        2983.75           1686         165.00       690.07
  122.69        2984.00           1689         157.00       655.20
HS scan finished at 02:02:52
end
